 Castelli and Kurucz 2004-2012 Atmosphere
 T     32000.     G    4.50000 [+0.5] N(He)/Ntot=0.07813 VTURB=2.0  L/H=1.25 NO
 Wavelength  Eddington Hnu
   (nm)    (ergs/s/cm2/Hz/sr)
  9.0900      2.74310E-33
  9.3500      1.65560E-32
  9.6100      9.13550E-32
  9.7700      2.50990E-31
  9.9600      8.01720E-31
  10.200      3.28420E-30
  10.380      9.10700E-30
  10.560      2.44600E-29
  10.770      7.45600E-29
  11.040      2.95280E-28
  11.400      1.68590E-27
  11.780      9.55980E-27
  12.130      4.32780E-26
  12.480      1.81150E-25
  12.710      4.46160E-25
  12.840      7.32750E-25
  13.050      1.60000E-24
  13.240      3.18650E-24
  13.390      5.41520E-24
  13.660      1.36980E-23
  13.980      3.94200E-23
  14.330      1.19050E-22
  14.720      3.84690E-22
  15.100      1.14230E-21
  15.520      3.58620E-21
  15.880      9.13840E-21
  16.200      2.03090E-20
  16.600      5.29050E-20
  17.030      1.40410E-19
  17.340      2.77600E-19
  17.680      5.70820E-19
  18.020      1.13860E-18
  18.170      1.53980E-18
  18.610      3.58130E-18
  19.100      8.78790E-18
  19.390      1.46250E-17
  19.840      3.14360E-17
  20.180      5.46700E-17
  20.500      9.05220E-17
  21.050      2.08530E-16
  21.620      4.71030E-16
  21.980      7.78450E-16
  22.300      1.19580E-15
  22.680      2.05160E-15
  23.000      2.48730E-13
  23.400      5.30960E-13
  24.000      9.41340E-13
  24.650      1.76020E-12
  25.240      3.11230E-12
  25.680      4.63870E-12
  26.000      8.06050E-12
  26.400      1.33790E-11
  26.850      2.08130E-11
  27.350      3.05400E-11
  27.850      4.18000E-11
  28.400      9.75950E-11
  29.000      1.50390E-10
  29.600      2.14880E-10
  30.100      3.34270E-10
  30.800      9.28200E-10
  31.800      2.03220E-09
  32.800      3.22560E-09
  33.800      6.16530E-09
  34.800      1.03140E-08
  35.700      2.79320E-08
  36.600      6.33990E-08
  37.500      8.08900E-08
  38.500      1.27920E-07
  39.500      2.76660E-07
  40.500      3.61940E-07
  41.400      5.28160E-07
  42.200      6.43820E-07
  43.000      8.01670E-07
  44.100      1.05890E-06
  45.100      1.22140E-06
  46.000      1.34520E-06
  47.000      1.74290E-06
  48.000      2.18560E-06
  49.000      2.51960E-06
  50.000      3.14890E-06
  50.600      4.94890E-06
  51.200      4.10410E-05
  52.000      4.00720E-05
  53.000      3.78010E-05
  54.000      3.63280E-05
  55.000      4.69810E-05
  56.000      6.40090E-05
  57.000      7.04040E-05
  58.000      6.66540E-05
  59.000      7.42260E-05
  60.000      5.84270E-05
  61.000      7.79980E-05
  62.000      9.66850E-05
  63.000      9.53910E-05
  64.000      9.33470E-05
  65.000      9.12360E-05
  65.800      7.85180E-05
  66.500      1.00350E-04
  67.500      1.18310E-04
  68.500      9.20640E-05
  69.500      1.38370E-04
  70.500      1.09170E-04
  71.600      1.59840E-04
  72.600      1.58390E-04
  73.500      1.62130E-04
  74.500      1.60350E-04
  75.500      1.65910E-04
  76.500      1.74950E-04
  77.500      1.88340E-04
  78.500      2.00890E-04
  79.500      2.06560E-04
  80.500      1.99970E-04
  81.500      2.01950E-04
  82.500      2.23780E-04
  83.500      1.75380E-04
  84.500      2.19970E-04
  85.500      2.20870E-04
  86.500      2.35220E-04
  87.500      2.43470E-04
  88.500      2.56690E-04
  89.500      2.64500E-04
  90.500      2.59440E-04
  91.500      2.81810E-04
  92.500      8.56060E-04
  93.500      1.43400E-03
  94.500      1.95960E-03
  95.500      2.17730E-03
  96.500      2.51270E-03
  97.500      7.99040E-04
  98.500      1.95430E-03
  99.500      1.83700E-03
  100.50      2.01750E-03
  101.50      2.22000E-03
  102.50      1.74020E-03
  103.50      2.18170E-03
  104.50      2.71230E-03
  105.50      2.56260E-03
  106.50      2.14520E-03
  107.50      2.33460E-03
  108.50      2.16250E-03
  109.50      2.36250E-03
  110.50      2.28330E-03
  111.50      2.28960E-03
  112.50      1.76780E-03
  113.50      2.24680E-03
  114.50      2.20630E-03
  115.50      2.12520E-03
  116.50      2.07460E-03
  117.50      1.22960E-03
  118.50      1.93530E-03
  119.50      1.92000E-03
  120.50      1.81430E-03
  121.50      1.46240E-03
  122.50      1.87210E-03
  123.50      2.06670E-03
  124.50      1.99210E-03
  125.50      2.01640E-03
  126.50      2.12970E-03
  127.50      2.25830E-03
  128.50      2.30480E-03
  129.50      2.08500E-03
  130.50      2.14430E-03
  131.50      2.37740E-03
  132.50      2.30570E-03
  133.50      2.25950E-03
  134.50      2.28140E-03
  135.50      2.26980E-03
  136.50      2.19420E-03
  137.50      2.13550E-03
  138.50      2.06690E-03
  139.50      1.51000E-03
  140.50      1.62380E-03
  141.50      2.02780E-03
  142.50      1.84590E-03
  143.50      2.02400E-03
  144.20      2.02030E-03
  144.70      2.02170E-03
  145.50      1.93060E-03
  146.50      1.86360E-03
  147.50      1.93960E-03
  148.50      1.95830E-03
  149.50      1.91370E-03
  150.50      1.81910E-03
  151.20      1.75890E-03
  151.70      1.80460E-03
  152.50      1.76880E-03
  153.50      1.50370E-03
  154.50      1.28480E-03
  155.50      1.30340E-03
  156.50      1.52290E-03
  157.50      1.64230E-03
  158.50      1.68270E-03
  159.50      1.69310E-03
  160.50      1.65730E-03
  161.50      1.58310E-03
  162.50      1.64790E-03
  163.50      1.71020E-03
  164.50      1.74770E-03
  165.50      1.74620E-03
  166.50      1.75380E-03
  167.20      1.61020E-03
  167.70      1.95530E-03
  168.50      1.85050E-03
  169.50      1.78890E-03
  170.50      1.79200E-03
  171.50      1.70190E-03
  172.50      1.64480E-03
  173.50      1.73440E-03
  174.50      1.74060E-03
  175.50      1.74520E-03
  176.50      1.74260E-03
  177.50      1.66830E-03
  178.50      1.72960E-03
  179.50      1.71980E-03
  180.50      1.73420E-03
  181.50      1.66580E-03
  182.50      1.67470E-03
  183.50      1.68010E-03
  184.50      1.57880E-03
  185.50      1.65080E-03
  186.50      1.67750E-03
  187.50      1.66660E-03
  188.50      1.56080E-03
  189.50      1.52050E-03
  190.50      1.60560E-03
  191.50      1.56260E-03
  192.50      1.46340E-03
  193.50      1.60090E-03
  194.50      1.65160E-03
  195.50      1.47510E-03
  196.70      1.59940E-03
  197.60      1.67700E-03
  198.40      1.59740E-03
  199.50      1.58290E-03
  200.50      1.63760E-03
  201.50      1.64770E-03
  202.50      1.67790E-03
  203.50      1.58370E-03
  204.50      1.59280E-03
  205.50      1.34800E-03
  206.50      1.32170E-03
  207.40      1.39220E-03
  207.80      1.34550E-03
  208.50      1.42350E-03
  209.50      1.47100E-03
  210.50      1.56410E-03
  211.50      1.59330E-03
  212.50      1.58970E-03
  213.50      1.58060E-03
  214.50      1.54920E-03
  215.50      1.58650E-03
  216.50      1.53770E-03
  217.50      1.57400E-03
  218.50      1.53930E-03
  219.50      1.58520E-03
  220.50      1.57710E-03
  221.50      1.53620E-03
  222.50      1.54740E-03
  223.50      1.53070E-03
  224.50      1.52750E-03
  225.50      1.49260E-03
  226.50      1.51690E-03
  227.50      1.51490E-03
  228.50      1.48560E-03
  229.50      1.29730E-03
  230.50      1.44140E-03
  231.50      1.44130E-03
  232.50      1.45250E-03
  233.50      1.43660E-03
  234.50      1.44120E-03
  235.50      1.41830E-03
  236.50      1.40690E-03
  237.50      1.37950E-03
  238.50      1.34390E-03
  239.50      1.35780E-03
  240.50      1.36640E-03
  241.50      1.36090E-03
  242.50      1.36700E-03
  243.50      1.34780E-03
  244.50      1.34860E-03
  245.50      1.34450E-03
  246.50      1.33620E-03
  247.50      1.32610E-03
  248.50      1.28500E-03
  249.50      9.40770E-04
  250.50      1.23680E-03
  251.30      1.21310E-03
  251.80      1.24580E-03
  252.50      1.28580E-03
  253.50      1.28950E-03
  254.50      1.26210E-03
  255.50      1.26280E-03
  256.50      1.25570E-03
  257.50      1.25360E-03
  258.50      1.25010E-03
  259.50      1.23930E-03
  260.50      1.24150E-03
  261.50      1.22210E-03
  262.50      1.22660E-03
  263.50      1.22380E-03
  264.50      1.20860E-03
  265.50      1.20730E-03
  266.50      1.17440E-03
  267.50      1.16020E-03
  268.50      1.18200E-03
  269.50      1.15150E-03
  270.50      1.14110E-03
  271.50      1.14080E-03
  272.50      1.14760E-03
  273.50      1.13080E-03
  274.50      1.13860E-03
  275.50      1.13510E-03
  276.50      1.12340E-03
  277.50      1.13660E-03
  278.50      1.12120E-03
  279.50      1.08330E-03
  280.50      1.10140E-03
  281.50      1.11180E-03
  282.50      1.10340E-03
  283.50      1.07790E-03
  284.50      1.09270E-03
  285.50      1.08050E-03
  286.50      1.07310E-03
  287.50      1.06890E-03
  288.50      1.06310E-03
  289.50      1.05760E-03
  291.00      1.03950E-03
  293.00      1.04580E-03
  295.00      1.02670E-03
  297.00      1.01890E-03
  299.00      9.99800E-04
  301.00      9.77360E-04
  303.00      9.71050E-04
  305.00      9.73110E-04
  307.00      9.72020E-04
  309.00      9.45900E-04
  311.00      9.55370E-04
  313.00      9.38480E-04
  315.00      9.35590E-04
  317.00      9.21080E-04
  319.00      9.16570E-04
  321.00      9.04890E-04
  323.00      8.95380E-04
  325.00      8.94690E-04
  327.00      8.77560E-04
  329.00      8.74050E-04
  331.00      8.64540E-04
  333.00      8.52490E-04
  335.00      8.42830E-04
  337.00      8.35580E-04
  339.00      8.36750E-04
  341.00      8.27910E-04
  343.00      8.23630E-04
  345.00      8.10390E-04
  347.00      8.05720E-04
  349.00      7.97940E-04
  351.00      7.91370E-04
  353.00      7.88640E-04
  355.00      7.80010E-04
  357.00      7.74180E-04
  359.00      7.61630E-04
  361.00      7.55660E-04
  363.00      7.50590E-04
  364.00      7.48440E-04
  365.00      7.25390E-04
  367.00      7.22560E-04
  369.00      7.16440E-04
  371.00      6.95590E-04
  373.00      6.88380E-04
  375.00      6.93690E-04
  377.00      6.83230E-04
  379.00      7.15000E-04
  381.00      7.39060E-04
  383.00      6.70700E-04
  385.00      7.52720E-04
  387.00      7.36120E-04
  389.00      6.48900E-04
  391.00      7.59440E-04
  393.00      7.41470E-04
  395.00      7.28480E-04
  397.00      6.22290E-04
  399.00      7.28560E-04
  401.00      7.26100E-04
  403.00      7.01460E-04
  405.00      7.15040E-04
  407.00      6.86180E-04
  409.00      6.51030E-04
  411.00      6.02560E-04
  413.00      6.77270E-04
  415.00      6.76430E-04
  417.00      6.81710E-04
  419.00      6.77150E-04
  421.00      6.72180E-04
  423.00      6.68480E-04
  425.00      6.53100E-04
  427.00      6.44260E-04
  429.00      6.37310E-04
  431.00      6.21690E-04
  433.00      5.87070E-04
  435.00      5.53830E-04
  437.00      6.10210E-04
  439.00      6.10130E-04
  441.00      6.08430E-04
  443.00      6.11890E-04
  445.00      6.04930E-04
  447.00      5.89230E-04
  449.00      5.99220E-04
  451.00      5.91050E-04
  453.00      5.90980E-04
  455.00      5.84450E-04
  457.00      5.84690E-04
  459.00      5.77900E-04
  461.00      5.69210E-04
  463.00      5.60920E-04
  465.00      5.36660E-04
  467.00      5.55540E-04
  469.00      5.52310E-04
  471.00      5.43610E-04
  473.00      5.52920E-04
  475.00      5.48100E-04
  477.00      5.50310E-04
  479.00      5.45360E-04
  481.00      5.38500E-04
  483.00      5.31490E-04
  485.00      5.06190E-04
  487.00      4.61950E-04
  489.00      5.20030E-04
  491.00      5.18150E-04
  493.00      5.07250E-04
  495.00      5.09330E-04
  497.00      5.11580E-04
  499.00      5.07300E-04
  501.00      4.89920E-04
  503.00      4.96580E-04
  505.00      4.92560E-04
  507.00      4.93620E-04
  509.00      4.88970E-04
  511.00      4.84570E-04
  513.00      4.78740E-04
  515.00      4.76440E-04
  517.00      4.74280E-04
  519.00      4.72230E-04
  521.00      4.69440E-04
  523.00      4.66130E-04
  525.00      4.61290E-04
  527.00      4.57470E-04
  529.00      4.56790E-04
  531.00      4.53460E-04
  533.00      4.50720E-04
  535.00      4.47560E-04
  537.00      4.44780E-04
  539.00      4.41210E-04
  541.00      4.35800E-04
  543.00      4.36230E-04
  545.00      4.33110E-04
  547.00      4.30120E-04
  549.00      4.27200E-04
  551.00      4.24890E-04
  553.00      4.21440E-04
  555.00      4.19760E-04
  557.00      4.16700E-04
  559.00      4.13370E-04
  561.00      4.11740E-04
  563.00      4.09250E-04
  565.00      4.05870E-04
  567.00      4.01540E-04
  569.00      3.93880E-04
  571.00      3.91740E-04
  573.00      3.90170E-04
  575.00      3.86430E-04
  577.00      3.86130E-04
  579.00      3.83300E-04
  581.00      3.80370E-04
  583.00      3.77010E-04
  585.00      3.76590E-04
  587.00      3.65880E-04
  589.00      3.70080E-04
  591.00      3.69750E-04
  593.00      3.67670E-04
  595.00      3.65930E-04
  597.00      3.66240E-04
  599.00      3.62800E-04
  601.00      3.62390E-04
  603.00      3.59460E-04
  605.00      3.57910E-04
  607.00      3.56520E-04
  609.00      3.54560E-04
  611.00      3.52120E-04
  613.00      3.50400E-04
  615.00      3.46470E-04
  617.00      3.45050E-04
  619.00      3.44040E-04
  621.00      3.42480E-04
  623.00      3.40520E-04
  625.00      3.37650E-04
  627.00      3.36190E-04
  629.00      3.34550E-04
  631.00      3.32020E-04
  633.00      3.30850E-04
  635.00      3.28320E-04
  637.00      3.27220E-04
  639.00      3.25210E-04
  641.00      3.23300E-04
  643.00      3.21680E-04
  645.00      3.19580E-04
  647.00      3.16400E-04
  649.00      3.14950E-04
  651.00      3.12990E-04
  653.00      3.10450E-04
  655.00      3.01930E-04
  657.00      2.71900E-04
  659.00      3.03510E-04
  661.00      3.04760E-04
  663.00      3.03870E-04
  665.00      3.02020E-04
  667.00      2.97270E-04
  669.00      2.95580E-04
  671.00      2.96780E-04
  673.00      2.94270E-04
  675.00      2.93730E-04
  677.00      2.92650E-04
  679.00      2.89040E-04
  681.00      2.89270E-04
  683.00      2.87620E-04
  685.00      2.86360E-04
  687.00      2.84610E-04
  689.00      2.82300E-04
  691.00      2.80560E-04
  693.00      2.80560E-04
  695.00      2.79040E-04
  697.00      2.77590E-04
  699.00      2.76030E-04
  701.00      2.74350E-04
  703.00      2.72410E-04
  705.00      2.71360E-04
  707.00      2.66250E-04
  709.00      2.68810E-04
  711.00      2.65830E-04
  713.00      2.64670E-04
  715.00      2.64650E-04
  717.00      2.63110E-04
  719.00      2.61980E-04
  721.00      2.60840E-04
  723.00      2.56250E-04
  725.00      2.57520E-04
  727.00      2.56860E-04
  729.00      2.53730E-04
  731.00      2.54130E-04
  733.00      2.52830E-04
  735.00      2.51650E-04
  737.00      2.50450E-04
  739.00      2.49220E-04
  741.00      2.47950E-04
  743.00      2.46730E-04
  745.00      2.45400E-04
  747.00      2.43040E-04
  749.00      2.42160E-04
  751.00      2.41720E-04
  753.00      2.40330E-04
  755.00      2.39500E-04
  757.00      2.38260E-04
  759.00      2.36440E-04
  761.00      2.35330E-04
  763.00      2.34610E-04
  765.00      2.33520E-04
  767.00      2.32580E-04
  769.00      2.30940E-04
  771.00      2.29970E-04
  773.00      2.28460E-04
  775.00      2.28060E-04
  777.00      2.26930E-04
  779.00      2.26010E-04
  781.00      2.24870E-04
  783.00      2.23850E-04
  785.00      2.22710E-04
  787.00      2.21170E-04
  789.00      2.19950E-04
  791.00      2.19320E-04
  793.00      2.18270E-04
  795.00      2.17600E-04
  797.00      2.16420E-04
  799.00      2.15530E-04
  801.00      2.14390E-04
  803.00      2.13260E-04
  805.00      2.12570E-04
  807.00      2.11550E-04
  809.00      2.10450E-04
  811.00      2.08030E-04
  813.00      2.08690E-04
  815.00      2.07590E-04
  817.00      2.06830E-04
  819.00      2.04540E-04
  821.00      2.03090E-04
  823.00      2.01480E-04
  825.00      2.01830E-04
  827.00      1.99180E-04
  829.00      1.99890E-04
  831.00      1.99380E-04
  833.00      1.98140E-04
  835.00      1.96440E-04
  837.00      1.96200E-04
  839.00      1.95960E-04
  841.00      1.94840E-04
  843.00      1.94200E-04
  845.00      1.92340E-04
  847.00      1.92500E-04
  849.00      1.91320E-04
  851.00      1.89710E-04
  853.00      1.89650E-04
  855.00      1.88210E-04
  857.00      1.88900E-04
  859.00      1.85020E-04
  861.00      1.85350E-04
  863.00      1.87460E-04
  865.00      1.84250E-04
  867.00      1.79010E-04
  869.00      1.84940E-04
  871.00      1.85460E-04
  873.00      1.82060E-04
  875.00      1.71950E-04
  877.00      1.78850E-04
  879.00      1.83030E-04
  881.00      1.83150E-04
  883.00      1.81170E-04
  885.00      1.73210E-04
  887.00      1.64720E-04
  889.00      1.77690E-04
  891.00      1.79390E-04
  893.00      1.78990E-04
  895.00      1.78400E-04
  897.00      1.77390E-04
  899.00      1.73630E-04
  901.00      1.58880E-04
  903.00      1.65130E-04
  905.00      1.73380E-04
  907.00      1.72540E-04
  909.00      1.73000E-04
  911.00      1.73200E-04
  913.00      1.72550E-04
  915.00      1.71870E-04
  917.00      1.70400E-04
  919.00      1.69200E-04
  921.00      1.63100E-04
  923.00      1.47270E-04
  925.00      1.61390E-04
  927.00      1.66100E-04
  929.00      1.66310E-04
  931.00      1.65480E-04
  933.00      1.64990E-04
  935.00      1.64190E-04
  937.00      1.64020E-04
  939.00      1.63540E-04
  941.00      1.62610E-04
  943.00      1.62060E-04
  945.00      1.61340E-04
  947.00      1.60040E-04
  949.00      1.59600E-04
  951.00      1.57150E-04
  953.00      1.51470E-04
  955.00      1.37410E-04
  957.00      1.52900E-04
  959.00      1.56150E-04
  961.00      1.55570E-04
  963.00      1.54740E-04
  965.00      1.55370E-04
  967.00      1.54850E-04
  969.00      1.54130E-04
  971.00      1.50440E-04
  973.00      1.52520E-04
  975.00      1.52400E-04
  977.00      1.51840E-04
  979.00      1.51200E-04
  981.00      1.50450E-04
  983.00      1.50050E-04
  985.00      1.49360E-04
  987.00      1.48710E-04
  989.00      1.47780E-04
  991.00      1.46640E-04
  993.00      1.47170E-04
  995.00      1.46590E-04
  997.00      1.45820E-04
  999.00      1.45100E-04
  1002.5      1.38580E-04
  1007.5      1.35380E-04
  1012.5      1.40340E-04
  1017.5      1.40550E-04
  1022.5      1.39130E-04
  1027.5      1.37900E-04
  1032.5      1.36150E-04
  1037.5      1.35440E-04
  1042.5      1.34190E-04
  1047.5      1.32980E-04
  1052.5      1.31700E-04
  1057.5      1.30580E-04
  1062.5      1.29380E-04
  1067.5      1.28070E-04
  1072.5      1.27110E-04
  1077.5      1.25960E-04
  1082.5      1.23630E-04
  1087.5      1.23310E-04
  1092.5      1.13420E-04
  1097.5      1.18840E-04
  1102.5      1.19820E-04
  1107.5      1.19420E-04
  1112.5      1.18450E-04
  1117.5      1.17480E-04
  1122.5      1.16430E-04
  1127.5      1.15460E-04
  1132.5      1.14290E-04
  1137.5      1.13460E-04
  1142.5      1.12460E-04
  1147.5      1.11610E-04
  1152.5      1.10730E-04
  1157.5      1.09690E-04
  1162.5      1.08680E-04
  1167.5      1.07750E-04
  1172.5      1.07140E-04
  1177.5      1.06240E-04
  1182.5      1.05340E-04
  1187.5      1.04520E-04
  1192.5      1.03690E-04
  1197.5      1.01710E-04
  1202.5      1.02050E-04
  1207.5      1.01230E-04
  1212.5      1.00370E-04
  1217.5      9.96300E-05
  1222.5      9.88490E-05
  1227.5      9.80860E-05
  1232.5      9.72780E-05
  1237.5      9.65320E-05
  1242.5      9.58210E-05
  1247.5      9.50160E-05
  1252.5      9.40570E-05
  1257.5      9.35310E-05
  1262.5      9.28440E-05
  1267.5      9.22000E-05
  1272.5      9.14470E-05
  1277.5      8.92140E-05
  1282.5      8.32520E-05
  1287.5      8.88500E-05
  1292.5      8.87720E-05
  1297.5      8.75290E-05
  1302.5      8.73670E-05
  1307.5      8.68340E-05
  1312.5      8.62010E-05
  1317.5      8.55640E-05
  1322.5      8.49440E-05
  1327.5      8.43260E-05
  1332.5      8.36650E-05
  1337.5      8.30120E-05
  1342.5      8.23970E-05
  1347.5      8.18880E-05
  1352.5      8.12230E-05
  1357.5      8.07300E-05
  1362.5      8.00290E-05
  1367.5      7.95910E-05
  1372.5      7.89230E-05
  1377.5      7.85010E-05
  1382.5      7.79520E-05
  1387.5      7.73940E-05
  1392.5      7.67550E-05
  1397.5      7.63050E-05
