 Castelli and Kurucz 2004-2012 Atmosphere
 T     45000.     G    4.50000 [+0.5] N(He)/Ntot=0.07813 VTURB=2.0  L/H=1.25 NO
 Wavelength  Eddington Hnu
   (nm)    (ergs/s/cm2/Hz/sr)
  9.0900      6.37070E-22
  9.3500      2.08500E-21
  9.6100      6.27340E-21
  9.7700      1.24090E-20
  9.9600      2.65500E-20
  10.200      6.68000E-20
  10.380      1.30030E-19
  10.560      2.47710E-19
  10.770      5.11930E-19
  11.040      1.25220E-18
  11.400      3.87400E-18
  11.780      1.18140E-17
  12.130      3.14290E-17
  12.480      7.87030E-17
  12.710      1.40460E-16
  12.840      1.96660E-16
  13.050      3.22490E-16
  13.240      4.98750E-16
  13.390      7.02700E-16
  13.660      1.25650E-15
  13.980      2.49100E-15
  14.330      4.95710E-15
  14.720      9.89990E-15
  15.100      2.07640E-14
  15.520      4.27700E-14
  15.880      7.82360E-14
  16.200      1.65660E-13
  16.600      3.09100E-13
  17.030      5.51640E-13
  17.340      8.29920E-13
  17.680      1.35570E-12
  18.020      2.13730E-12
  18.170      2.46150E-12
  18.610      4.54070E-12
  19.100      7.91710E-12
  19.390      1.18570E-11
  19.840      1.96410E-11
  20.180      2.51700E-11
  20.500      3.75380E-11
  21.050      6.28740E-11
  21.620      1.03100E-10
  21.980      1.43780E-10
  22.300      1.80290E-10
  22.680      2.51530E-10
  23.000      2.56910E-08
  23.400      7.52700E-08
  24.000      1.01840E-07
  24.650      1.80940E-07
  25.240      4.41000E-07
  25.680      1.21240E-06
  26.000      1.16520E-06
  26.400      1.08970E-05
  26.850      1.25580E-05
  27.350      1.70570E-05
  27.850      8.96530E-06
  28.400      2.30590E-05
  29.000      4.83790E-05
  29.600      3.82420E-05
  30.100      4.61710E-05
  30.800      7.78240E-05
  31.800      1.45610E-05
  32.800      2.44710E-05
  33.800      2.01380E-05
  34.800      2.39170E-05
  35.700      6.63770E-05
  36.600      1.89230E-04
  37.500      2.83600E-04
  38.500      2.30260E-04
  39.500      5.00620E-04
  40.500      1.02510E-03
  41.400      9.80880E-04
  42.200      8.84260E-04
  43.000      8.84450E-04
  44.100      1.22010E-03
  45.100      1.28370E-03
  46.000      9.92120E-04
  47.000      1.23440E-03
  48.000      1.56200E-03
  49.000      1.11370E-03
  50.000      2.09970E-03
  50.600      1.55370E-03
  51.200      2.13970E-03
  52.000      2.02780E-03
  53.000      1.92480E-03
  54.000      1.48110E-03
  55.000      1.13500E-03
  56.000      1.68350E-03
  57.000      2.42330E-03
  58.000      2.50150E-03
  59.000      2.54530E-03
  60.000      1.99020E-03
  61.000      1.57110E-03
  62.000      2.37590E-03
  63.000      2.03580E-03
  64.000      2.72310E-03
  65.000      2.52620E-03
  65.800      2.13210E-03
  66.500      2.77910E-03
  67.500      2.91710E-03
  68.500      2.48030E-03
  69.500      2.93900E-03
  70.500      2.42750E-03
  71.600      2.95080E-03
  72.600      3.11410E-03
  73.500      3.11350E-03
  74.500      2.92380E-03
  75.500      2.88560E-03
  76.500      2.40810E-03
  77.500      2.93510E-03
  78.500      2.34540E-03
  79.500      2.88190E-03
  80.500      3.06790E-03
  81.500      3.06390E-03
  82.500      3.12560E-03
  83.500      2.70220E-03
  84.500      3.05350E-03
  85.500      2.81570E-03
  86.500      3.11370E-03
  87.500      3.16860E-03
  88.500      3.09390E-03
  89.500      3.05900E-03
  90.500      2.99360E-03
  91.500      2.27630E-03
  92.500      3.37650E-03
  93.500      4.36810E-03
  94.500      4.74660E-03
  95.500      5.48510E-03
  96.500      5.68900E-03
  97.500      4.59920E-03
  98.500      5.22750E-03
  99.500      4.59910E-03
  100.50      4.65230E-03
  101.50      4.87340E-03
  102.50      4.81100E-03
  103.50      5.35890E-03
  104.50      5.63200E-03
  105.50      5.56300E-03
  106.50      5.35580E-03
  107.50      5.57600E-03
  108.50      5.18340E-03
  109.50      5.44310E-03
  110.50      5.42720E-03
  111.50      5.43660E-03
  112.50      5.31540E-03
  113.50      5.49770E-03
  114.50      5.58100E-03
  115.50      5.32570E-03
  116.50      5.00480E-03
  117.50      4.56800E-03
  118.50      5.02950E-03
  119.50      4.70150E-03
  120.50      4.71790E-03
  121.50      4.20010E-03
  122.50      4.56980E-03
  123.50      4.44180E-03
  124.50      4.31860E-03
  125.50      4.57570E-03
  126.50      4.68460E-03
  127.50      4.77340E-03
  128.50      4.76570E-03
  129.50      4.83700E-03
  130.50      4.70130E-03
  131.50      4.70120E-03
  132.50      4.66150E-03
  133.50      4.60860E-03
  134.50      4.59110E-03
  135.50      4.42910E-03
  136.50      4.26270E-03
  137.50      4.07830E-03
  138.50      4.21850E-03
  139.50      4.13020E-03
  140.50      3.91760E-03
  141.50      4.45930E-03
  142.50      4.16080E-03
  143.50      4.39450E-03
  144.20      4.12760E-03
  144.70      4.17140E-03
  145.50      4.08590E-03
  146.50      4.09920E-03
  147.50      4.15820E-03
  148.50      4.22800E-03
  149.50      4.12580E-03
  150.50      4.09580E-03
  151.20      4.09890E-03
  151.70      4.00920E-03
  152.50      4.07150E-03
  153.50      3.79400E-03
  154.50      3.10670E-03
  155.50      3.25330E-03
  156.50      3.71380E-03
  157.50      3.84990E-03
  158.50      3.79770E-03
  159.50      3.89800E-03
  160.50      3.75060E-03
  161.50      3.68610E-03
  162.50      3.78610E-03
  163.50      3.83320E-03
  164.50      3.69520E-03
  165.50      3.81360E-03
  166.50      3.78160E-03
  167.20      3.62110E-03
  167.70      3.92920E-03
  168.50      3.89480E-03
  169.50      3.90940E-03
  170.50      3.78870E-03
  171.50      3.61990E-03
  172.50      3.63040E-03
  173.50      3.79800E-03
  174.50      3.78210E-03
  175.50      3.74930E-03
  176.50      3.70140E-03
  177.50      3.63840E-03
  178.50      3.67980E-03
  179.50      3.60000E-03
  180.50      3.58770E-03
  181.50      3.51300E-03
  182.50      3.50780E-03
  183.50      3.50940E-03
  184.50      3.53980E-03
  185.50      3.52410E-03
  186.50      3.53630E-03
  187.50      3.47240E-03
  188.50      3.43950E-03
  189.50      3.49380E-03
  190.50      3.47620E-03
  191.50      3.46390E-03
  192.50      3.31940E-03
  193.50      3.42950E-03
  194.50      3.41840E-03
  195.50      3.32170E-03
  196.70      3.34980E-03
  197.60      3.31190E-03
  198.40      3.34370E-03
  199.50      3.30580E-03
  200.50      3.30760E-03
  201.50      3.28570E-03
  202.50      3.27350E-03
  203.50      3.21820E-03
  204.50      3.18410E-03
  205.50      2.38590E-03
  206.50      2.31600E-03
  207.40      2.41120E-03
  207.80      2.49020E-03
  208.50      2.71830E-03
  209.50      3.01280E-03
  210.50      3.02320E-03
  211.50      3.05700E-03
  212.50      3.01950E-03
  213.50      3.03280E-03
  214.50      3.00190E-03
  215.50      3.00900E-03
  216.50      2.85950E-03
  217.50      2.98800E-03
  218.50      2.89230E-03
  219.50      2.96980E-03
  220.50      2.94720E-03
  221.50      2.83070E-03
  222.50      2.91490E-03
  223.50      2.89660E-03
  224.50      2.87250E-03
  225.50      2.78120E-03
  226.50      2.83340E-03
  227.50      2.84250E-03
  228.50      2.78370E-03
  229.50      2.72770E-03
  230.50      2.68530E-03
  231.50      2.71050E-03
  232.50      2.73690E-03
  233.50      2.71970E-03
  234.50      2.67580E-03
  235.50      2.63570E-03
  236.50      2.61140E-03
  237.50      2.57230E-03
  238.50      2.46200E-03
  239.50      2.53200E-03
  240.50      2.50890E-03
  241.50      2.51300E-03
  242.50      2.53660E-03
  243.50      2.50670E-03
  244.50      2.49660E-03
  245.50      2.45940E-03
  246.50      2.45600E-03
  247.50      2.47520E-03
  248.50      2.42310E-03
  249.50      2.17930E-03
  250.50      2.40590E-03
  251.30      2.25890E-03
  251.80      2.33770E-03
  252.50      2.35080E-03
  253.50      2.37480E-03
  254.50      2.37720E-03
  255.50      2.35900E-03
  256.50      2.35040E-03
  257.50      2.32570E-03
  258.50      2.31570E-03
  259.50      2.24130E-03
  260.50      2.29510E-03
  261.50      2.24190E-03
  262.50      2.27100E-03
  263.50      2.26190E-03
  264.50      2.22940E-03
  265.50      2.23000E-03
  266.50      2.21870E-03
  267.50      2.17240E-03
  268.50      2.18540E-03
  269.50      2.16200E-03
  270.50      2.17840E-03
  271.50      2.15960E-03
  272.50      2.14690E-03
  273.50      2.07570E-03
  274.50      2.12820E-03
  275.50      2.10440E-03
  276.50      2.09810E-03
  277.50      2.07970E-03
  278.50      2.04180E-03
  279.50      2.03230E-03
  280.50      2.03740E-03
  281.50      2.02610E-03
  282.50      2.00690E-03
  283.50      2.00920E-03
  284.50      2.00260E-03
  285.50      1.98630E-03
  286.50      1.94330E-03
  287.50      1.92430E-03
  288.50      1.94180E-03
  289.50      1.93020E-03
  291.00      1.92220E-03
  293.00      1.91240E-03
  295.00      1.89040E-03
  297.00      1.86440E-03
  299.00      1.83290E-03
  301.00      1.81420E-03
  303.00      1.78020E-03
  305.00      1.77330E-03
  307.00      1.73710E-03
  309.00      1.74240E-03
  311.00      1.72530E-03
  313.00      1.70670E-03
  315.00      1.69830E-03
  317.00      1.67820E-03
  319.00      1.66610E-03
  321.00      1.61470E-03
  323.00      1.63450E-03
  325.00      1.61930E-03
  327.00      1.58400E-03
  329.00      1.58090E-03
  331.00      1.56260E-03
  333.00      1.54510E-03
  335.00      1.51410E-03
  337.00      1.51040E-03
  339.00      1.49280E-03
  341.00      1.47660E-03
  343.00      1.47610E-03
  345.00      1.44740E-03
  347.00      1.44350E-03
  349.00      1.43050E-03
  351.00      1.42370E-03
  353.00      1.40330E-03
  355.00      1.39270E-03
  357.00      1.37870E-03
  359.00      1.36760E-03
  361.00      1.35200E-03
  363.00      1.33710E-03
  364.00      1.30790E-03
  365.00      1.17000E-03
  367.00      1.16100E-03
  369.00      1.15490E-03
  371.00      1.15280E-03
  373.00      1.17190E-03
  375.00      1.19560E-03
  377.00      1.21390E-03
  379.00      1.23930E-03
  381.00      1.25480E-03
  383.00      1.20500E-03
  385.00      1.25490E-03
  387.00      1.24880E-03
  389.00      1.16330E-03
  391.00      1.23830E-03
  393.00      1.21240E-03
  395.00      1.21000E-03
  397.00      1.11410E-03
  399.00      1.19620E-03
  401.00      1.18660E-03
  403.00      1.15800E-03
  405.00      1.16680E-03
  407.00      1.15540E-03
  409.00      1.11830E-03
  411.00      1.06280E-03
  413.00      1.12370E-03
  415.00      1.11780E-03
  417.00      1.11020E-03
  419.00      1.09830E-03
  421.00      1.07480E-03
  423.00      1.08600E-03
  425.00      1.07630E-03
  427.00      1.06800E-03
  429.00      1.05920E-03
  431.00      1.04600E-03
  433.00      1.00890E-03
  435.00      9.71130E-04
  437.00      1.01680E-03
  439.00      1.00420E-03
  441.00      9.92780E-04
  443.00      9.93980E-04
  445.00      9.83900E-04
  447.00      9.77430E-04
  449.00      9.72680E-04
  451.00      9.58450E-04
  453.00      9.50760E-04
  455.00      9.27560E-04
  457.00      9.39080E-04
  459.00      9.31390E-04
  461.00      9.27770E-04
  463.00      9.13800E-04
  465.00      8.88690E-04
  467.00      9.02650E-04
  469.00      8.68570E-04
  471.00      8.94950E-04
  473.00      8.90660E-04
  475.00      8.84660E-04
  477.00      8.77670E-04
  479.00      8.67860E-04
  481.00      8.64160E-04
  483.00      8.56890E-04
  485.00      8.37080E-04
  487.00      7.89180E-04
  489.00      8.37190E-04
  491.00      8.31660E-04
  493.00      8.25910E-04
  495.00      8.21220E-04
  497.00      8.15110E-04
  499.00      8.10170E-04
  501.00      8.01220E-04
  503.00      7.97080E-04
  505.00      7.90700E-04
  507.00      7.86160E-04
  509.00      7.81270E-04
  511.00      7.74860E-04
  513.00      7.68290E-04
  515.00      7.63900E-04
  517.00      7.59970E-04
  519.00      7.54490E-04
  521.00      7.48110E-04
  523.00      7.44290E-04
  525.00      7.37030E-04
  527.00      7.31840E-04
  529.00      7.28990E-04
  531.00      7.23900E-04
  533.00      7.18650E-04
  535.00      7.14420E-04
  537.00      7.09200E-04
  539.00      7.04380E-04
  541.00      6.85430E-04
  543.00      6.95310E-04
  545.00      6.90660E-04
  547.00      6.85330E-04
  549.00      6.81400E-04
  551.00      6.75700E-04
  553.00      6.72500E-04
  555.00      6.68210E-04
  557.00      6.62200E-04
  559.00      6.55930E-04
  561.00      6.55130E-04
  563.00      6.50780E-04
  565.00      6.46480E-04
  567.00      6.42230E-04
  569.00      6.26220E-04
  571.00      5.82970E-04
  573.00      5.79510E-04
  575.00      5.75680E-04
  577.00      5.73090E-04
  579.00      5.70370E-04
  581.00      5.62060E-04
  583.00      5.66960E-04
  585.00      5.67380E-04
  587.00      5.64570E-04
  589.00      5.67950E-04
  591.00      5.68860E-04
  593.00      5.70360E-04
  595.00      5.72890E-04
  597.00      5.74820E-04
  599.00      5.76720E-04
  601.00      5.74950E-04
  603.00      5.72630E-04
  605.00      5.69760E-04
  607.00      5.66200E-04
  609.00      5.63910E-04
  611.00      5.59510E-04
  613.00      5.56320E-04
  615.00      5.54110E-04
  617.00      5.48580E-04
  619.00      5.48010E-04
  621.00      5.45000E-04
  623.00      5.38580E-04
  625.00      5.37940E-04
  627.00      5.35260E-04
  629.00      5.32400E-04
  631.00      5.24810E-04
  633.00      5.25920E-04
  635.00      5.22940E-04
  637.00      5.20100E-04
  639.00      5.16230E-04
  641.00      5.08750E-04
  643.00      5.11180E-04
  645.00      5.07660E-04
  647.00      5.04620E-04
  649.00      5.02280E-04
  651.00      4.98660E-04
  653.00      4.89930E-04
  655.00      4.88200E-04
  657.00      4.55290E-04
  659.00      4.87350E-04
  661.00      4.85660E-04
  663.00      4.82940E-04
  665.00      4.80220E-04
  667.00      4.75080E-04
  669.00      4.66840E-04
  671.00      4.71200E-04
  673.00      4.69090E-04
  675.00      4.66430E-04
  677.00      4.64230E-04
  679.00      4.61960E-04
  681.00      4.59380E-04
  683.00      4.56910E-04
  685.00      4.54310E-04
  687.00      4.51700E-04
  689.00      4.41710E-04
  691.00      4.46720E-04
  693.00      4.44700E-04
  695.00      4.42230E-04
  697.00      4.39940E-04
  699.00      4.37540E-04
  701.00      4.34820E-04
  703.00      4.31780E-04
  705.00      4.29850E-04
  707.00      4.27040E-04
  709.00      4.26090E-04
  711.00      4.22980E-04
  713.00      4.20840E-04
  715.00      4.19430E-04
  717.00      4.11840E-04
  719.00      4.12160E-04
  721.00      4.12620E-04
  723.00      4.10740E-04
  725.00      4.08670E-04
  727.00      4.06570E-04
  729.00      4.04250E-04
  731.00      4.01780E-04
  733.00      4.00290E-04
  735.00      3.98330E-04
  737.00      3.95950E-04
  739.00      3.93530E-04
  741.00      3.91920E-04
  743.00      3.90300E-04
  745.00      3.87560E-04
  747.00      3.86080E-04
  749.00      3.83250E-04
  751.00      3.82080E-04
  753.00      3.80440E-04
  755.00      3.78480E-04
  757.00      3.76380E-04
  759.00      3.67370E-04
  761.00      3.72150E-04
  763.00      3.70950E-04
  765.00      3.69200E-04
  767.00      3.67210E-04
  769.00      3.64760E-04
  771.00      3.63220E-04
  773.00      3.61040E-04
  775.00      3.59750E-04
  777.00      3.58740E-04
  779.00      3.56600E-04
  781.00      3.55260E-04
  783.00      3.53470E-04
  785.00      3.50340E-04
  787.00      3.49690E-04
  789.00      3.48340E-04
  791.00      3.46860E-04
  793.00      3.45290E-04
  795.00      3.43430E-04
  797.00      3.41300E-04
  799.00      3.40370E-04
  801.00      3.38760E-04
  803.00      3.36800E-04
  805.00      3.35620E-04
  807.00      3.34060E-04
  809.00      3.32500E-04
  811.00      3.30950E-04
  813.00      3.29410E-04
  815.00      3.27880E-04
  817.00      3.25810E-04
  819.00      3.22980E-04
  821.00      3.05780E-04
  823.00      3.02040E-04
  825.00      3.02640E-04
  827.00      3.01730E-04
  829.00      3.00510E-04
  831.00      2.99290E-04
  833.00      2.97310E-04
  835.00      2.96430E-04
  837.00      2.95510E-04
  839.00      2.94490E-04
  841.00      2.93590E-04
  843.00      2.92680E-04
  845.00      2.91740E-04
  847.00      2.90920E-04
  849.00      2.90300E-04
  851.00      2.88950E-04
  853.00      2.89000E-04
  855.00      2.87800E-04
  857.00      2.87660E-04
  859.00      2.86590E-04
  861.00      2.85920E-04
  863.00      2.86610E-04
  865.00      2.85600E-04
  867.00      2.82040E-04
  869.00      2.85340E-04
  871.00      2.85440E-04
  873.00      2.84470E-04
  875.00      2.77770E-04
  877.00      2.82580E-04
  879.00      2.83930E-04
  881.00      2.83590E-04
  883.00      2.82750E-04
  885.00      2.77750E-04
  887.00      2.69680E-04
  889.00      2.78500E-04
  891.00      2.78580E-04
  893.00      2.77130E-04
  895.00      2.76510E-04
  897.00      2.75470E-04
  899.00      2.72990E-04
  901.00      2.60430E-04
  903.00      2.65270E-04
  905.00      2.70250E-04
  907.00      2.69860E-04
  909.00      2.68870E-04
  911.00      2.66980E-04
  913.00      2.66700E-04
  915.00      2.65800E-04
  917.00      2.64340E-04
  919.00      2.62940E-04
  921.00      2.59320E-04
  923.00      2.44020E-04
  925.00      2.56350E-04
  927.00      2.58480E-04
  929.00      2.57990E-04
  931.00      2.56990E-04
  933.00      2.55670E-04
  935.00      2.48310E-04
  937.00      2.52040E-04
  939.00      2.52610E-04
  941.00      2.51500E-04
  943.00      2.50670E-04
  945.00      2.49740E-04
  947.00      2.48750E-04
  949.00      2.47610E-04
  951.00      2.45990E-04
  953.00      2.41820E-04
  955.00      2.27130E-04
  957.00      2.41140E-04
  959.00      2.42460E-04
  961.00      2.41860E-04
  963.00      2.40720E-04
  965.00      2.40030E-04
  967.00      2.39110E-04
  969.00      2.38160E-04
  971.00      2.34980E-04
  973.00      2.35900E-04
  975.00      2.34860E-04
  977.00      2.32140E-04
  979.00      2.33490E-04
  981.00      2.32580E-04
  983.00      2.31460E-04
  985.00      2.30790E-04
  987.00      2.29900E-04
  989.00      2.29000E-04
  991.00      2.28020E-04
  993.00      2.27230E-04
  995.00      2.26360E-04
  997.00      2.25490E-04
  999.00      2.24620E-04
  1002.5      2.19250E-04
  1007.5      2.14870E-04
  1012.5      2.14320E-04
  1017.5      2.16830E-04
  1022.5      2.14770E-04
  1027.5      2.12560E-04
  1032.5      2.10550E-04
  1037.5      2.08820E-04
  1042.5      2.05460E-04
  1047.5      2.05040E-04
  1052.5      2.03140E-04
  1057.5      2.01300E-04
  1062.5      1.99490E-04
  1067.5      1.97680E-04
  1072.5      1.95920E-04
  1077.5      1.94170E-04
  1082.5      1.91990E-04
  1087.5      1.90600E-04
  1092.5      1.81510E-04
  1097.5      1.85820E-04
  1102.5      1.85720E-04
  1107.5      1.84140E-04
  1112.5      1.82540E-04
  1117.5      1.81110E-04
  1122.5      1.79510E-04
  1127.5      1.77930E-04
  1132.5      1.76400E-04
  1137.5      1.74970E-04
  1142.5      1.73500E-04
  1147.5      1.72040E-04
  1152.5      1.70610E-04
  1157.5      1.69050E-04
  1162.5      1.65510E-04
  1167.5      1.64720E-04
  1172.5      1.64970E-04
  1177.5      1.63660E-04
  1182.5      1.62150E-04
  1187.5      1.60960E-04
  1192.5      1.59640E-04
  1197.5      1.58030E-04
  1202.5      1.57120E-04
  1207.5      1.55800E-04
  1212.5      1.54510E-04
  1217.5      1.53370E-04
  1222.5      1.52120E-04
  1227.5      1.50960E-04
  1232.5      1.49750E-04
  1237.5      1.48590E-04
  1242.5      1.47430E-04
  1247.5      1.46290E-04
  1252.5      1.45130E-04
  1257.5      1.44000E-04
  1262.5      1.42920E-04
  1267.5      1.41830E-04
  1272.5      1.40730E-04
  1277.5      1.39050E-04
  1282.5      1.32380E-04
  1287.5      1.37340E-04
  1292.5      1.36530E-04
  1297.5      1.35470E-04
  1302.5      1.34490E-04
  1307.5      1.33490E-04
  1312.5      1.32500E-04
  1317.5      1.31520E-04
  1322.5      1.30560E-04
  1327.5      1.29600E-04
  1332.5      1.28650E-04
  1337.5      1.27710E-04
  1342.5      1.26780E-04
  1347.5      1.25870E-04
  1352.5      1.24960E-04
  1357.5      1.24060E-04
  1362.5      1.23180E-04
  1367.5      1.22300E-04
  1372.5      1.21410E-04
  1377.5      1.20560E-04
  1382.5      1.19720E-04
  1387.5      1.18870E-04
  1392.5      1.18040E-04
  1397.5      1.17220E-04
