 Castelli and Kurucz 2004-2012 Atmosphere
 T     47000.     G    4.50000 [+0.5] N(He)/Ntot=0.07813 VTURB=2.0  L/H=1.25 NO
 Wavelength  Eddington Hnu
   (nm)    (ergs/s/cm2/Hz/sr)
  9.0900      9.81880E-21
  9.3500      3.00770E-20
  9.6100      8.46510E-20
  9.7700      1.61560E-19
  9.9600      3.31090E-19
  10.200      7.90980E-19
  10.380      1.48350E-18
  10.560      2.72700E-18
  10.770      5.41610E-18
  11.040      1.26210E-17
  11.400      3.67640E-17
  11.780      1.05360E-16
  12.130      2.67350E-16
  12.480      6.36900E-16
  12.710      1.10770E-15
  12.840      1.61930E-15
  13.050      2.60050E-15
  13.240      3.94190E-15
  13.390      5.47230E-15
  13.660      9.57770E-15
  13.980      1.83230E-14
  14.330      3.52810E-14
  14.720      6.72930E-14
  15.100      1.36810E-13
  15.520      2.73090E-13
  15.880      4.92740E-13
  16.200      1.24940E-12
  16.600      2.27170E-12
  17.030      3.87900E-12
  17.340      5.67840E-12
  17.680      9.14670E-12
  18.020      1.43080E-11
  18.170      1.58710E-11
  18.610      2.98790E-11
  19.100      5.06230E-11
  19.390      7.82710E-11
  19.840      1.29240E-10
  20.180      1.55640E-10
  20.500      2.39030E-10
  21.050      3.90450E-10
  21.620      6.32730E-10
  21.980      8.76030E-10
  22.300      1.06930E-09
  22.680      1.45470E-09
  23.000      7.14190E-08
  23.400      2.23130E-07
  24.000      3.05940E-07
  24.650      6.55820E-07
  25.240      2.61400E-06
  25.680      1.04070E-05
  26.000      7.61100E-06
  26.400      4.48820E-05
  26.850      5.05030E-05
  27.350      6.53390E-05
  27.850      3.68940E-05
  28.400      8.20620E-05
  29.000      1.58430E-04
  29.600      1.32560E-04
  30.100      1.21880E-04
  30.800      1.47680E-04
  31.800      2.79610E-05
  32.800      4.21880E-05
  33.800      3.25820E-05
  34.800      3.78260E-05
  35.700      1.02560E-04
  36.600      2.91050E-04
  37.500      4.19840E-04
  38.500      3.21410E-04
  39.500      6.93420E-04
  40.500      1.38310E-03
  41.400      1.34960E-03
  42.200      1.18530E-03
  43.000      1.19920E-03
  44.100      1.67880E-03
  45.100      1.73900E-03
  46.000      1.36240E-03
  47.000      1.68680E-03
  48.000      2.07850E-03
  49.000      1.62820E-03
  50.000      2.91650E-03
  50.600      2.27820E-03
  51.200      2.89990E-03
  52.000      2.77970E-03
  53.000      2.67030E-03
  54.000      1.99790E-03
  55.000      1.51220E-03
  56.000      2.21030E-03
  57.000      3.15880E-03
  58.000      3.33140E-03
  59.000      3.36590E-03
  60.000      2.73050E-03
  61.000      2.02130E-03
  62.000      3.02720E-03
  63.000      2.46540E-03
  64.000      3.46890E-03
  65.000      3.23790E-03
  65.800      2.79520E-03
  66.500      3.57900E-03
  67.500      3.67330E-03
  68.500      3.17670E-03
  69.500      3.69160E-03
  70.500      3.14040E-03
  71.600      3.60430E-03
  72.600      3.84330E-03
  73.500      3.81300E-03
  74.500      3.58120E-03
  75.500      3.49850E-03
  76.500      2.89510E-03
  77.500      3.57710E-03
  78.500      2.86610E-03
  79.500      3.50090E-03
  80.500      3.76120E-03
  81.500      3.73150E-03
  82.500      3.79330E-03
  83.500      3.35740E-03
  84.500      3.69780E-03
  85.500      3.39440E-03
  86.500      3.75350E-03
  87.500      3.81650E-03
  88.500      3.70220E-03
  89.500      3.63910E-03
  90.500      3.55950E-03
  91.500      2.71080E-03
  92.500      3.86380E-03
  93.500      4.80010E-03
  94.500      5.16120E-03
  95.500      6.02060E-03
  96.500      6.12010E-03
  97.500      5.13830E-03
  98.500      5.68610E-03
  99.500      4.98700E-03
  100.50      5.06550E-03
  101.50      5.24510E-03
  102.50      5.26270E-03
  103.50      5.79890E-03
  104.50      6.07480E-03
  105.50      6.01610E-03
  106.50      5.81880E-03
  107.50      6.09040E-03
  108.50      5.66090E-03
  109.50      5.92690E-03
  110.50      5.94160E-03
  111.50      5.96260E-03
  112.50      5.87790E-03
  113.50      6.03430E-03
  114.50      6.11140E-03
  115.50      5.90070E-03
  116.50      5.52340E-03
  117.50      5.18130E-03
  118.50      5.60740E-03
  119.50      5.21410E-03
  120.50      5.23580E-03
  121.50      4.68880E-03
  122.50      5.07890E-03
  123.50      4.83110E-03
  124.50      4.67660E-03
  125.50      5.02880E-03
  126.50      5.12400E-03
  127.50      5.17670E-03
  128.50      5.16280E-03
  129.50      5.24430E-03
  130.50      5.10520E-03
  131.50      5.07020E-03
  132.50      5.01030E-03
  133.50      4.95110E-03
  134.50      4.91730E-03
  135.50      4.74610E-03
  136.50      4.53850E-03
  137.50      4.32540E-03
  138.50      4.52120E-03
  139.50      4.45240E-03
  140.50      4.21770E-03
  141.50      4.80770E-03
  142.50      4.54360E-03
  143.50      4.76120E-03
  144.20      4.44680E-03
  144.70      4.49350E-03
  145.50      4.41500E-03
  146.50      4.41540E-03
  147.50      4.49130E-03
  148.50      4.55600E-03
  149.50      4.44330E-03
  150.50      4.38190E-03
  151.20      4.37970E-03
  151.70      4.27340E-03
  152.50      4.36780E-03
  153.50      4.11640E-03
  154.50      3.45960E-03
  155.50      3.59490E-03
  156.50      4.05370E-03
  157.50      4.18100E-03
  158.50      4.11380E-03
  159.50      4.22710E-03
  160.50      4.08950E-03
  161.50      4.03570E-03
  162.50      4.13380E-03
  163.50      4.18710E-03
  164.50      4.00720E-03
  165.50      4.14000E-03
  166.50      4.11340E-03
  167.20      3.96560E-03
  167.70      4.23060E-03
  168.50      4.21030E-03
  169.50      4.24220E-03
  170.50      4.09250E-03
  171.50      3.92230E-03
  172.50      3.93060E-03
  173.50      4.11490E-03
  174.50      4.08970E-03
  175.50      4.06210E-03
  176.50      4.00380E-03
  177.50      3.93630E-03
  178.50      3.96260E-03
  179.50      3.88390E-03
  180.50      3.87180E-03
  181.50      3.76650E-03
  182.50      3.78350E-03
  183.50      3.77950E-03
  184.50      3.81440E-03
  185.50      3.79040E-03
  186.50      3.80610E-03
  187.50      3.74880E-03
  188.50      3.71230E-03
  189.50      3.75510E-03
  190.50      3.73750E-03
  191.50      3.72620E-03
  192.50      3.57890E-03
  193.50      3.67830E-03
  194.50      3.66560E-03
  195.50      3.58500E-03
  196.70      3.59560E-03
  197.60      3.54670E-03
  198.40      3.58580E-03
  199.50      3.54120E-03
  200.50      3.54050E-03
  201.50      3.51890E-03
  202.50      3.50620E-03
  203.50      3.44210E-03
  204.50      3.40880E-03
  205.50      2.59050E-03
  206.50      2.51930E-03
  207.40      2.61900E-03
  207.80      2.70340E-03
  208.50      2.93610E-03
  209.50      3.23480E-03
  210.50      3.23210E-03
  211.50      3.26140E-03
  212.50      3.22610E-03
  213.50      3.23790E-03
  214.50      3.20230E-03
  215.50      3.20760E-03
  216.50      3.05950E-03
  217.50      3.18030E-03
  218.50      3.09100E-03
  219.50      3.15640E-03
  220.50      3.13360E-03
  221.50      3.01910E-03
  222.50      3.10280E-03
  223.50      3.08120E-03
  224.50      3.05810E-03
  225.50      2.96450E-03
  226.50      3.01390E-03
  227.50      3.02320E-03
  228.50      2.96310E-03
  229.50      2.91160E-03
  230.50      2.85810E-03
  231.50      2.88440E-03
  232.50      2.91250E-03
  233.50      2.89110E-03
  234.50      2.84630E-03
  235.50      2.80460E-03
  236.50      2.78070E-03
  237.50      2.74490E-03
  238.50      2.63210E-03
  239.50      2.70130E-03
  240.50      2.66720E-03
  241.50      2.67260E-03
  242.50      2.69730E-03
  243.50      2.66500E-03
  244.50      2.65430E-03
  245.50      2.61080E-03
  246.50      2.60770E-03
  247.50      2.62960E-03
  248.50      2.57580E-03
  249.50      2.38490E-03
  250.50      2.56420E-03
  251.30      2.40890E-03
  251.80      2.49060E-03
  252.50      2.49910E-03
  253.50      2.52460E-03
  254.50      2.52970E-03
  255.50      2.51070E-03
  256.50      2.50290E-03
  257.50      2.47430E-03
  258.50      2.46280E-03
  259.50      2.38350E-03
  260.50      2.44350E-03
  261.50      2.38460E-03
  262.50      2.41750E-03
  263.50      2.40560E-03
  264.50      2.37300E-03
  265.50      2.37090E-03
  266.50      2.36160E-03
  267.50      2.31560E-03
  268.50      2.32680E-03
  269.50      2.29980E-03
  270.50      2.31610E-03
  271.50      2.29870E-03
  272.50      2.28310E-03
  273.50      2.20920E-03
  274.50      2.26120E-03
  275.50      2.23490E-03
  276.50      2.22880E-03
  277.50      2.20800E-03
  278.50      2.16730E-03
  279.50      2.16180E-03
  280.50      2.16330E-03
  281.50      2.14930E-03
  282.50      2.12900E-03
  283.50      2.13310E-03
  284.50      2.12430E-03
  285.50      2.10510E-03
  286.50      2.05090E-03
  287.50      2.02640E-03
  288.50      2.05390E-03
  289.50      2.04050E-03
  291.00      2.03740E-03
  293.00      2.02900E-03
  295.00      2.00470E-03
  297.00      1.97890E-03
  299.00      1.94750E-03
  301.00      1.92780E-03
  303.00      1.89220E-03
  305.00      1.88260E-03
  307.00      1.83940E-03
  309.00      1.84820E-03
  311.00      1.82800E-03
  313.00      1.80890E-03
  315.00      1.79950E-03
  317.00      1.77910E-03
  319.00      1.76490E-03
  321.00      1.71290E-03
  323.00      1.73360E-03
  325.00      1.71640E-03
  327.00      1.68020E-03
  329.00      1.67650E-03
  331.00      1.65720E-03
  333.00      1.63840E-03
  335.00      1.60560E-03
  337.00      1.60100E-03
  339.00      1.57980E-03
  341.00      1.56200E-03
  343.00      1.56340E-03
  345.00      1.53370E-03
  347.00      1.52740E-03
  349.00      1.51270E-03
  351.00      1.50670E-03
  353.00      1.48510E-03
  355.00      1.47440E-03
  357.00      1.45800E-03
  359.00      1.44640E-03
  361.00      1.43200E-03
  363.00      1.41430E-03
  364.00      1.38600E-03
  365.00      1.24370E-03
  367.00      1.23370E-03
  369.00      1.22740E-03
  371.00      1.22620E-03
  373.00      1.24440E-03
  375.00      1.26860E-03
  377.00      1.28730E-03
  379.00      1.31090E-03
  381.00      1.32510E-03
  383.00      1.27550E-03
  385.00      1.32380E-03
  387.00      1.32000E-03
  389.00      1.23280E-03
  391.00      1.30400E-03
  393.00      1.27770E-03
  395.00      1.27700E-03
  397.00      1.18070E-03
  399.00      1.26020E-03
  401.00      1.25080E-03
  403.00      1.22120E-03
  405.00      1.22840E-03
  407.00      1.21810E-03
  409.00      1.18140E-03
  411.00      1.12460E-03
  413.00      1.18450E-03
  415.00      1.17840E-03
  417.00      1.16890E-03
  419.00      1.15670E-03
  421.00      1.13250E-03
  423.00      1.14310E-03
  425.00      1.13310E-03
  427.00      1.12420E-03
  429.00      1.11500E-03
  431.00      1.10130E-03
  433.00      1.06430E-03
  435.00      1.02560E-03
  437.00      1.06950E-03
  439.00      1.05730E-03
  441.00      1.04500E-03
  443.00      1.04630E-03
  445.00      1.03540E-03
  447.00      1.02990E-03
  449.00      1.02410E-03
  451.00      1.01070E-03
  453.00      1.00210E-03
  455.00      9.78330E-04
  457.00      9.88900E-04
  459.00      9.81240E-04
  461.00      9.76540E-04
  463.00      9.62070E-04
  465.00      9.39280E-04
  467.00      9.49750E-04
  469.00      9.13760E-04
  471.00      9.40860E-04
  473.00      9.35870E-04
  475.00      9.29410E-04
  477.00      9.22190E-04
  479.00      9.10880E-04
  481.00      9.08120E-04
  483.00      9.00500E-04
  485.00      8.81270E-04
  487.00      8.33000E-04
  489.00      8.79980E-04
  491.00      8.74180E-04
  493.00      8.68570E-04
  495.00      8.63050E-04
  497.00      8.56480E-04
  499.00      8.51260E-04
  501.00      8.42550E-04
  503.00      8.38020E-04
  505.00      8.30440E-04
  507.00      8.25730E-04
  509.00      8.20800E-04
  511.00      8.13270E-04
  513.00      8.06110E-04
  515.00      8.02130E-04
  517.00      7.98700E-04
  519.00      7.92800E-04
  521.00      7.85680E-04
  523.00      7.81950E-04
  525.00      7.74600E-04
  527.00      7.69270E-04
  529.00      7.65840E-04
  531.00      7.60500E-04
  533.00      7.54960E-04
  535.00      7.50550E-04
  537.00      7.44930E-04
  539.00      7.39930E-04
  541.00      7.20690E-04
  543.00      7.30410E-04
  545.00      7.25490E-04
  547.00      7.19790E-04
  549.00      7.15710E-04
  551.00      7.09790E-04
  553.00      7.06370E-04
  555.00      7.01850E-04
  557.00      6.95350E-04
  559.00      6.89070E-04
  561.00      6.88030E-04
  563.00      6.83380E-04
  565.00      6.78870E-04
  567.00      6.74330E-04
  569.00      6.58230E-04
  571.00      6.13890E-04
  573.00      6.10200E-04
  575.00      6.06050E-04
  577.00      6.03410E-04
  579.00      6.00550E-04
  581.00      5.91160E-04
  583.00      5.97070E-04
  585.00      5.97290E-04
  587.00      5.95230E-04
  589.00      5.97720E-04
  591.00      5.98530E-04
  593.00      5.99940E-04
  595.00      6.02480E-04
  597.00      6.04240E-04
  599.00      6.05880E-04
  601.00      6.03760E-04
  603.00      6.01410E-04
  605.00      5.98230E-04
  607.00      5.94440E-04
  609.00      5.91940E-04
  611.00      5.87380E-04
  613.00      5.83990E-04
  615.00      5.81650E-04
  617.00      5.75930E-04
  619.00      5.75270E-04
  621.00      5.71920E-04
  623.00      5.65310E-04
  625.00      5.64580E-04
  627.00      5.61660E-04
  629.00      5.58720E-04
  631.00      5.50930E-04
  633.00      5.51920E-04
  635.00      5.48820E-04
  637.00      5.45780E-04
  639.00      5.41550E-04
  641.00      5.34070E-04
  643.00      5.36400E-04
  645.00      5.32830E-04
  647.00      5.29650E-04
  649.00      5.27090E-04
  651.00      5.23450E-04
  653.00      5.14380E-04
  655.00      5.12830E-04
  657.00      4.79230E-04
  659.00      5.11400E-04
  661.00      5.09550E-04
  663.00      5.06690E-04
  665.00      5.03830E-04
  667.00      4.99040E-04
  669.00      4.90470E-04
  671.00      4.94450E-04
  673.00      4.92370E-04
  675.00      4.89560E-04
  677.00      4.87070E-04
  679.00      4.84620E-04
  681.00      4.81900E-04
  683.00      4.79310E-04
  685.00      4.76600E-04
  687.00      4.73890E-04
  689.00      4.63690E-04
  691.00      4.68630E-04
  693.00      4.66470E-04
  695.00      4.63880E-04
  697.00      4.61440E-04
  699.00      4.58920E-04
  701.00      4.56120E-04
  703.00      4.52970E-04
  705.00      4.50790E-04
  707.00      4.48370E-04
  709.00      4.46850E-04
  711.00      4.43260E-04
  713.00      4.41060E-04
  715.00      4.39830E-04
  717.00      4.31950E-04
  719.00      4.32340E-04
  721.00      4.32430E-04
  723.00      4.30740E-04
  725.00      4.28580E-04
  727.00      4.26380E-04
  729.00      4.24050E-04
  731.00      4.21350E-04
  733.00      4.19690E-04
  735.00      4.17720E-04
  737.00      4.15260E-04
  739.00      4.12480E-04
  741.00      4.11030E-04
  743.00      4.09270E-04
  745.00      4.06500E-04
  747.00      4.04880E-04
  749.00      4.02150E-04
  751.00      4.00730E-04
  753.00      3.98940E-04
  755.00      3.96890E-04
  757.00      3.94720E-04
  759.00      3.85520E-04
  761.00      3.90360E-04
  763.00      3.89050E-04
  765.00      3.87140E-04
  767.00      3.84920E-04
  769.00      3.82560E-04
  771.00      3.80740E-04
  773.00      3.78700E-04
  775.00      3.77270E-04
  777.00      3.76120E-04
  779.00      3.73920E-04
  781.00      3.72470E-04
  783.00      3.70600E-04
  785.00      3.67520E-04
  787.00      3.66690E-04
  789.00      3.65220E-04
  791.00      3.63630E-04
  793.00      3.61970E-04
  795.00      3.59960E-04
  797.00      3.57870E-04
  799.00      3.56820E-04
  801.00      3.55120E-04
  803.00      3.53070E-04
  805.00      3.51760E-04
  807.00      3.50170E-04
  809.00      3.48530E-04
  811.00      3.46910E-04
  813.00      3.45290E-04
  815.00      3.43690E-04
  817.00      3.41550E-04
  819.00      3.38590E-04
  821.00      3.20780E-04
  823.00      3.16880E-04
  825.00      3.17500E-04
  827.00      3.16540E-04
  829.00      3.15240E-04
  831.00      3.13930E-04
  833.00      3.11960E-04
  835.00      3.11050E-04
  837.00      3.10000E-04
  839.00      3.08860E-04
  841.00      3.07960E-04
  843.00      3.06990E-04
  845.00      3.06030E-04
  847.00      3.05150E-04
  849.00      3.04500E-04
  851.00      3.03230E-04
  853.00      3.03130E-04
  855.00      3.01880E-04
  857.00      3.01710E-04
  859.00      3.00650E-04
  861.00      2.99900E-04
  863.00      3.00520E-04
  865.00      2.99540E-04
  867.00      2.95970E-04
  869.00      2.99170E-04
  871.00      2.99200E-04
  873.00      2.98270E-04
  875.00      2.91600E-04
  877.00      2.96290E-04
  879.00      2.97500E-04
  881.00      2.97130E-04
  883.00      2.96200E-04
  885.00      2.91300E-04
  887.00      2.83210E-04
  889.00      2.91780E-04
  891.00      2.91740E-04
  893.00      2.90220E-04
  895.00      2.89650E-04
  897.00      2.88500E-04
  899.00      2.86000E-04
  901.00      2.73550E-04
  903.00      2.78290E-04
  905.00      2.83030E-04
  907.00      2.82700E-04
  909.00      2.81550E-04
  911.00      2.79510E-04
  913.00      2.79190E-04
  915.00      2.78230E-04
  917.00      2.76770E-04
  919.00      2.75290E-04
  921.00      2.71810E-04
  923.00      2.56480E-04
  925.00      2.68700E-04
  927.00      2.70690E-04
  929.00      2.70120E-04
  931.00      2.69020E-04
  933.00      2.67650E-04
  935.00      2.60100E-04
  937.00      2.63920E-04
  939.00      2.64490E-04
  941.00      2.63360E-04
  943.00      2.62420E-04
  945.00      2.61400E-04
  947.00      2.60430E-04
  949.00      2.59150E-04
  951.00      2.57670E-04
  953.00      2.53530E-04
  955.00      2.38730E-04
  957.00      2.52660E-04
  959.00      2.53860E-04
  961.00      2.53190E-04
  963.00      2.52040E-04
  965.00      2.51220E-04
  967.00      2.50240E-04
  969.00      2.49250E-04
  971.00      2.46650E-04
  973.00      2.47000E-04
  975.00      2.45820E-04
  977.00      2.42990E-04
  979.00      2.44360E-04
  981.00      2.43410E-04
  983.00      2.42250E-04
  985.00      2.41520E-04
  987.00      2.40590E-04
  989.00      2.39650E-04
  991.00      2.38640E-04
  993.00      2.37800E-04
  995.00      2.36880E-04
  997.00      2.35960E-04
  999.00      2.35050E-04
  1002.5      2.29760E-04
  1007.5      2.25250E-04
  1012.5      2.24420E-04
  1017.5      2.26880E-04
  1022.5      2.24720E-04
  1027.5      2.22440E-04
  1032.5      2.20370E-04
  1037.5      2.18500E-04
  1042.5      2.15040E-04
  1047.5      2.14530E-04
  1052.5      2.12550E-04
  1057.5      2.10620E-04
  1062.5      2.08720E-04
  1067.5      2.06830E-04
  1072.5      2.04970E-04
  1077.5      2.03140E-04
  1082.5      2.01030E-04
  1087.5      1.99460E-04
  1092.5      1.90350E-04
  1097.5      1.94600E-04
  1102.5      1.94320E-04
  1107.5      1.92630E-04
  1112.5      1.90950E-04
  1117.5      1.89450E-04
  1122.5      1.87780E-04
  1127.5      1.86130E-04
  1132.5      1.84520E-04
  1137.5      1.83020E-04
  1142.5      1.81480E-04
  1147.5      1.79960E-04
  1152.5      1.78440E-04
  1157.5      1.76830E-04
  1162.5      1.73160E-04
  1167.5      1.72330E-04
  1172.5      1.72540E-04
  1177.5      1.71160E-04
  1182.5      1.69590E-04
  1187.5      1.68340E-04
  1192.5      1.66960E-04
  1197.5      1.65410E-04
  1202.5      1.64310E-04
  1207.5      1.62930E-04
  1212.5      1.61590E-04
  1217.5      1.60380E-04
  1222.5      1.59080E-04
  1227.5      1.57860E-04
  1232.5      1.56600E-04
  1237.5      1.55380E-04
  1242.5      1.54170E-04
  1247.5      1.52970E-04
  1252.5      1.51770E-04
  1257.5      1.50590E-04
  1262.5      1.49440E-04
  1267.5      1.48300E-04
  1272.5      1.47150E-04
  1277.5      1.45550E-04
  1282.5      1.38710E-04
  1287.5      1.43620E-04
  1292.5      1.42750E-04
  1297.5      1.41660E-04
  1302.5      1.40620E-04
  1307.5      1.39570E-04
  1312.5      1.38530E-04
  1317.5      1.37500E-04
  1322.5      1.36500E-04
  1327.5      1.35490E-04
  1332.5      1.34500E-04
  1337.5      1.33520E-04
  1342.5      1.32540E-04
  1347.5      1.31590E-04
  1352.5      1.30640E-04
  1357.5      1.29700E-04
  1362.5      1.28770E-04
  1367.5      1.27850E-04
  1372.5      1.26930E-04
  1377.5      1.26040E-04
  1382.5      1.25150E-04
  1387.5      1.24270E-04
  1392.5      1.23390E-04
  1397.5      1.22530E-04
