 Castelli and Kurucz 2004-2012 Atmosphere
 T     37000.     G    4.00000 [+0.5] N(He)/Ntot=0.07813 VTURB=2.0  L/H=1.25 NO
 Wavelength  Eddington Hnu
   (nm)    (ergs/s/cm2/Hz/sr)
  9.0900      2.49960E-28
  9.3500      1.12210E-27
  9.6100      4.58460E-27
  9.7700      1.07630E-26
  9.9600      2.81760E-26
  10.200      9.04420E-26
  10.380      2.09820E-25
  10.560      4.73370E-25
  10.770      1.18340E-24
  11.040      3.65690E-24
  11.400      1.51910E-23
  11.780      6.23780E-23
  12.130      2.13380E-22
  12.480      6.81790E-22
  12.710      1.41620E-21
  12.840      2.11690E-21
  13.050      3.97930E-21
  13.240      6.93740E-21
  13.390      1.06860E-20
  13.660      2.25240E-20
  13.980      5.35560E-20
  14.330      1.30930E-19
  14.720      3.32290E-19
  15.100      8.31880E-19
  15.520      2.12480E-18
  15.880      4.58730E-18
  16.200      8.85220E-18
  16.600      1.98350E-17
  17.030      4.45450E-17
  17.340      7.86180E-17
  17.680      1.45910E-16
  18.020      2.61390E-16
  18.170      3.35840E-16
  18.610      6.95640E-16
  19.100      1.49980E-15
  19.390      2.34250E-15
  19.840      4.52750E-15
  20.180      7.21370E-15
  20.500      1.12340E-14
  21.050      2.30990E-14
  21.620      4.64900E-14
  21.980      7.23880E-14
  22.300      1.04470E-13
  22.680      1.66110E-13
  23.000      1.34760E-10
  23.400      3.00320E-10
  24.000      4.41700E-10
  24.650      6.81950E-10
  25.240      1.22570E-09
  25.680      1.87910E-09
  26.000      2.56280E-09
  26.400      7.30440E-09
  26.850      1.22750E-08
  27.350      1.57690E-08
  27.850      1.56040E-08
  28.400      3.59110E-08
  29.000      5.12330E-08
  29.600      5.87270E-08
  30.100      1.43280E-07
  30.800      5.27980E-07
  31.800      5.58240E-07
  32.800      1.03680E-06
  33.800      1.63100E-06
  34.800      2.31780E-06
  35.700      5.87040E-06
  36.600      1.61760E-05
  37.500      2.25730E-05
  38.500      2.40450E-05
  39.500      5.79040E-05
  40.500      1.25540E-04
  41.400      1.19270E-04
  42.200      1.21990E-04
  43.000      1.18960E-04
  44.100      1.64030E-04
  45.100      1.73430E-04
  46.000      1.35650E-04
  47.000      1.69030E-04
  48.000      2.25540E-04
  49.000      1.35730E-04
  50.000      2.61000E-04
  50.600      1.75750E-04
  51.200      4.16480E-04
  52.000      4.02580E-04
  53.000      3.73530E-04
  54.000      3.18380E-04
  55.000      2.65770E-04
  56.000      4.19570E-04
  57.000      6.35280E-04
  58.000      6.29790E-04
  59.000      6.51110E-04
  60.000      4.20080E-04
  61.000      4.48360E-04
  62.000      7.09810E-04
  63.000      6.69220E-04
  64.000      8.17280E-04
  65.000      7.57430E-04
  65.800      5.57370E-04
  66.500      8.07410E-04
  67.500      9.62740E-04
  68.500      7.01780E-04
  69.500      9.77140E-04
  70.500      6.71560E-04
  71.600      1.08510E-03
  72.600      1.11770E-03
  73.500      1.15010E-03
  74.500      1.02390E-03
  75.500      1.04160E-03
  76.500      8.98380E-04
  77.500      1.09960E-03
  78.500      9.09880E-04
  79.500      1.14200E-03
  80.500      1.15310E-03
  81.500      1.17710E-03
  82.500      1.24300E-03
  83.500      9.33040E-04
  84.500      1.21320E-03
  85.500      1.15280E-03
  86.500      1.27600E-03
  87.500      1.30500E-03
  88.500      1.30870E-03
  89.500      1.31260E-03
  90.500      1.28810E-03
  91.500      1.11100E-03
  92.500      1.83460E-03
  93.500      2.60760E-03
  94.500      2.80870E-03
  95.500      3.10170E-03
  96.500      3.32260E-03
  97.500      2.24890E-03
  98.500      2.90580E-03
  99.500      2.61600E-03
  100.50      2.64450E-03
  101.50      2.86410E-03
  102.50      2.76660E-03
  103.50      3.06690E-03
  104.50      3.31850E-03
  105.50      3.23740E-03
  106.50      3.07180E-03
  107.50      3.12120E-03
  108.50      2.96840E-03
  109.50      3.09100E-03
  110.50      3.05140E-03
  111.50      3.02860E-03
  112.50      2.80500E-03
  113.50      3.06150E-03
  114.50      3.12810E-03
  115.50      2.91790E-03
  116.50      2.83550E-03
  117.50      2.23490E-03
  118.50      2.71730E-03
  119.50      2.61220E-03
  120.50      2.61860E-03
  121.50      2.37030E-03
  122.50      2.55200E-03
  123.50      2.65660E-03
  124.50      2.61310E-03
  125.50      2.66230E-03
  126.50      2.77100E-03
  127.50      2.90390E-03
  128.50      2.92080E-03
  129.50      2.91680E-03
  130.50      2.85580E-03
  131.50      2.96090E-03
  132.50      2.94290E-03
  133.50      2.89560E-03
  134.50      2.94460E-03
  135.50      2.83640E-03
  136.50      2.78830E-03
  137.50      2.69590E-03
  138.50      2.71590E-03
  139.50      2.51680E-03
  140.50      2.43260E-03
  141.50      2.80310E-03
  142.50      2.53770E-03
  143.50      2.73580E-03
  144.20      2.62650E-03
  144.70      2.65360E-03
  145.50      2.56440E-03
  146.50      2.57730E-03
  147.50      2.63010E-03
  148.50      2.68060E-03
  149.50      2.61980E-03
  150.50      2.63940E-03
  151.20      2.63690E-03
  151.70      2.63620E-03
  152.50      2.59080E-03
  153.50      2.33430E-03
  154.50      1.79240E-03
  155.50      1.90030E-03
  156.50      2.27790E-03
  157.50      2.41670E-03
  158.50      2.42950E-03
  159.50      2.46710E-03
  160.50      2.33740E-03
  161.50      2.27920E-03
  162.50      2.35890E-03
  163.50      2.40370E-03
  164.50      2.39040E-03
  165.50      2.42790E-03
  166.50      2.40890E-03
  167.20      2.24250E-03
  167.70      2.59930E-03
  168.50      2.52440E-03
  169.50      2.49620E-03
  170.50      2.47310E-03
  171.50      2.34540E-03
  172.50      2.34220E-03
  173.50      2.45410E-03
  174.50      2.46000E-03
  175.50      2.43210E-03
  176.50      2.42410E-03
  177.50      2.36840E-03
  178.50      2.42400E-03
  179.50      2.36760E-03
  180.50      2.37110E-03
  181.50      2.34870E-03
  182.50      2.31790E-03
  183.50      2.34290E-03
  184.50      2.34910E-03
  185.50      2.36900E-03
  186.50      2.37500E-03
  187.50      2.32070E-03
  188.50      2.29260E-03
  189.50      2.33930E-03
  190.50      2.34990E-03
  191.50      2.33750E-03
  192.50      2.22720E-03
  193.50      2.33680E-03
  194.50      2.33950E-03
  195.50      2.21190E-03
  196.70      2.29080E-03
  197.60      2.28790E-03
  198.40      2.29900E-03
  199.50      2.26640E-03
  200.50      2.30130E-03
  201.50      2.28870E-03
  202.50      2.28210E-03
  203.50      2.24790E-03
  204.50      2.22300E-03
  205.50      1.70210E-03
  206.50      1.66490E-03
  207.40      1.76280E-03
  207.80      1.81440E-03
  208.50      2.02070E-03
  209.50      2.14460E-03
  210.50      2.12990E-03
  211.50      2.17120E-03
  212.50      2.13930E-03
  213.50      2.15350E-03
  214.50      2.13470E-03
  215.50      2.14230E-03
  216.50      2.04920E-03
  217.50      2.12660E-03
  218.50      2.07470E-03
  219.50      2.12650E-03
  220.50      2.11010E-03
  221.50      2.04410E-03
  222.50      2.08160E-03
  223.50      2.07250E-03
  224.50      2.05070E-03
  225.50      2.00970E-03
  226.50      2.03340E-03
  227.50      2.03870E-03
  228.50      1.99780E-03
  229.50      1.90030E-03
  230.50      1.94480E-03
  231.50      1.94860E-03
  232.50      1.96740E-03
  233.50      1.95610E-03
  234.50      1.92620E-03
  235.50      1.89650E-03
  236.50      1.87740E-03
  237.50      1.84640E-03
  238.50      1.77760E-03
  239.50      1.81760E-03
  240.50      1.82040E-03
  241.50      1.82320E-03
  242.50      1.83580E-03
  243.50      1.81790E-03
  244.50      1.81000E-03
  245.50      1.79310E-03
  246.50      1.78530E-03
  247.50      1.79130E-03
  248.50      1.73910E-03
  249.50      1.34390E-03
  250.50      1.70410E-03
  251.30      1.65960E-03
  251.80      1.69390E-03
  252.50      1.72070E-03
  253.50      1.73020E-03
  254.50      1.72640E-03
  255.50      1.71310E-03
  256.50      1.70600E-03
  257.50      1.69300E-03
  258.50      1.68630E-03
  259.50      1.64670E-03
  260.50      1.67180E-03
  261.50      1.64140E-03
  262.50      1.65410E-03
  263.50      1.65340E-03
  264.50      1.63010E-03
  265.50      1.63100E-03
  266.50      1.61900E-03
  267.50      1.58240E-03
  268.50      1.59930E-03
  269.50      1.58550E-03
  270.50      1.59560E-03
  271.50      1.57800E-03
  272.50      1.57450E-03
  273.50      1.53490E-03
  274.50      1.56510E-03
  275.50      1.54990E-03
  276.50      1.54240E-03
  277.50      1.53570E-03
  278.50      1.51140E-03
  279.50      1.49230E-03
  280.50      1.50510E-03
  281.50      1.50070E-03
  282.50      1.49140E-03
  283.50      1.48580E-03
  284.50      1.48420E-03
  285.50      1.47410E-03
  286.50      1.45170E-03
  287.50      1.44460E-03
  288.50      1.44660E-03
  289.50      1.44120E-03
  291.00      1.42700E-03
  293.00      1.42070E-03
  295.00      1.40590E-03
  297.00      1.38630E-03
  299.00      1.36130E-03
  301.00      1.34630E-03
  303.00      1.32240E-03
  305.00      1.32160E-03
  307.00      1.30470E-03
  309.00      1.30240E-03
  311.00      1.29380E-03
  313.00      1.27970E-03
  315.00      1.27460E-03
  317.00      1.25980E-03
  319.00      1.25240E-03
  321.00      1.21920E-03
  323.00      1.22610E-03
  325.00      1.21860E-03
  327.00      1.19230E-03
  329.00      1.19070E-03
  331.00      1.17700E-03
  333.00      1.16500E-03
  335.00      1.14240E-03
  337.00      1.13950E-03
  339.00      1.13430E-03
  341.00      1.12230E-03
  343.00      1.11950E-03
  345.00      1.09900E-03
  347.00      1.09750E-03
  349.00      1.08890E-03
  351.00      1.08220E-03
  353.00      1.06830E-03
  355.00      1.05970E-03
  357.00      1.05100E-03
  359.00      1.04200E-03
  361.00      1.02830E-03
  363.00      1.02050E-03
  364.00      1.00150E-03
  365.00      9.12900E-04
  367.00      9.06460E-04
  369.00      9.02820E-04
  371.00      8.98000E-04
  373.00      9.12140E-04
  375.00      9.33400E-04
  377.00      9.41720E-04
  379.00      9.59190E-04
  381.00      9.72620E-04
  383.00      9.31760E-04
  385.00      9.72580E-04
  387.00      9.58900E-04
  389.00      9.04290E-04
  391.00      9.59080E-04
  393.00      9.38310E-04
  395.00      9.32540E-04
  397.00      8.67050E-04
  399.00      9.27000E-04
  401.00      9.17090E-04
  403.00      8.98620E-04
  405.00      9.03760E-04
  407.00      8.88880E-04
  409.00      8.64360E-04
  411.00      8.26210E-04
  413.00      8.67750E-04
  415.00      8.63520E-04
  417.00      8.61380E-04
  419.00      8.53110E-04
  421.00      8.38490E-04
  423.00      8.43820E-04
  425.00      8.34290E-04
  427.00      8.27970E-04
  429.00      8.21760E-04
  431.00      8.10710E-04
  433.00      7.88060E-04
  435.00      7.57550E-04
  437.00      7.92550E-04
  439.00      7.80780E-04
  441.00      7.73080E-04
  443.00      7.74960E-04
  445.00      7.68030E-04
  447.00      7.59940E-04
  449.00      7.58920E-04
  451.00      7.44330E-04
  453.00      7.40940E-04
  455.00      7.27000E-04
  457.00      7.34050E-04
  459.00      7.26240E-04
  461.00      7.24680E-04
  463.00      7.14680E-04
  465.00      6.87480E-04
  467.00      7.05820E-04
  469.00      6.86230E-04
  471.00      6.99570E-04
  473.00      7.00360E-04
  475.00      6.95790E-04
  477.00      6.90630E-04
  479.00      6.84960E-04
  481.00      6.80400E-04
  483.00      6.75160E-04
  485.00      6.62470E-04
  487.00      6.23610E-04
  489.00      6.60050E-04
  491.00      6.55160E-04
  493.00      6.48740E-04
  495.00      6.46660E-04
  497.00      6.43510E-04
  499.00      6.39690E-04
  501.00      6.30550E-04
  503.00      6.28690E-04
  505.00      6.24520E-04
  507.00      6.21640E-04
  509.00      6.17720E-04
  511.00      6.13410E-04
  513.00      6.08690E-04
  515.00      6.04670E-04
  517.00      6.01030E-04
  519.00      5.96980E-04
  521.00      5.92870E-04
  523.00      5.89600E-04
  525.00      5.83300E-04
  527.00      5.79310E-04
  529.00      5.77880E-04
  531.00      5.73960E-04
  533.00      5.70000E-04
  535.00      5.66710E-04
  537.00      5.62800E-04
  539.00      5.59050E-04
  541.00      5.47150E-04
  543.00      5.52190E-04
  545.00      5.48590E-04
  547.00      5.44610E-04
  549.00      5.41490E-04
  551.00      5.36990E-04
  553.00      5.34570E-04
  555.00      5.31360E-04
  557.00      5.26950E-04
  559.00      5.21810E-04
  561.00      5.21420E-04
  563.00      5.18060E-04
  565.00      5.14790E-04
  567.00      5.11430E-04
  569.00      4.98950E-04
  571.00      4.72460E-04
  573.00      4.69760E-04
  575.00      4.66730E-04
  577.00      4.64760E-04
  579.00      4.62700E-04
  581.00      4.57830E-04
  583.00      4.59770E-04
  585.00      4.60500E-04
  587.00      4.55420E-04
  589.00      4.60340E-04
  591.00      4.60810E-04
  593.00      4.61650E-04
  595.00      4.63250E-04
  597.00      4.63880E-04
  599.00      4.63070E-04
  601.00      4.60950E-04
  603.00      4.58080E-04
  605.00      4.55500E-04
  607.00      4.52630E-04
  609.00      4.51020E-04
  611.00      4.47420E-04
  613.00      4.45000E-04
  615.00      4.43050E-04
  617.00      4.38900E-04
  619.00      4.38580E-04
  621.00      4.36270E-04
  623.00      4.31440E-04
  625.00      4.30840E-04
  627.00      4.28640E-04
  629.00      4.26300E-04
  631.00      4.20890E-04
  633.00      4.21470E-04
  635.00      4.18890E-04
  637.00      4.16770E-04
  639.00      4.14220E-04
  641.00      4.08820E-04
  643.00      4.09880E-04
  645.00      4.06850E-04
  647.00      4.04420E-04
  649.00      4.02620E-04
  651.00      3.99870E-04
  653.00      3.94480E-04
  655.00      3.92890E-04
  657.00      3.66320E-04
  659.00      3.91510E-04
  661.00      3.89870E-04
  663.00      3.87830E-04
  665.00      3.85660E-04
  667.00      3.80800E-04
  669.00      3.75760E-04
  671.00      3.78410E-04
  673.00      3.76320E-04
  675.00      3.74430E-04
  677.00      3.73110E-04
  679.00      3.71400E-04
  681.00      3.69450E-04
  683.00      3.67500E-04
  685.00      3.65390E-04
  687.00      3.63250E-04
  689.00      3.57140E-04
  691.00      3.59410E-04
  693.00      3.57950E-04
  695.00      3.55990E-04
  697.00      3.54230E-04
  699.00      3.52320E-04
  701.00      3.50100E-04
  703.00      3.47530E-04
  705.00      3.46280E-04
  707.00      3.42430E-04
  709.00      3.43350E-04
  711.00      3.41300E-04
  713.00      3.39570E-04
  715.00      3.38150E-04
  717.00      3.33450E-04
  719.00      3.33360E-04
  721.00      3.33010E-04
  723.00      3.31090E-04
  725.00      3.29610E-04
  727.00      3.28000E-04
  729.00      3.25470E-04
  731.00      3.24230E-04
  733.00      3.23060E-04
  735.00      3.21490E-04
  737.00      3.19600E-04
  739.00      3.18120E-04
  741.00      3.16470E-04
  743.00      3.15190E-04
  745.00      3.13020E-04
  747.00      3.11740E-04
  749.00      3.09140E-04
  751.00      3.08680E-04
  753.00      3.07290E-04
  755.00      3.05780E-04
  757.00      3.04110E-04
  759.00      2.98640E-04
  761.00      3.00770E-04
  763.00      2.99770E-04
  765.00      2.98450E-04
  767.00      2.97070E-04
  769.00      2.94840E-04
  771.00      2.93810E-04
  773.00      2.91930E-04
  775.00      2.90960E-04
  777.00      2.90220E-04
  779.00      2.88520E-04
  781.00      2.87470E-04
  783.00      2.86050E-04
  785.00      2.83490E-04
  787.00      2.82940E-04
  789.00      2.81960E-04
  791.00      2.80870E-04
  793.00      2.79610E-04
  795.00      2.78310E-04
  797.00      2.76520E-04
  799.00      2.75710E-04
  801.00      2.74460E-04
  803.00      2.72850E-04
  805.00      2.71990E-04
  807.00      2.70740E-04
  809.00      2.69480E-04
  811.00      2.68150E-04
  813.00      2.67070E-04
  815.00      2.65800E-04
  817.00      2.64240E-04
  819.00      2.62200E-04
  821.00      2.51520E-04
  823.00      2.48890E-04
  825.00      2.49150E-04
  827.00      2.48080E-04
  829.00      2.47250E-04
  831.00      2.46340E-04
  833.00      2.44480E-04
  835.00      2.43500E-04
  837.00      2.43110E-04
  839.00      2.42500E-04
  841.00      2.41690E-04
  843.00      2.40970E-04
  845.00      2.40070E-04
  847.00      2.39430E-04
  849.00      2.38900E-04
  851.00      2.36970E-04
  853.00      2.37760E-04
  855.00      2.36050E-04
  857.00      2.36760E-04
  859.00      2.34760E-04
  861.00      2.34180E-04
  863.00      2.35860E-04
  865.00      2.34470E-04
  867.00      2.29170E-04
  869.00      2.34580E-04
  871.00      2.34700E-04
  873.00      2.33360E-04
  875.00      2.24290E-04
  877.00      2.31250E-04
  879.00      2.32680E-04
  881.00      2.31980E-04
  883.00      2.30960E-04
  885.00      2.26390E-04
  887.00      2.17480E-04
  889.00      2.27630E-04
  891.00      2.27570E-04
  893.00      2.26070E-04
  895.00      2.25590E-04
  897.00      2.24930E-04
  899.00      2.22850E-04
  901.00      2.10880E-04
  903.00      2.16570E-04
  905.00      2.20890E-04
  907.00      2.19880E-04
  909.00      2.19320E-04
  911.00      2.18010E-04
  913.00      2.17730E-04
  915.00      2.16980E-04
  917.00      2.15760E-04
  919.00      2.14880E-04
  921.00      2.11790E-04
  923.00      1.98150E-04
  925.00      2.09930E-04
  927.00      2.11330E-04
  929.00      2.10640E-04
  931.00      2.09720E-04
  933.00      2.08960E-04
  935.00      2.04480E-04
  937.00      2.05990E-04
  939.00      2.06460E-04
  941.00      2.05260E-04
  943.00      2.04660E-04
  945.00      2.04030E-04
  947.00      2.03050E-04
  949.00      2.02390E-04
  951.00      2.00840E-04
  953.00      1.97910E-04
  955.00      1.85240E-04
  957.00      1.97660E-04
  959.00      1.98410E-04
  961.00      1.97610E-04
  963.00      1.96550E-04
  965.00      1.96220E-04
  967.00      1.95550E-04
  969.00      1.94760E-04
  971.00      1.90040E-04
  973.00      1.92550E-04
  975.00      1.92330E-04
  977.00      1.90390E-04
  979.00      1.91030E-04
  981.00      1.90280E-04
  983.00      1.89400E-04
  985.00      1.88820E-04
  987.00      1.88130E-04
  989.00      1.87320E-04
  991.00      1.86480E-04
  993.00      1.85990E-04
  995.00      1.85300E-04
  997.00      1.84560E-04
  999.00      1.83900E-04
  1002.5      1.79640E-04
  1007.5      1.76090E-04
  1012.5      1.76170E-04
  1017.5      1.77620E-04
  1022.5      1.75920E-04
  1027.5      1.74160E-04
  1032.5      1.72360E-04
  1037.5      1.71160E-04
  1042.5      1.68880E-04
  1047.5      1.68110E-04
  1052.5      1.66570E-04
  1057.5      1.65090E-04
  1062.5      1.63620E-04
  1067.5      1.62120E-04
  1072.5      1.60740E-04
  1077.5      1.59320E-04
  1082.5      1.57010E-04
  1087.5      1.56500E-04
  1092.5      1.49000E-04
  1097.5      1.52700E-04
  1102.5      1.52370E-04
  1107.5      1.51210E-04
  1112.5      1.49910E-04
  1117.5      1.48740E-04
  1122.5      1.47420E-04
  1127.5      1.46170E-04
  1132.5      1.44900E-04
  1137.5      1.43730E-04
  1142.5      1.42550E-04
  1147.5      1.41380E-04
  1152.5      1.40230E-04
  1157.5      1.38930E-04
  1162.5      1.36670E-04
  1167.5      1.35900E-04
  1172.5      1.35670E-04
  1177.5      1.34600E-04
  1182.5      1.33340E-04
  1187.5      1.32400E-04
  1192.5      1.31320E-04
  1197.5      1.29560E-04
  1202.5      1.29290E-04
  1207.5      1.28210E-04
  1212.5      1.27130E-04
  1217.5      1.26240E-04
  1222.5      1.25210E-04
  1227.5      1.24290E-04
  1232.5      1.23300E-04
  1237.5      1.22360E-04
  1242.5      1.21420E-04
  1247.5      1.20490E-04
  1252.5      1.19470E-04
  1257.5      1.18600E-04
  1262.5      1.17750E-04
  1267.5      1.16870E-04
  1272.5      1.15980E-04
  1277.5      1.14350E-04
  1282.5      1.09400E-04
  1287.5      1.13280E-04
  1292.5      1.12560E-04
  1297.5      1.11540E-04
  1302.5      1.10870E-04
  1307.5      1.10090E-04
  1312.5      1.09280E-04
  1317.5      1.08480E-04
  1322.5      1.07700E-04
  1327.5      1.06920E-04
  1332.5      1.06140E-04
  1337.5      1.05370E-04
  1342.5      1.04590E-04
  1347.5      1.03860E-04
  1352.5      1.03120E-04
  1357.5      1.02400E-04
  1362.5      1.01670E-04
  1367.5      1.00960E-04
  1372.5      1.00200E-04
  1377.5      9.95480E-05
  1382.5      9.88580E-05
  1387.5      9.81690E-05
  1392.5      9.74710E-05
  1397.5      9.68170E-05
