 Castelli and Kurucz 2004-2012 Atmosphere
 T     48000.     G    5.00000 [+0.5] N(He)/Ntot=0.07813 VTURB=2.0  L/H=1.25 NO
 Wavelength  Eddington Hnu
   (nm)    (ergs/s/cm2/Hz/sr)
  9.0900      5.70000E-20
  9.3500      1.66410E-19
  9.6100      4.48760E-19
  9.7700      8.32810E-19
  9.9600      1.65540E-18
  10.200      3.81060E-18
  10.380      6.95750E-18
  10.560      1.24600E-17
  10.770      2.40260E-17
  11.040      5.39730E-17
  11.400      1.50050E-16
  11.780      4.11370E-16
  12.130      1.00030E-15
  12.480      2.29470E-15
  12.710      3.88230E-15
  12.840      5.33950E-15
  13.050      8.35690E-15
  13.240      1.24140E-14
  13.390      1.69440E-14
  13.660      2.87110E-14
  13.980      5.33450E-14
  14.330      9.93820E-14
  14.720      1.84470E-13
  15.100      3.61950E-13
  15.520      6.95920E-13
  15.880      1.21200E-12
  16.200      2.46920E-12
  16.600      4.33360E-12
  17.030      7.24680E-12
  17.340      1.04390E-11
  17.680      1.62150E-11
  18.020      2.44810E-11
  18.170      2.75790E-11
  18.610      4.81300E-11
  19.100      7.86540E-11
  19.390      1.14520E-10
  19.840      1.79780E-10
  20.180      2.22780E-10
  20.500      3.19900E-10
  21.050      5.05780E-10
  21.620      7.85010E-10
  21.980      1.05880E-09
  22.300      1.28980E-09
  22.680      1.73830E-09
  23.000      1.01010E-07
  23.400      3.43410E-07
  24.000      4.76760E-07
  24.650      8.69580E-07
  25.240      2.66090E-06
  25.680      9.58050E-06
  26.000      7.25140E-06
  26.400      4.79780E-05
  26.850      5.66660E-05
  27.350      7.37520E-05
  27.850      4.37840E-05
  28.400      9.60490E-05
  29.000      1.72910E-04
  29.600      1.40090E-04
  30.100      1.37740E-04
  30.800      2.01350E-04
  31.800      3.79570E-05
  32.800      5.99510E-05
  33.800      4.47700E-05
  34.800      5.13070E-05
  35.700      1.43730E-04
  36.600      3.78880E-04
  37.500      5.56050E-04
  38.500      4.62730E-04
  39.500      9.23500E-04
  40.500      1.74400E-03
  41.400      1.64780E-03
  42.200      1.47910E-03
  43.000      1.44160E-03
  44.100      1.91820E-03
  45.100      2.01710E-03
  46.000      1.57790E-03
  47.000      1.94060E-03
  48.000      2.36510E-03
  49.000      1.80740E-03
  50.000      3.02770E-03
  50.600      2.38590E-03
  51.200      3.12400E-03
  52.000      2.96480E-03
  53.000      2.80730E-03
  54.000      2.21250E-03
  55.000      1.81160E-03
  56.000      2.57250E-03
  57.000      3.31960E-03
  58.000      3.41150E-03
  59.000      3.45730E-03
  60.000      2.85630E-03
  61.000      2.33110E-03
  62.000      3.26180E-03
  63.000      2.83370E-03
  64.000      3.60730E-03
  65.000      3.35620E-03
  65.800      2.92030E-03
  66.500      3.64130E-03
  67.500      3.76380E-03
  68.500      3.28410E-03
  69.500      3.78270E-03
  70.500      3.25470E-03
  71.600      3.75680E-03
  72.600      3.94840E-03
  73.500      3.92860E-03
  74.500      3.71610E-03
  75.500      3.67170E-03
  76.500      3.19130E-03
  77.500      3.70780E-03
  78.500      3.13160E-03
  79.500      3.64570E-03
  80.500      3.83490E-03
  81.500      3.82100E-03
  82.500      3.88340E-03
  83.500      3.44540E-03
  84.500      3.79730E-03
  85.500      3.55130E-03
  86.500      3.84740E-03
  87.500      3.89330E-03
  88.500      3.80240E-03
  89.500      3.76120E-03
  90.500      3.67610E-03
  91.500      2.69490E-03
  92.500      3.97490E-03
  93.500      5.09880E-03
  94.500      5.75180E-03
  95.500      6.72830E-03
  96.500      7.12180E-03
  97.500      5.61320E-03
  98.500      6.50120E-03
  99.500      5.68360E-03
  100.50      5.79630E-03
  101.50      6.02800E-03
  102.50      5.78360E-03
  103.50      6.60890E-03
  104.50      6.99570E-03
  105.50      6.89660E-03
  106.50      6.52690E-03
  107.50      6.91060E-03
  108.50      6.23410E-03
  109.50      6.73200E-03
  110.50      6.67230E-03
  111.50      6.71740E-03
  112.50      6.56450E-03
  113.50      6.76170E-03
  114.50      6.85110E-03
  115.50      6.53230E-03
  116.50      6.02390E-03
  117.50      5.62620E-03
  118.50      6.15840E-03
  119.50      5.74280E-03
  120.50      5.73710E-03
  121.50      4.93380E-03
  122.50      5.54860E-03
  123.50      5.35930E-03
  124.50      5.20990E-03
  125.50      5.55070E-03
  126.50      5.65940E-03
  127.50      5.73970E-03
  128.50      5.73870E-03
  129.50      5.80900E-03
  130.50      5.64870E-03
  131.50      5.62580E-03
  132.50      5.57720E-03
  133.50      5.51790E-03
  134.50      5.44770E-03
  135.50      5.28200E-03
  136.50      5.06900E-03
  137.50      4.84780E-03
  138.50      5.00490E-03
  139.50      4.90720E-03
  140.50      4.66870E-03
  141.50      5.28610E-03
  142.50      4.94580E-03
  143.50      5.21280E-03
  144.20      4.88540E-03
  144.70      4.93300E-03
  145.50      4.84140E-03
  146.50      4.84140E-03
  147.50      4.90370E-03
  148.50      4.98190E-03
  149.50      4.85650E-03
  150.50      4.79610E-03
  151.20      4.79240E-03
  151.70      4.68930E-03
  152.50      4.76690E-03
  153.50      4.45770E-03
  154.50      3.73870E-03
  155.50      3.88160E-03
  156.50      4.35750E-03
  157.50      4.48720E-03
  158.50      4.41030E-03
  159.50      4.53810E-03
  160.50      4.37610E-03
  161.50      4.29940E-03
  162.50      4.41220E-03
  163.50      4.43360E-03
  164.50      4.26320E-03
  165.50      4.41560E-03
  166.50      4.37830E-03
  167.20      4.20900E-03
  167.70      4.52920E-03
  168.50      4.49620E-03
  169.50      4.51030E-03
  170.50      4.36930E-03
  171.50      4.19250E-03
  172.50      4.17840E-03
  173.50      4.35750E-03
  174.50      4.33780E-03
  175.50      4.30070E-03
  176.50      4.23630E-03
  177.50      4.16260E-03
  178.50      4.20960E-03
  179.50      4.11820E-03
  180.50      4.09390E-03
  181.50      4.01140E-03
  182.50      4.00300E-03
  183.50      3.99680E-03
  184.50      4.02210E-03
  185.50      4.00420E-03
  186.50      4.01670E-03
  187.50      3.94170E-03
  188.50      3.90060E-03
  189.50      3.95600E-03
  190.50      3.92990E-03
  191.50      3.91190E-03
  192.50      3.74700E-03
  193.50      3.87010E-03
  194.50      3.85900E-03
  195.50      3.75470E-03
  196.70      3.77730E-03
  197.60      3.72740E-03
  198.40      3.76400E-03
  199.50      3.71820E-03
  200.50      3.71860E-03
  201.50      3.69260E-03
  202.50      3.67720E-03
  203.50      3.61350E-03
  204.50      3.57590E-03
  205.50      2.65330E-03
  206.50      2.55420E-03
  207.40      2.61980E-03
  207.80      2.68400E-03
  208.50      2.86300E-03
  209.50      3.20620E-03
  210.50      3.36600E-03
  211.50      3.42250E-03
  212.50      3.37700E-03
  213.50      3.38820E-03
  214.50      3.35450E-03
  215.50      3.35690E-03
  216.50      3.17620E-03
  217.50      3.34250E-03
  218.50      3.20400E-03
  219.50      3.31840E-03
  220.50      3.29370E-03
  221.50      3.12760E-03
  222.50      3.25840E-03
  223.50      3.23750E-03
  224.50      3.20670E-03
  225.50      3.06760E-03
  226.50      3.16130E-03
  227.50      3.17190E-03
  228.50      3.10130E-03
  229.50      3.04750E-03
  230.50      2.95990E-03
  231.50      3.01830E-03
  232.50      3.04810E-03
  233.50      3.02920E-03
  234.50      2.98070E-03
  235.50      2.93270E-03
  236.50      2.90590E-03
  237.50      2.86030E-03
  238.50      2.71230E-03
  239.50      2.81290E-03
  240.50      2.78330E-03
  241.50      2.79050E-03
  242.50      2.81870E-03
  243.50      2.78350E-03
  244.50      2.77100E-03
  245.50      2.72580E-03
  246.50      2.72780E-03
  247.50      2.74660E-03
  248.50      2.69230E-03
  249.50      2.47400E-03
  250.50      2.66360E-03
  251.30      2.46170E-03
  251.80      2.58250E-03
  252.50      2.59270E-03
  253.50      2.62920E-03
  254.50      2.63010E-03
  255.50      2.61000E-03
  256.50      2.59950E-03
  257.50      2.57280E-03
  258.50      2.55970E-03
  259.50      2.47610E-03
  260.50      2.53560E-03
  261.50      2.47610E-03
  262.50      2.50850E-03
  263.50      2.49670E-03
  264.50      2.46090E-03
  265.50      2.46160E-03
  266.50      2.44690E-03
  267.50      2.39440E-03
  268.50      2.40830E-03
  269.50      2.37990E-03
  270.50      2.40010E-03
  271.50      2.37900E-03
  272.50      2.36140E-03
  273.50      2.26590E-03
  274.50      2.34160E-03
  275.50      2.31590E-03
  276.50      2.30830E-03
  277.50      2.28770E-03
  278.50      2.24710E-03
  279.50      2.23470E-03
  280.50      2.23960E-03
  281.50      2.22710E-03
  282.50      2.20420E-03
  283.50      2.20920E-03
  284.50      2.20060E-03
  285.50      2.18290E-03
  286.50      2.13580E-03
  287.50      2.11610E-03
  288.50      2.13420E-03
  289.50      2.11680E-03
  291.00      2.10850E-03
  293.00      2.09680E-03
  295.00      2.07210E-03
  297.00      2.04260E-03
  299.00      2.00800E-03
  301.00      1.98680E-03
  303.00      1.94960E-03
  305.00      1.94110E-03
  307.00      1.90080E-03
  309.00      1.90520E-03
  311.00      1.88640E-03
  313.00      1.86500E-03
  315.00      1.85490E-03
  317.00      1.83200E-03
  319.00      1.81750E-03
  321.00      1.75620E-03
  323.00      1.78290E-03
  325.00      1.76580E-03
  327.00      1.72710E-03
  329.00      1.72310E-03
  331.00      1.70320E-03
  333.00      1.68320E-03
  335.00      1.64910E-03
  337.00      1.64440E-03
  339.00      1.62400E-03
  341.00      1.60650E-03
  343.00      1.60590E-03
  345.00      1.57390E-03
  347.00      1.56930E-03
  349.00      1.55520E-03
  351.00      1.54750E-03
  353.00      1.52530E-03
  355.00      1.51340E-03
  357.00      1.49760E-03
  359.00      1.48530E-03
  361.00      1.46820E-03
  363.00      1.45190E-03
  364.00      1.41810E-03
  365.00      1.26580E-03
  367.00      1.25580E-03
  369.00      1.24640E-03
  371.00      1.23920E-03
  373.00      1.25480E-03
  375.00      1.27340E-03
  377.00      1.29220E-03
  379.00      1.32540E-03
  381.00      1.34980E-03
  383.00      1.29240E-03
  385.00      1.35060E-03
  387.00      1.34860E-03
  389.00      1.23820E-03
  391.00      1.33790E-03
  393.00      1.31490E-03
  395.00      1.30790E-03
  397.00      1.18390E-03
  399.00      1.29140E-03
  401.00      1.28430E-03
  403.00      1.25110E-03
  405.00      1.26400E-03
  407.00      1.25050E-03
  409.00      1.19970E-03
  411.00      1.13370E-03
  413.00      1.21550E-03
  415.00      1.21030E-03
  417.00      1.20210E-03
  419.00      1.18560E-03
  421.00      1.15890E-03
  423.00      1.17540E-03
  425.00      1.16480E-03
  427.00      1.15560E-03
  429.00      1.14560E-03
  431.00      1.13030E-03
  433.00      1.07910E-03
  435.00      1.03580E-03
  437.00      1.09820E-03
  439.00      1.08520E-03
  441.00      1.07430E-03
  443.00      1.07460E-03
  445.00      1.06220E-03
  447.00      1.05480E-03
  449.00      1.05050E-03
  451.00      1.03540E-03
  453.00      1.02550E-03
  455.00      9.96320E-04
  457.00      1.01350E-03
  459.00      1.00520E-03
  461.00      1.00100E-03
  463.00      9.85040E-04
  465.00      9.58370E-04
  467.00      9.72960E-04
  469.00      9.33130E-04
  471.00      9.64790E-04
  473.00      9.60170E-04
  475.00      9.53670E-04
  477.00      9.45900E-04
  479.00      9.35080E-04
  481.00      9.30960E-04
  483.00      9.21840E-04
  485.00      8.92330E-04
  487.00      8.39040E-04
  489.00      8.99730E-04
  491.00      8.95200E-04
  493.00      8.88900E-04
  495.00      8.83910E-04
  497.00      8.77400E-04
  499.00      8.71810E-04
  501.00      8.61920E-04
  503.00      8.57520E-04
  505.00      8.50820E-04
  507.00      8.45750E-04
  509.00      8.40310E-04
  511.00      8.33400E-04
  513.00      8.26440E-04
  515.00      8.21520E-04
  517.00      8.16900E-04
  519.00      8.11010E-04
  521.00      8.04090E-04
  523.00      7.99770E-04
  525.00      7.92110E-04
  527.00      7.86400E-04
  529.00      7.83130E-04
  531.00      7.77550E-04
  533.00      7.71940E-04
  535.00      7.67170E-04
  537.00      7.61550E-04
  539.00      7.56340E-04
  541.00      7.31760E-04
  543.00      7.45920E-04
  545.00      7.41290E-04
  547.00      7.35690E-04
  549.00      7.31280E-04
  551.00      7.25130E-04
  553.00      7.21530E-04
  555.00      7.16830E-04
  557.00      7.10660E-04
  559.00      7.03870E-04
  561.00      7.02660E-04
  563.00      6.97930E-04
  565.00      6.93280E-04
  567.00      6.88650E-04
  569.00      6.71520E-04
  571.00      6.23960E-04
  573.00      6.20210E-04
  575.00      6.16190E-04
  577.00      6.13090E-04
  579.00      6.09740E-04
  581.00      6.00440E-04
  583.00      6.04380E-04
  585.00      6.03730E-04
  587.00      6.00180E-04
  589.00      6.02860E-04
  591.00      6.03160E-04
  593.00      6.03970E-04
  595.00      6.05630E-04
  597.00      6.07430E-04
  599.00      6.09810E-04
  601.00      6.09850E-04
  603.00      6.10150E-04
  605.00      6.08810E-04
  607.00      6.05480E-04
  609.00      6.02650E-04
  611.00      5.98770E-04
  613.00      5.95400E-04
  615.00      5.92540E-04
  617.00      5.87570E-04
  619.00      5.86060E-04
  621.00      5.82950E-04
  623.00      5.76700E-04
  625.00      5.75140E-04
  627.00      5.72590E-04
  629.00      5.69210E-04
  631.00      5.61990E-04
  633.00      5.62110E-04
  635.00      5.59240E-04
  637.00      5.56170E-04
  639.00      5.51630E-04
  641.00      5.44470E-04
  643.00      5.46210E-04
  645.00      5.42740E-04
  647.00      5.39470E-04
  649.00      5.36900E-04
  651.00      5.32410E-04
  653.00      5.23430E-04
  655.00      5.18440E-04
  657.00      4.82000E-04
  659.00      5.19720E-04
  661.00      5.18890E-04
  663.00      5.15990E-04
  665.00      5.13050E-04
  667.00      5.06950E-04
  669.00      4.98430E-04
  671.00      5.03110E-04
  673.00      5.01100E-04
  675.00      4.98240E-04
  677.00      4.95840E-04
  679.00      4.93350E-04
  681.00      4.90580E-04
  683.00      4.87900E-04
  685.00      4.85110E-04
  687.00      4.82150E-04
  689.00      4.70640E-04
  691.00      4.76500E-04
  693.00      4.74730E-04
  695.00      4.72080E-04
  697.00      4.69610E-04
  699.00      4.66970E-04
  701.00      4.64100E-04
  703.00      4.60870E-04
  705.00      4.58740E-04
  707.00      4.55770E-04
  709.00      4.54680E-04
  711.00      4.51400E-04
  713.00      4.49070E-04
  715.00      4.47460E-04
  717.00      4.38430E-04
  719.00      4.38580E-04
  721.00      4.40130E-04
  723.00      4.38140E-04
  725.00      4.35910E-04
  727.00      4.33650E-04
  729.00      4.31160E-04
  731.00      4.28540E-04
  733.00      4.26900E-04
  735.00      4.24780E-04
  737.00      4.22250E-04
  739.00      4.19590E-04
  741.00      4.17920E-04
  743.00      4.16150E-04
  745.00      4.13280E-04
  747.00      4.11640E-04
  749.00      4.08590E-04
  751.00      4.07330E-04
  753.00      4.05550E-04
  755.00      4.03450E-04
  757.00      4.01070E-04
  759.00      3.89980E-04
  761.00      3.96190E-04
  763.00      3.95350E-04
  765.00      3.93460E-04
  767.00      3.91290E-04
  769.00      3.88640E-04
  771.00      3.86920E-04
  773.00      3.84590E-04
  775.00      3.83380E-04
  777.00      3.82210E-04
  779.00      3.79940E-04
  781.00      3.78470E-04
  783.00      3.76560E-04
  785.00      3.73360E-04
  787.00      3.72530E-04
  789.00      3.71040E-04
  791.00      3.69450E-04
  793.00      3.67750E-04
  795.00      3.65770E-04
  797.00      3.63520E-04
  799.00      3.62480E-04
  801.00      3.60760E-04
  803.00      3.58660E-04
  805.00      3.57380E-04
  807.00      3.55700E-04
  809.00      3.54030E-04
  811.00      3.52360E-04
  813.00      3.50720E-04
  815.00      3.49080E-04
  817.00      3.46880E-04
  819.00      3.43820E-04
  821.00      3.25440E-04
  823.00      3.21150E-04
  825.00      3.21830E-04
  827.00      3.21130E-04
  829.00      3.19810E-04
  831.00      3.18490E-04
  833.00      3.16430E-04
  835.00      3.15430E-04
  837.00      3.14350E-04
  839.00      3.13140E-04
  841.00      3.12020E-04
  843.00      3.10870E-04
  845.00      3.09690E-04
  847.00      3.08730E-04
  849.00      3.07880E-04
  851.00      3.06550E-04
  853.00      3.06190E-04
  855.00      3.05120E-04
  857.00      3.04490E-04
  859.00      3.03590E-04
  861.00      3.02900E-04
  863.00      3.02930E-04
  865.00      3.01900E-04
  867.00      2.99450E-04
  869.00      3.01200E-04
  871.00      3.01100E-04
  873.00      3.00020E-04
  875.00      2.95580E-04
  877.00      2.98270E-04
  879.00      2.99470E-04
  881.00      2.99360E-04
  883.00      2.98550E-04
  885.00      2.93870E-04
  887.00      2.87960E-04
  889.00      2.94570E-04
  891.00      2.95230E-04
  893.00      2.94350E-04
  895.00      2.93450E-04
  897.00      2.92190E-04
  899.00      2.89110E-04
  901.00      2.77650E-04
  903.00      2.81100E-04
  905.00      2.86410E-04
  907.00      2.86260E-04
  909.00      2.85350E-04
  911.00      2.83940E-04
  913.00      2.83290E-04
  915.00      2.82470E-04
  917.00      2.80570E-04
  919.00      2.78770E-04
  921.00      2.74140E-04
  923.00      2.59440E-04
  925.00      2.70820E-04
  927.00      2.73990E-04
  929.00      2.73710E-04
  931.00      2.72960E-04
  933.00      2.71190E-04
  935.00      2.62390E-04
  937.00      2.68050E-04
  939.00      2.68200E-04
  941.00      2.67240E-04
  943.00      2.66350E-04
  945.00      2.65320E-04
  947.00      2.64220E-04
  949.00      2.62730E-04
  951.00      2.60660E-04
  953.00      2.55100E-04
  955.00      2.40260E-04
  957.00      2.54560E-04
  959.00      2.56900E-04
  961.00      2.56710E-04
  963.00      2.55690E-04
  965.00      2.54940E-04
  967.00      2.53970E-04
  969.00      2.52960E-04
  971.00      2.49940E-04
  973.00      2.50590E-04
  975.00      2.49260E-04
  977.00      2.46950E-04
  979.00      2.47890E-04
  981.00      2.47000E-04
  983.00      2.45820E-04
  985.00      2.45080E-04
  987.00      2.44130E-04
  989.00      2.43170E-04
  991.00      2.42130E-04
  993.00      2.41280E-04
  995.00      2.40350E-04
  997.00      2.39410E-04
  999.00      2.38230E-04
  1002.5      2.31540E-04
  1007.5      2.26890E-04
  1012.5      2.27030E-04
  1017.5      2.30130E-04
  1022.5      2.27970E-04
  1027.5      2.25630E-04
  1032.5      2.23480E-04
  1037.5      2.21610E-04
  1042.5      2.17960E-04
  1047.5      2.17570E-04
  1052.5      2.15550E-04
  1057.5      2.13590E-04
  1062.5      2.11660E-04
  1067.5      2.09730E-04
  1072.5      2.07840E-04
  1077.5      2.05980E-04
  1082.5      2.03690E-04
  1087.5      2.01960E-04
  1092.5      1.91200E-04
  1097.5      1.96200E-04
  1102.5      1.96920E-04
  1107.5      1.95280E-04
  1112.5      1.93580E-04
  1117.5      1.92050E-04
  1122.5      1.90350E-04
  1127.5      1.88680E-04
  1132.5      1.87040E-04
  1137.5      1.85510E-04
  1142.5      1.83940E-04
  1147.5      1.82390E-04
  1152.5      1.80860E-04
  1157.5      1.79210E-04
  1162.5      1.74980E-04
  1167.5      1.74230E-04
  1172.5      1.74820E-04
  1177.5      1.73450E-04
  1182.5      1.71860E-04
  1187.5      1.70580E-04
  1192.5      1.69190E-04
  1197.5      1.67520E-04
  1202.5      1.66490E-04
  1207.5      1.65090E-04
  1212.5      1.63720E-04
  1217.5      1.62500E-04
  1222.5      1.61180E-04
  1227.5      1.59930E-04
  1232.5      1.58650E-04
  1237.5      1.57420E-04
  1242.5      1.56180E-04
  1247.5      1.54960E-04
  1252.5      1.53740E-04
  1257.5      1.52540E-04
  1262.5      1.51380E-04
  1267.5      1.50210E-04
  1272.5      1.49030E-04
  1277.5      1.46910E-04
  1282.5      1.39010E-04
  1287.5      1.45180E-04
  1292.5      1.44580E-04
  1297.5      1.43460E-04
  1302.5      1.42410E-04
  1307.5      1.41350E-04
  1312.5      1.40300E-04
  1317.5      1.39250E-04
  1322.5      1.38230E-04
  1327.5      1.37210E-04
  1332.5      1.36200E-04
  1337.5      1.35200E-04
  1342.5      1.34210E-04
  1347.5      1.33240E-04
  1352.5      1.32280E-04
  1357.5      1.31330E-04
  1362.5      1.30380E-04
  1367.5      1.29450E-04
  1372.5      1.28520E-04
  1377.5      1.27610E-04
  1382.5      1.26710E-04
  1387.5      1.25810E-04
  1392.5      1.24930E-04
  1397.5      1.24060E-04
