 Castelli and Kurucz 2004-2012 Atmosphere
 T     42000.     G    5.00000 [+0.5] N(He)/Ntot=0.07813 VTURB=2.0  L/H=1.25 NO
 Wavelength  Eddington Hnu
   (nm)    (ergs/s/cm2/Hz/sr)
  9.0900      9.80710E-24
  9.3500      3.45450E-23
  9.6100      1.12200E-22
  9.7700      2.30230E-22
  9.9600      5.16450E-22
  10.200      1.37550E-21
  10.380      2.78960E-21
  10.560      5.52810E-21
  10.770      1.19420E-20
  11.040      3.08410E-20
  11.400      1.02170E-19
  11.780      3.34960E-19
  12.130      9.42440E-19
  12.480      2.50070E-18
  12.710      4.61920E-18
  12.840      6.47070E-18
  13.050      1.09760E-17
  13.240      1.74780E-17
  13.390      2.51010E-17
  13.660      4.67450E-17
  13.980      9.65220E-17
  14.330      2.02820E-16
  14.720      4.36100E-16
  15.100      9.39860E-16
  15.520      2.03580E-15
  15.880      3.83480E-15
  16.200      6.61650E-15
  16.600      1.28280E-14
  17.030      2.46960E-14
  17.340      3.91140E-14
  17.680      6.48890E-14
  18.020      1.04150E-13
  18.170      1.26730E-13
  18.610      2.30020E-13
  19.100      4.27540E-13
  19.390      6.15700E-13
  19.840      1.04650E-12
  20.180      1.51360E-12
  20.500      2.17140E-12
  21.050      3.87660E-12
  21.620      6.77720E-12
  21.980      9.70560E-12
  22.300      1.29950E-11
  22.680      1.90070E-11
  23.000      5.12200E-09
  23.400      1.38950E-08
  24.000      1.95820E-08
  24.650      2.89700E-08
  25.240      5.18790E-08
  25.680      7.83980E-08
  26.000      9.49350E-08
  26.400      2.37750E-07
  26.850      3.51170E-07
  27.350      4.45090E-07
  27.850      3.95280E-07
  28.400      8.61870E-07
  29.000      1.26890E-06
  29.600      1.26310E-06
  30.100      3.10670E-06
  30.800      1.70120E-05
  31.800      5.62680E-06
  32.800      1.02650E-05
  33.800      1.10540E-05
  34.800      1.40880E-05
  35.700      3.75470E-05
  36.600      9.47590E-05
  37.500      1.43280E-04
  38.500      1.42640E-04
  39.500      2.83340E-04
  40.500      5.31120E-04
  41.400      4.75380E-04
  42.200      4.69580E-04
  43.000      4.49970E-04
  44.100      5.73430E-04
  45.100      6.20480E-04
  46.000      4.86820E-04
  47.000      5.81500E-04
  48.000      7.32260E-04
  49.000      4.98670E-04
  50.000      8.13390E-04
  50.600      6.04550E-04
  51.200      1.14140E-03
  52.000      1.07580E-03
  53.000      9.94290E-04
  54.000      8.52900E-04
  55.000      7.68820E-04
  56.000      1.11550E-03
  57.000      1.39460E-03
  58.000      1.38380E-03
  59.000      1.42710E-03
  60.000      1.08490E-03
  61.000      1.08960E-03
  62.000      1.51160E-03
  63.000      1.41870E-03
  64.000      1.64480E-03
  65.000      1.54250E-03
  65.800      1.27890E-03
  66.500      1.63820E-03
  67.500      1.81540E-03
  68.500      1.48290E-03
  69.500      1.83710E-03
  70.500      1.46120E-03
  71.600      1.94540E-03
  72.600      1.99430E-03
  73.500      2.03170E-03
  74.500      1.89480E-03
  75.500      1.90510E-03
  76.500      1.73320E-03
  77.500      1.94540E-03
  78.500      1.72940E-03
  79.500      1.98060E-03
  80.500      2.00870E-03
  81.500      2.03370E-03
  82.500      2.09690E-03
  83.500      1.75140E-03
  84.500      2.06150E-03
  85.500      1.98010E-03
  86.500      2.12410E-03
  87.500      2.14970E-03
  88.500      2.13890E-03
  89.500      2.14200E-03
  90.500      2.09810E-03
  91.500      1.60350E-03
  92.500      2.60770E-03
  93.500      3.66550E-03
  94.500      4.34900E-03
  95.500      4.97880E-03
  96.500      5.60030E-03
  97.500      3.78630E-03
  98.500      4.95790E-03
  99.500      4.34530E-03
  100.50      4.41990E-03
  101.50      4.73250E-03
  102.50      4.23350E-03
  103.50      5.06520E-03
  104.50      5.48920E-03
  105.50      5.35340E-03
  106.50      4.96640E-03
  107.50      5.16730E-03
  108.50      4.69610E-03
  109.50      5.08060E-03
  110.50      4.95690E-03
  111.50      4.98670E-03
  112.50      4.66980E-03
  113.50      4.98230E-03
  114.50      5.05390E-03
  115.50      4.69600E-03
  116.50      4.43650E-03
  117.50      3.72570E-03
  118.50      4.36300E-03
  119.50      4.15230E-03
  120.50      4.13300E-03
  121.50      3.46410E-03
  122.50      3.99030E-03
  123.50      4.09950E-03
  124.50      4.04280E-03
  125.50      4.14320E-03
  126.50      4.27570E-03
  127.50      4.43720E-03
  128.50      4.45980E-03
  129.50      4.44010E-03
  130.50      4.34640E-03
  131.50      4.45740E-03
  132.50      4.42600E-03
  133.50      4.37340E-03
  134.50      4.36410E-03
  135.50      4.23710E-03
  136.50      4.12940E-03
  137.50      3.98960E-03
  138.50      4.00610E-03
  139.50      3.80610E-03
  140.50      3.65640E-03
  141.50      4.14180E-03
  142.50      3.75790E-03
  143.50      4.03950E-03
  144.20      3.85520E-03
  144.70      3.89360E-03
  145.50      3.77440E-03
  146.50      3.79050E-03
  147.50      3.82830E-03
  148.50      3.90620E-03
  149.50      3.81140E-03
  150.50      3.81420E-03
  151.20      3.81550E-03
  151.70      3.78400E-03
  152.50      3.75340E-03
  153.50      3.40630E-03
  154.50      2.74730E-03
  155.50      2.87260E-03
  156.50      3.29260E-03
  157.50      3.43910E-03
  158.50      3.41970E-03
  159.50      3.50650E-03
  160.50      3.33750E-03
  161.50      3.24550E-03
  162.50      3.35600E-03
  163.50      3.36760E-03
  164.50      3.31500E-03
  165.50      3.41200E-03
  166.50      3.36500E-03
  167.20      3.17570E-03
  167.70      3.59220E-03
  168.50      3.51380E-03
  169.50      3.48140E-03
  170.50      3.42210E-03
  171.50      3.27890E-03
  172.50      3.23590E-03
  173.50      3.37660E-03
  174.50      3.38320E-03
  175.50      3.34080E-03
  176.50      3.30600E-03
  177.50      3.23250E-03
  178.50      3.30480E-03
  179.50      3.22540E-03
  180.50      3.20970E-03
  181.50      3.17990E-03
  182.50      3.13080E-03
  183.50      3.15180E-03
  184.50      3.16000E-03
  185.50      3.17190E-03
  186.50      3.18010E-03
  187.50      3.10260E-03
  188.50      3.06590E-03
  189.50      3.12710E-03
  190.50      3.12070E-03
  191.50      3.09920E-03
  192.50      2.95240E-03
  193.50      3.09190E-03
  194.50      3.09110E-03
  195.50      2.93990E-03
  196.70      3.01910E-03
  197.60      3.00680E-03
  198.40      3.01940E-03
  199.50      2.98190E-03
  200.50      3.00660E-03
  201.50      2.98410E-03
  202.50      2.97120E-03
  203.50      2.92530E-03
  204.50      2.89260E-03
  205.50      2.12650E-03
  206.50      2.04210E-03
  207.40      2.09910E-03
  207.80      2.14120E-03
  208.50      2.29030E-03
  209.50      2.56960E-03
  210.50      2.73740E-03
  211.50      2.79670E-03
  212.50      2.74900E-03
  213.50      2.76160E-03
  214.50      2.73910E-03
  215.50      2.74670E-03
  216.50      2.59140E-03
  217.50      2.74140E-03
  218.50      2.61560E-03
  219.50      2.73230E-03
  220.50      2.71210E-03
  221.50      2.56480E-03
  222.50      2.67560E-03
  223.50      2.66260E-03
  224.50      2.62720E-03
  225.50      2.51350E-03
  226.50      2.60200E-03
  227.50      2.60870E-03
  228.50      2.54430E-03
  229.50      2.45640E-03
  230.50      2.42710E-03
  231.50      2.47850E-03
  232.50      2.50300E-03
  233.50      2.48980E-03
  234.50      2.44990E-03
  235.50      2.40530E-03
  236.50      2.38000E-03
  237.50      2.33390E-03
  238.50      2.20730E-03
  239.50      2.29390E-03
  240.50      2.29480E-03
  241.50      2.30090E-03
  242.50      2.32050E-03
  243.50      2.29490E-03
  244.50      2.28440E-03
  245.50      2.25840E-03
  246.50      2.25550E-03
  247.50      2.26280E-03
  248.50      2.21220E-03
  249.50      1.87110E-03
  250.50      2.16990E-03
  251.30      2.02040E-03
  251.80      2.11550E-03
  252.50      2.14820E-03
  253.50      2.17020E-03
  254.50      2.16290E-03
  255.50      2.14470E-03
  256.50      2.13350E-03
  257.50      2.11780E-03
  258.50      2.10820E-03
  259.50      2.05220E-03
  260.50      2.08600E-03
  261.50      2.04580E-03
  262.50      2.06390E-03
  263.50      2.05930E-03
  264.50      2.02960E-03
  265.50      2.03140E-03
  266.50      2.01360E-03
  267.50      1.96250E-03
  268.50      1.98370E-03
  269.50      1.96400E-03
  270.50      1.97900E-03
  271.50      1.95720E-03
  272.50      1.94610E-03
  273.50      1.86960E-03
  274.50      1.93480E-03
  275.50      1.91600E-03
  276.50      1.90570E-03
  277.50      1.89560E-03
  278.50      1.86580E-03
  279.50      1.83770E-03
  280.50      1.85310E-03
  281.50      1.84880E-03
  282.50      1.83370E-03
  283.50      1.82880E-03
  284.50      1.82650E-03
  285.50      1.81280E-03
  286.50      1.78370E-03
  287.50      1.77680E-03
  288.50      1.77790E-03
  289.50      1.76440E-03
  291.00      1.74770E-03
  293.00      1.73960E-03
  295.00      1.71920E-03
  297.00      1.69380E-03
  299.00      1.66170E-03
  301.00      1.64230E-03
  303.00      1.61170E-03
  305.00      1.60930E-03
  307.00      1.58730E-03
  309.00      1.58280E-03
  311.00      1.57190E-03
  313.00      1.55240E-03
  315.00      1.54520E-03
  317.00      1.52520E-03
  319.00      1.51450E-03
  321.00      1.46490E-03
  323.00      1.48300E-03
  325.00      1.47200E-03
  327.00      1.43810E-03
  329.00      1.43630E-03
  331.00      1.41880E-03
  333.00      1.40290E-03
  335.00      1.37450E-03
  337.00      1.37070E-03
  339.00      1.36180E-03
  341.00      1.34760E-03
  343.00      1.34380E-03
  345.00      1.31620E-03
  347.00      1.31530E-03
  349.00      1.30510E-03
  351.00      1.29580E-03
  353.00      1.27880E-03
  355.00      1.26730E-03
  357.00      1.25680E-03
  359.00      1.24510E-03
  361.00      1.22820E-03
  363.00      1.21800E-03
  364.00      1.19100E-03
  365.00      1.07260E-03
  367.00      1.06480E-03
  369.00      1.05610E-03
  371.00      1.04480E-03
  373.00      1.05820E-03
  375.00      1.07070E-03
  377.00      1.08030E-03
  379.00      1.11330E-03
  381.00      1.13860E-03
  383.00      1.07850E-03
  385.00      1.14420E-03
  387.00      1.13550E-03
  389.00      1.03220E-03
  391.00      1.14010E-03
  393.00      1.12090E-03
  395.00      1.10670E-03
  397.00      9.86880E-04
  399.00      1.09940E-03
  401.00      1.09240E-03
  403.00      1.06210E-03
  405.00      1.07860E-03
  407.00      1.05890E-03
  409.00      1.01000E-03
  411.00      9.50490E-04
  413.00      1.03140E-03
  415.00      1.02760E-03
  417.00      1.02600E-03
  419.00      1.01120E-03
  421.00      9.89760E-04
  423.00      1.00400E-03
  425.00      9.92430E-04
  427.00      9.84430E-04
  429.00      9.75570E-04
  431.00      9.60580E-04
  433.00      9.12090E-04
  435.00      8.71080E-04
  437.00      9.37480E-04
  439.00      9.23310E-04
  441.00      9.16600E-04
  443.00      9.17800E-04
  445.00      9.08520E-04
  447.00      8.95170E-04
  449.00      8.97510E-04
  451.00      8.80350E-04
  453.00      8.74110E-04
  455.00      8.50020E-04
  457.00      8.66280E-04
  459.00      8.57130E-04
  461.00      8.54410E-04
  463.00      8.40770E-04
  465.00      8.09760E-04
  467.00      8.30640E-04
  469.00      8.00930E-04
  471.00      8.23170E-04
  473.00      8.24620E-04
  475.00      8.19030E-04
  477.00      8.12780E-04
  479.00      8.05630E-04
  481.00      7.99760E-04
  483.00      7.91360E-04
  485.00      7.60510E-04
  487.00      7.09780E-04
  489.00      7.71630E-04
  491.00      7.68150E-04
  493.00      7.59600E-04
  495.00      7.58300E-04
  497.00      7.54690E-04
  499.00      7.49760E-04
  501.00      7.38070E-04
  503.00      7.35990E-04
  505.00      7.31160E-04
  507.00      7.27790E-04
  509.00      7.22910E-04
  511.00      7.17640E-04
  513.00      7.12080E-04
  515.00      7.07120E-04
  517.00      7.02400E-04
  519.00      6.97560E-04
  521.00      6.92530E-04
  523.00      6.88400E-04
  525.00      6.80980E-04
  527.00      6.76060E-04
  529.00      6.74180E-04
  531.00      6.69350E-04
  533.00      6.64670E-04
  535.00      6.60490E-04
  537.00      6.55810E-04
  539.00      6.51210E-04
  541.00      6.30230E-04
  543.00      6.42400E-04
  545.00      6.38490E-04
  547.00      6.33880E-04
  549.00      6.29930E-04
  551.00      6.24570E-04
  553.00      6.21600E-04
  555.00      6.17600E-04
  557.00      6.12650E-04
  559.00      6.06400E-04
  561.00      6.05580E-04
  563.00      6.01560E-04
  565.00      5.97600E-04
  567.00      5.93650E-04
  569.00      5.78540E-04
  571.00      5.42390E-04
  573.00      5.39210E-04
  575.00      5.35800E-04
  577.00      5.33090E-04
  579.00      5.30070E-04
  581.00      5.23400E-04
  583.00      5.24310E-04
  585.00      5.24000E-04
  587.00      5.17550E-04
  589.00      5.22330E-04
  591.00      5.22320E-04
  593.00      5.22520E-04
  595.00      5.23310E-04
  597.00      5.24500E-04
  599.00      5.25820E-04
  601.00      5.26090E-04
  603.00      5.25630E-04
  605.00      5.25300E-04
  607.00      5.22580E-04
  609.00      5.20010E-04
  611.00      5.16590E-04
  613.00      5.13960E-04
  615.00      5.11010E-04
  617.00      5.07190E-04
  619.00      5.05800E-04
  621.00      5.03230E-04
  623.00      4.98300E-04
  625.00      4.96500E-04
  627.00      4.94370E-04
  629.00      4.91300E-04
  631.00      4.85730E-04
  633.00      4.85370E-04
  635.00      4.82690E-04
  637.00      4.80230E-04
  639.00      4.76770E-04
  641.00      4.71040E-04
  643.00      4.71760E-04
  645.00      4.68470E-04
  647.00      4.65600E-04
  649.00      4.63390E-04
  651.00      4.59280E-04
  653.00      4.52700E-04
  655.00      4.45790E-04
  657.00      4.11860E-04
  659.00      4.48360E-04
  661.00      4.48070E-04
  663.00      4.45850E-04
  665.00      4.43310E-04
  667.00      4.36610E-04
  669.00      4.30400E-04
  671.00      4.34490E-04
  673.00      4.32430E-04
  675.00      4.30090E-04
  677.00      4.28490E-04
  679.00      4.26430E-04
  681.00      4.24130E-04
  683.00      4.21810E-04
  685.00      4.19320E-04
  687.00      4.16610E-04
  689.00      4.07830E-04
  691.00      4.11820E-04
  693.00      4.10540E-04
  695.00      4.08240E-04
  697.00      4.06150E-04
  699.00      4.03850E-04
  701.00      4.01260E-04
  703.00      3.98370E-04
  705.00      3.96770E-04
  707.00      3.92370E-04
  709.00      3.93340E-04
  711.00      3.91000E-04
  713.00      3.88930E-04
  715.00      3.87210E-04
  717.00      3.80250E-04
  719.00      3.79960E-04
  721.00      3.81170E-04
  723.00      3.78970E-04
  725.00      3.77200E-04
  727.00      3.75290E-04
  729.00      3.72370E-04
  731.00      3.70900E-04
  733.00      3.69510E-04
  735.00      3.67660E-04
  737.00      3.65470E-04
  739.00      3.63720E-04
  741.00      3.61780E-04
  743.00      3.60280E-04
  745.00      3.57750E-04
  747.00      3.56290E-04
  749.00      3.53000E-04
  751.00      3.52670E-04
  753.00      3.51050E-04
  755.00      3.49270E-04
  757.00      3.47210E-04
  759.00      3.38410E-04
  761.00      3.42910E-04
  763.00      3.42250E-04
  765.00      3.40690E-04
  767.00      3.38980E-04
  769.00      3.36290E-04
  771.00      3.35230E-04
  773.00      3.32740E-04
  775.00      3.31990E-04
  777.00      3.31110E-04
  779.00      3.29100E-04
  781.00      3.27890E-04
  783.00      3.26210E-04
  785.00      3.23310E-04
  787.00      3.22600E-04
  789.00      3.21400E-04
  791.00      3.20160E-04
  793.00      3.18710E-04
  795.00      3.17170E-04
  797.00      3.15090E-04
  799.00      3.14140E-04
  801.00      3.12710E-04
  803.00      3.10770E-04
  805.00      3.09820E-04
  807.00      3.08350E-04
  809.00      3.06930E-04
  811.00      3.05390E-04
  813.00      3.04080E-04
  815.00      3.02640E-04
  817.00      3.00780E-04
  819.00      2.98290E-04
  821.00      2.84870E-04
  823.00      2.81220E-04
  825.00      2.81700E-04
  827.00      2.80960E-04
  829.00      2.79970E-04
  831.00      2.78910E-04
  833.00      2.76840E-04
  835.00      2.75740E-04
  837.00      2.75110E-04
  839.00      2.74240E-04
  841.00      2.73130E-04
  843.00      2.72100E-04
  845.00      2.70870E-04
  847.00      2.70080E-04
  849.00      2.69200E-04
  851.00      2.67590E-04
  853.00      2.67540E-04
  855.00      2.66560E-04
  857.00      2.65920E-04
  859.00      2.64660E-04
  861.00      2.64240E-04
  863.00      2.64380E-04
  865.00      2.63030E-04
  867.00      2.60540E-04
  869.00      2.62490E-04
  871.00      2.62420E-04
  873.00      2.60860E-04
  875.00      2.56130E-04
  877.00      2.58900E-04
  879.00      2.60540E-04
  881.00      2.60440E-04
  883.00      2.59380E-04
  885.00      2.54210E-04
  887.00      2.48420E-04
  889.00      2.55730E-04
  891.00      2.56700E-04
  893.00      2.56010E-04
  895.00      2.55260E-04
  897.00      2.54120E-04
  899.00      2.50740E-04
  901.00      2.38990E-04
  903.00      2.42790E-04
  905.00      2.48860E-04
  907.00      2.48590E-04
  909.00      2.48250E-04
  911.00      2.47360E-04
  913.00      2.46680E-04
  915.00      2.45850E-04
  917.00      2.44100E-04
  919.00      2.42470E-04
  921.00      2.37140E-04
  923.00      2.22870E-04
  925.00      2.34460E-04
  927.00      2.38260E-04
  929.00      2.38170E-04
  931.00      2.37450E-04
  933.00      2.36190E-04
  935.00      2.29260E-04
  937.00      2.33660E-04
  939.00      2.33710E-04
  941.00      2.32590E-04
  943.00      2.31910E-04
  945.00      2.31140E-04
  947.00      2.29910E-04
  949.00      2.28690E-04
  951.00      2.26270E-04
  953.00      2.20490E-04
  955.00      2.06420E-04
  957.00      2.20650E-04
  959.00      2.23530E-04
  961.00      2.23330E-04
  963.00      2.22420E-04
  965.00      2.22140E-04
  967.00      2.21380E-04
  969.00      2.20470E-04
  971.00      2.15970E-04
  973.00      2.18090E-04
  975.00      2.17430E-04
  977.00      2.15730E-04
  979.00      2.16110E-04
  981.00      2.15310E-04
  983.00      2.14300E-04
  985.00      2.13630E-04
  987.00      2.12830E-04
  989.00      2.11910E-04
  991.00      2.10970E-04
  993.00      2.10370E-04
  995.00      2.09570E-04
  997.00      2.08720E-04
  999.00      2.07490E-04
  1002.5      2.00670E-04
  1007.5      1.96550E-04
  1012.5      1.98130E-04
  1017.5      2.00720E-04
  1022.5      1.98800E-04
  1027.5      1.96800E-04
  1032.5      1.94710E-04
  1037.5      1.93330E-04
  1042.5      1.90500E-04
  1047.5      1.89830E-04
  1052.5      1.88060E-04
  1057.5      1.86360E-04
  1062.5      1.84680E-04
  1067.5      1.82970E-04
  1072.5      1.81380E-04
  1077.5      1.79750E-04
  1082.5      1.77230E-04
  1087.5      1.76080E-04
  1092.5      1.65400E-04
  1097.5      1.70560E-04
  1102.5      1.71690E-04
  1107.5      1.70450E-04
  1112.5      1.68990E-04
  1117.5      1.67650E-04
  1122.5      1.66150E-04
  1127.5      1.64720E-04
  1132.5      1.63280E-04
  1137.5      1.61940E-04
  1142.5      1.60610E-04
  1147.5      1.59260E-04
  1152.5      1.57940E-04
  1157.5      1.56460E-04
  1162.5      1.53120E-04
  1167.5      1.52460E-04
  1172.5      1.52700E-04
  1177.5      1.51510E-04
  1182.5      1.50090E-04
  1187.5      1.49000E-04
  1192.5      1.47790E-04
  1197.5      1.45800E-04
  1202.5      1.45460E-04
  1207.5      1.44230E-04
  1212.5      1.43010E-04
  1217.5      1.41990E-04
  1222.5      1.40850E-04
  1227.5      1.39770E-04
  1232.5      1.38650E-04
  1237.5      1.37580E-04
  1242.5      1.36510E-04
  1247.5      1.35440E-04
  1252.5      1.34300E-04
  1257.5      1.33310E-04
  1262.5      1.32320E-04
  1267.5      1.31320E-04
  1272.5      1.30260E-04
  1277.5      1.27870E-04
  1282.5      1.20630E-04
  1287.5      1.26740E-04
  1292.5      1.26420E-04
  1297.5      1.25280E-04
  1302.5      1.24510E-04
  1307.5      1.23620E-04
  1312.5      1.22700E-04
  1317.5      1.21790E-04
  1322.5      1.20900E-04
  1327.5      1.20010E-04
  1332.5      1.19130E-04
  1337.5      1.18260E-04
  1342.5      1.17380E-04
  1347.5      1.16550E-04
  1352.5      1.15710E-04
  1357.5      1.14890E-04
  1362.5      1.14060E-04
  1367.5      1.13260E-04
  1372.5      1.12410E-04
  1377.5      1.11660E-04
  1382.5      1.10870E-04
  1387.5      1.10090E-04
  1392.5      1.09310E-04
  1397.5      1.08560E-04
