 Castelli and Kurucz 2004-2012 Atmosphere
 T     34000.     G    4.50000 [+0.5] N(He)/Ntot=0.07813 VTURB=2.0  L/H=1.25 NO
 Wavelength  Eddington Hnu
   (nm)    (ergs/s/cm2/Hz/sr)
  9.0900      8.48900E-31
  9.3500      4.40210E-30
  9.6100      2.09900E-29
  9.7700      5.31470E-29
  9.9600      1.54120E-28
  10.200      5.61820E-28
  10.380      1.43260E-27
  10.560      3.54890E-27
  10.770      9.87610E-27
  11.040      3.49920E-26
  11.400      1.73740E-25
  11.780      8.58120E-25
  12.130      3.44900E-24
  12.480      1.29020E-23
  12.710      2.96130E-23
  12.840      4.67850E-23
  13.050      9.61000E-23
  13.240      1.81370E-22
  13.390      2.95760E-22
  13.660      6.95540E-22
  13.980      1.84360E-21
  14.330      5.10410E-21
  14.720      1.50010E-20
  15.100      4.09990E-20
  15.520      1.17480E-19
  15.880      2.77700E-19
  16.200      5.77470E-19
  16.600      1.39300E-18
  17.030      3.41040E-18
  17.340      6.37660E-18
  17.680      1.24180E-17
  18.020      2.33760E-17
  18.170      3.10530E-17
  18.610      6.72660E-17
  19.100      1.53070E-16
  19.390      2.43750E-16
  19.840      4.92610E-16
  20.180      8.15800E-16
  20.500      1.29250E-15
  21.050      2.76760E-15
  21.620      5.78720E-15
  21.980      9.19330E-15
  22.300      1.35900E-14
  22.680      2.21970E-14
  23.000      4.59620E-12
  23.400      9.72280E-12
  24.000      1.56330E-11
  24.650      2.65370E-11
  25.240      4.44550E-11
  25.680      6.52190E-11
  26.000      1.17240E-10
  26.400      2.27830E-10
  26.850      3.52950E-10
  27.350      4.83570E-10
  27.850      5.92260E-10
  28.400      1.27390E-09
  29.000      1.86210E-09
  29.600      2.45870E-09
  30.100      5.37470E-09
  30.800      1.30650E-08
  31.800      2.91020E-08
  32.800      4.28040E-08
  33.800      8.37940E-08
  34.800      1.35080E-07
  35.700      2.93790E-07
  36.600      6.84970E-07
  37.500      8.04770E-07
  38.500      1.18340E-06
  39.500      2.54600E-06
  40.500      3.34970E-06
  41.400      4.25950E-06
  42.200      5.15770E-06
  43.000      5.71580E-06
  44.100      7.25700E-06
  45.100      7.88410E-06
  46.000      7.82150E-06
  47.000      9.68350E-06
  48.000      1.19120E-05
  49.000      1.19820E-05
  50.000      1.53180E-05
  50.600      1.89870E-05
  51.200      1.20530E-04
  52.000      1.16780E-04
  53.000      1.08170E-04
  54.000      1.00930E-04
  55.000      1.17390E-04
  56.000      1.68510E-04
  57.000      1.94650E-04
  58.000      1.86640E-04
  59.000      2.00370E-04
  60.000      1.45530E-04
  61.000      1.92510E-04
  62.000      2.52460E-04
  63.000      2.46980E-04
  64.000      2.57470E-04
  65.000      2.49990E-04
  65.800      1.93270E-04
  66.500      2.57270E-04
  67.500      3.11820E-04
  68.500      2.28810E-04
  69.500      3.37810E-04
  70.500      2.50770E-04
  71.600      3.86410E-04
  72.600      3.85440E-04
  73.500      3.92890E-04
  74.500      3.64380E-04
  75.500      3.76300E-04
  76.500      3.82770E-04
  77.500      4.16770E-04
  78.500      4.28930E-04
  79.500      4.53910E-04
  80.500      4.33120E-04
  81.500      4.37170E-04
  82.500      4.80410E-04
  83.500      3.71770E-04
  84.500      4.68160E-04
  85.500      4.67690E-04
  86.500      4.96890E-04
  87.500      5.08540E-04
  88.500      5.27240E-04
  89.500      5.38130E-04
  90.500      5.26870E-04
  91.500      5.25350E-04
  92.500      1.23450E-03
  93.500      1.94140E-03
  94.500      2.45360E-03
  95.500      2.70950E-03
  96.500      3.08660E-03
  97.500      1.29240E-03
  98.500      2.48650E-03
  99.500      2.26300E-03
  100.50      2.40380E-03
  101.50      2.63910E-03
  102.50      2.22500E-03
  103.50      2.69380E-03
  104.50      3.17050E-03
  105.50      3.02670E-03
  106.50      2.63160E-03
  107.50      2.78400E-03
  108.50      2.58200E-03
  109.50      2.79050E-03
  110.50      2.71140E-03
  111.50      2.72370E-03
  112.50      2.22210E-03
  113.50      2.67250E-03
  114.50      2.66590E-03
  115.50      2.52360E-03
  116.50      2.45540E-03
  117.50      1.60060E-03
  118.50      2.30270E-03
  119.50      2.26630E-03
  120.50      2.21110E-03
  121.50      1.82860E-03
  122.50      2.20320E-03
  123.50      2.39840E-03
  124.50      2.33130E-03
  125.50      2.35600E-03
  126.50      2.47990E-03
  127.50      2.62870E-03
  128.50      2.67540E-03
  129.50      2.52850E-03
  130.50      2.54350E-03
  131.50      2.75130E-03
  132.50      2.69550E-03
  133.50      2.64020E-03
  134.50      2.67220E-03
  135.50      2.63350E-03
  136.50      2.57400E-03
  137.50      2.50740E-03
  138.50      2.45210E-03
  139.50      1.96330E-03
  140.50      2.02520E-03
  141.50      2.45570E-03
  142.50      2.20430E-03
  143.50      2.41650E-03
  144.20      2.37640E-03
  144.70      2.38660E-03
  145.50      2.28130E-03
  146.50      2.24250E-03
  147.50      2.31310E-03
  148.50      2.34700E-03
  149.50      2.28980E-03
  150.50      2.23170E-03
  151.20      2.20290E-03
  151.70      2.24410E-03
  152.50      2.17240E-03
  153.50      1.88570E-03
  154.50      1.54250E-03
  155.50      1.58710E-03
  156.50      1.87200E-03
  157.50      2.00020E-03
  158.50      2.04270E-03
  159.50      2.06310E-03
  160.50      1.98190E-03
  161.50      1.89820E-03
  162.50      1.98380E-03
  163.50      2.03130E-03
  164.50      2.06270E-03
  165.50      2.06980E-03
  166.50      2.06580E-03
  167.20      1.89470E-03
  167.70      2.29130E-03
  168.50      2.18020E-03
  169.50      2.12430E-03
  170.50      2.12780E-03
  171.50      2.02340E-03
  172.50      1.96320E-03
  173.50      2.06320E-03
  174.50      2.07210E-03
  175.50      2.06550E-03
  176.50      2.05710E-03
  177.50      1.98680E-03
  178.50      2.05370E-03
  179.50      2.02180E-03
  180.50      2.02990E-03
  181.50      1.98930E-03
  182.50      1.97220E-03
  183.50      1.99110E-03
  184.50      1.91450E-03
  185.50      1.97960E-03
  186.50      2.00110E-03
  187.50      1.96660E-03
  188.50      1.88070E-03
  189.50      1.86870E-03
  190.50      1.93650E-03
  191.50      1.90150E-03
  192.50      1.78550E-03
  193.50      1.93390E-03
  194.50      1.97280E-03
  195.50      1.78710E-03
  196.70      1.91110E-03
  197.60      1.97110E-03
  198.40      1.91820E-03
  199.50      1.88850E-03
  200.50      1.94530E-03
  201.50      1.95420E-03
  202.50      1.97310E-03
  203.50      1.89670E-03
  204.50      1.89080E-03
  205.50      1.52240E-03
  206.50      1.48010E-03
  207.40      1.55460E-03
  207.80      1.53930E-03
  208.50      1.64120E-03
  209.50      1.75040E-03
  210.50      1.83810E-03
  211.50      1.87700E-03
  212.50      1.85600E-03
  213.50      1.85680E-03
  214.50      1.83490E-03
  215.50      1.85670E-03
  216.50      1.78160E-03
  217.50      1.84500E-03
  218.50      1.79590E-03
  219.50      1.85680E-03
  220.50      1.84320E-03
  221.50      1.77910E-03
  222.50      1.81330E-03
  223.50      1.79880E-03
  224.50      1.78170E-03
  225.50      1.73720E-03
  226.50      1.77050E-03
  227.50      1.77230E-03
  228.50      1.73100E-03
  229.50      1.54560E-03
  230.50      1.67390E-03
  231.50      1.68460E-03
  232.50      1.70060E-03
  233.50      1.68550E-03
  234.50      1.67490E-03
  235.50      1.64450E-03
  236.50      1.62800E-03
  237.50      1.59780E-03
  238.50      1.53950E-03
  239.50      1.56940E-03
  240.50      1.58220E-03
  241.50      1.58040E-03
  242.50      1.58860E-03
  243.50      1.57070E-03
  244.50      1.56720E-03
  245.50      1.55820E-03
  246.50      1.55000E-03
  247.50      1.54280E-03
  248.50      1.49420E-03
  249.50      1.10730E-03
  250.50      1.44300E-03
  251.30      1.40920E-03
  251.80      1.44510E-03
  252.50      1.49110E-03
  253.50      1.49640E-03
  254.50      1.47520E-03
  255.50      1.46940E-03
  256.50      1.46220E-03
  257.50      1.45630E-03
  258.50      1.45090E-03
  259.50      1.43200E-03
  260.50      1.44020E-03
  261.50      1.41600E-03
  262.50      1.42270E-03
  263.50      1.42100E-03
  264.50      1.40310E-03
  265.50      1.40120E-03
  266.50      1.37490E-03
  267.50      1.34660E-03
  268.50      1.37220E-03
  269.50      1.34660E-03
  270.50      1.34550E-03
  271.50      1.33590E-03
  272.50      1.33780E-03
  273.50      1.31020E-03
  274.50      1.33080E-03
  275.50      1.32280E-03
  276.50      1.31070E-03
  277.50      1.31880E-03
  278.50      1.30080E-03
  279.50      1.26220E-03
  280.50      1.28250E-03
  281.50      1.28850E-03
  282.50      1.28020E-03
  283.50      1.25990E-03
  284.50      1.26980E-03
  285.50      1.25840E-03
  286.50      1.24330E-03
  287.50      1.24020E-03
  288.50      1.23590E-03
  289.50      1.22940E-03
  291.00      1.21020E-03
  293.00      1.21320E-03
  295.00      1.19400E-03
  297.00      1.18180E-03
  299.00      1.15850E-03
  301.00      1.13770E-03
  303.00      1.12370E-03
  305.00      1.12610E-03
  307.00      1.12110E-03
  309.00      1.10110E-03
  311.00      1.10500E-03
  313.00      1.08760E-03
  315.00      1.08400E-03
  317.00      1.06870E-03
  319.00      1.06270E-03
  321.00      1.04250E-03
  323.00      1.03840E-03
  325.00      1.03590E-03
  327.00      1.01400E-03
  329.00      1.01150E-03
  331.00      9.99630E-04
  333.00      9.87230E-04
  335.00      9.71890E-04
  337.00      9.65770E-04
  339.00      9.66560E-04
  341.00      9.56120E-04
  343.00      9.51600E-04
  345.00      9.35020E-04
  347.00      9.31470E-04
  349.00      9.23470E-04
  351.00      9.15900E-04
  353.00      9.09760E-04
  355.00      9.00300E-04
  357.00      8.93290E-04
  359.00      8.81420E-04
  361.00      8.71580E-04
  363.00      8.66110E-04
  364.00      8.59100E-04
  365.00      8.15090E-04
  367.00      8.10640E-04
  369.00      8.03740E-04
  371.00      7.84750E-04
  373.00      7.83830E-04
  375.00      7.90400E-04
  377.00      7.83660E-04
  379.00      8.16310E-04
  381.00      8.39460E-04
  383.00      7.72710E-04
  385.00      8.50800E-04
  387.00      8.32700E-04
  389.00      7.46690E-04
  391.00      8.52610E-04
  393.00      8.33110E-04
  395.00      8.19610E-04
  397.00      7.15260E-04
  399.00      8.19540E-04
  401.00      8.13830E-04
  403.00      7.89910E-04
  405.00      8.02470E-04
  407.00      7.76130E-04
  409.00      7.39850E-04
  411.00      6.90340E-04
  413.00      7.62100E-04
  415.00      7.60000E-04
  417.00      7.64390E-04
  419.00      7.57450E-04
  421.00      7.48330E-04
  423.00      7.49320E-04
  425.00      7.34490E-04
  427.00      7.25650E-04
  429.00      7.18900E-04
  431.00      7.04070E-04
  433.00      6.69560E-04
  435.00      6.33530E-04
  437.00      6.91440E-04
  439.00      6.84930E-04
  441.00      6.82330E-04
  443.00      6.85590E-04
  445.00      6.78300E-04
  447.00      6.63420E-04
  449.00      6.71020E-04
  451.00      6.58440E-04
  453.00      6.58160E-04
  455.00      6.47960E-04
  457.00      6.52250E-04
  459.00      6.44300E-04
  461.00      6.38180E-04
  463.00      6.28180E-04
  465.00      5.98850E-04
  467.00      6.20910E-04
  469.00      6.13120E-04
  471.00      6.11290E-04
  473.00      6.20170E-04
  475.00      6.14950E-04
  477.00      6.14290E-04
  479.00      6.09290E-04
  481.00      6.02820E-04
  483.00      5.95650E-04
  485.00      5.71320E-04
  487.00      5.24950E-04
  489.00      5.82070E-04
  491.00      5.79390E-04
  493.00      5.68890E-04
  495.00      5.70130E-04
  497.00      5.71150E-04
  499.00      5.66930E-04
  501.00      5.50750E-04
  503.00      5.55170E-04
  505.00      5.51120E-04
  507.00      5.51160E-04
  509.00      5.46710E-04
  511.00      5.42360E-04
  513.00      5.37180E-04
  515.00      5.33870E-04
  517.00      5.30400E-04
  519.00      5.27690E-04
  521.00      5.24560E-04
  523.00      5.21100E-04
  525.00      5.14950E-04
  527.00      5.11200E-04
  529.00      5.10560E-04
  531.00      5.06880E-04
  533.00      5.03620E-04
  535.00      5.00350E-04
  537.00      4.97000E-04
  539.00      4.93200E-04
  541.00      4.84380E-04
  543.00      4.87370E-04
  545.00      4.84020E-04
  547.00      4.80590E-04
  549.00      4.77490E-04
  551.00      4.74220E-04
  553.00      4.71070E-04
  555.00      4.68740E-04
  557.00      4.65170E-04
  559.00      4.61000E-04
  561.00      4.59770E-04
  563.00      4.56840E-04
  565.00      4.53500E-04
  567.00      4.49450E-04
  569.00      4.39450E-04
  571.00      4.31100E-04
  573.00      4.29000E-04
  575.00      4.25480E-04
  577.00      4.24370E-04
  579.00      4.21520E-04
  581.00      4.17560E-04
  583.00      4.15000E-04
  585.00      4.15010E-04
  587.00      4.05040E-04
  589.00      4.10080E-04
  591.00      4.09570E-04
  593.00      4.07990E-04
  595.00      4.06770E-04
  597.00      4.06930E-04
  599.00      4.04730E-04
  601.00      4.04020E-04
  603.00      4.01360E-04
  605.00      3.99740E-04
  607.00      3.97960E-04
  609.00      3.95820E-04
  611.00      3.92960E-04
  613.00      3.90950E-04
  615.00      3.87340E-04
  617.00      3.85420E-04
  619.00      3.84210E-04
  621.00      3.82300E-04
  623.00      3.79660E-04
  625.00      3.77140E-04
  627.00      3.75390E-04
  629.00      3.73430E-04
  631.00      3.70230E-04
  633.00      3.69180E-04
  635.00      3.66570E-04
  637.00      3.65120E-04
  639.00      3.62890E-04
  641.00      3.60220E-04
  643.00      3.58920E-04
  645.00      3.56350E-04
  647.00      3.53390E-04
  649.00      3.51730E-04
  651.00      3.49210E-04
  653.00      3.46240E-04
  655.00      3.38450E-04
  657.00      3.07310E-04
  659.00      3.39700E-04
  661.00      3.40360E-04
  663.00      3.39090E-04
  665.00      3.37040E-04
  667.00      3.31600E-04
  669.00      3.29220E-04
  671.00      3.30710E-04
  673.00      3.28190E-04
  675.00      3.27190E-04
  677.00      3.26190E-04
  679.00      3.23390E-04
  681.00      3.22750E-04
  683.00      3.20960E-04
  685.00      3.19250E-04
  687.00      3.17220E-04
  689.00      3.13950E-04
  691.00      3.13110E-04
  693.00      3.12750E-04
  695.00      3.11030E-04
  697.00      3.09430E-04
  699.00      3.07710E-04
  701.00      3.05660E-04
  703.00      3.03380E-04
  705.00      3.02300E-04
  707.00      2.97120E-04
  709.00      2.99740E-04
  711.00      2.97280E-04
  713.00      2.95890E-04
  715.00      2.95150E-04
  717.00      2.92600E-04
  719.00      2.91560E-04
  721.00      2.90630E-04
  723.00      2.86640E-04
  725.00      2.87170E-04
  727.00      2.86170E-04
  729.00      2.82930E-04
  731.00      2.83030E-04
  733.00      2.81730E-04
  735.00      2.80360E-04
  737.00      2.78930E-04
  739.00      2.77610E-04
  741.00      2.76130E-04
  743.00      2.74830E-04
  745.00      2.73200E-04
  747.00      2.71270E-04
  749.00      2.69330E-04
  751.00      2.69200E-04
  753.00      2.67760E-04
  755.00      2.66660E-04
  757.00      2.65220E-04
  759.00      2.62190E-04
  761.00      2.62020E-04
  763.00      2.61150E-04
  765.00      2.59990E-04
  767.00      2.58920E-04
  769.00      2.56810E-04
  771.00      2.55920E-04
  773.00      2.54080E-04
  775.00      2.53790E-04
  777.00      2.52760E-04
  779.00      2.51530E-04
  781.00      2.50350E-04
  783.00      2.49180E-04
  785.00      2.47620E-04
  787.00      2.46250E-04
  789.00      2.45110E-04
  791.00      2.44320E-04
  793.00      2.43160E-04
  795.00      2.42280E-04
  797.00      2.40900E-04
  799.00      2.39930E-04
  801.00      2.38760E-04
  803.00      2.37400E-04
  805.00      2.36670E-04
  807.00      2.35550E-04
  809.00      2.34330E-04
  811.00      2.32170E-04
  813.00      2.32320E-04
  815.00      2.31060E-04
  817.00      2.30090E-04
  819.00      2.27950E-04
  821.00      2.24470E-04
  823.00      2.22470E-04
  825.00      2.22660E-04
  827.00      2.20600E-04
  829.00      2.20760E-04
  831.00      2.20140E-04
  833.00      2.18470E-04
  835.00      2.16800E-04
  837.00      2.16700E-04
  839.00      2.16370E-04
  841.00      2.15240E-04
  843.00      2.14480E-04
  845.00      2.12780E-04
  847.00      2.12670E-04
  849.00      2.11560E-04
  851.00      2.09610E-04
  853.00      2.09830E-04
  855.00      2.08440E-04
  857.00      2.08850E-04
  859.00      2.05420E-04
  861.00      2.05560E-04
  863.00      2.07320E-04
  865.00      2.04430E-04
  867.00      1.99440E-04
  869.00      2.04840E-04
  871.00      2.05200E-04
  873.00      2.02090E-04
  875.00      1.92440E-04
  877.00      1.98980E-04
  879.00      2.02730E-04
  881.00      2.02720E-04
  883.00      2.00900E-04
  885.00      1.93220E-04
  887.00      1.84680E-04
  889.00      1.97270E-04
  891.00      1.98700E-04
  893.00      1.98150E-04
  895.00      1.97350E-04
  897.00      1.96450E-04
  899.00      1.92850E-04
  901.00      1.78070E-04
  903.00      1.84240E-04
  905.00      1.92220E-04
  907.00      1.91270E-04
  909.00      1.91600E-04
  911.00      1.91600E-04
  913.00      1.90880E-04
  915.00      1.90180E-04
  917.00      1.88660E-04
  919.00      1.87410E-04
  921.00      1.81480E-04
  923.00      1.65430E-04
  925.00      1.79710E-04
  927.00      1.84110E-04
  929.00      1.84100E-04
  931.00      1.83240E-04
  933.00      1.82710E-04
  935.00      1.80650E-04
  937.00      1.81300E-04
  939.00      1.80870E-04
  941.00      1.79760E-04
  943.00      1.79200E-04
  945.00      1.78520E-04
  947.00      1.77240E-04
  949.00      1.76670E-04
  951.00      1.74210E-04
  953.00      1.68650E-04
  955.00      1.54170E-04
  957.00      1.69870E-04
  959.00      1.72850E-04
  961.00      1.72300E-04
  963.00      1.71370E-04
  965.00      1.71770E-04
  967.00      1.71230E-04
  969.00      1.70450E-04
  971.00      1.65440E-04
  973.00      1.68430E-04
  975.00      1.68510E-04
  977.00      1.67770E-04
  979.00      1.67180E-04
  981.00      1.66440E-04
  983.00      1.65860E-04
  985.00      1.65160E-04
  987.00      1.64490E-04
  989.00      1.63550E-04
  991.00      1.62440E-04
  993.00      1.62720E-04
  995.00      1.62090E-04
  997.00      1.61310E-04
  999.00      1.60530E-04
  1002.5      1.53960E-04
  1007.5      1.50550E-04
  1012.5      1.54700E-04
  1017.5      1.55350E-04
  1022.5      1.53770E-04
  1027.5      1.52360E-04
  1032.5      1.50510E-04
  1037.5      1.49660E-04
  1042.5      1.48180E-04
  1047.5      1.46940E-04
  1052.5      1.45540E-04
  1057.5      1.44270E-04
  1062.5      1.42960E-04
  1067.5      1.41530E-04
  1072.5      1.40430E-04
  1077.5      1.39160E-04
  1082.5      1.36700E-04
  1087.5      1.36290E-04
  1092.5      1.26250E-04
  1097.5      1.31640E-04
  1102.5      1.32530E-04
  1107.5      1.31940E-04
  1112.5      1.30840E-04
  1117.5      1.29760E-04
  1122.5      1.28600E-04
  1127.5      1.27530E-04
  1132.5      1.26310E-04
  1137.5      1.25320E-04
  1142.5      1.24260E-04
  1147.5      1.23260E-04
  1152.5      1.22280E-04
  1157.5      1.21150E-04
  1162.5      1.19740E-04
  1167.5      1.18890E-04
  1172.5      1.18290E-04
  1177.5      1.17310E-04
  1182.5      1.16250E-04
  1187.5      1.15370E-04
  1192.5      1.14440E-04
  1197.5      1.12320E-04
  1202.5      1.12650E-04
  1207.5      1.11720E-04
  1212.5      1.10750E-04
  1217.5      1.09970E-04
  1222.5      1.09100E-04
  1227.5      1.08260E-04
  1232.5      1.07380E-04
  1237.5      1.06550E-04
  1242.5      1.05750E-04
  1247.5      1.04890E-04
  1252.5      1.03860E-04
  1257.5      1.03220E-04
  1262.5      1.02480E-04
  1267.5      1.01740E-04
  1272.5      1.00930E-04
  1277.5      9.86560E-05
  1282.5      9.25290E-05
  1287.5      9.81430E-05
  1292.5      9.79560E-05
  1297.5      9.66990E-05
  1302.5      9.64150E-05
  1307.5      9.57990E-05
  1312.5      9.50940E-05
  1317.5      9.43930E-05
  1322.5      9.37030E-05
  1327.5      9.30190E-05
  1332.5      9.23060E-05
  1337.5      9.16090E-05
  1342.5      9.09150E-05
  1347.5      9.03290E-05
  1352.5      8.96270E-05
  1357.5      8.90530E-05
  1362.5      8.83220E-05
  1367.5      8.77870E-05
  1372.5      8.70630E-05
  1377.5      8.65700E-05
  1382.5      8.59630E-05
  1387.5      8.53510E-05
  1392.5      8.46790E-05
  1397.5      8.41550E-05
