 Castelli and Kurucz 2004-2012 Atmosphere
 T     40000.     G    4.50000 [+0.5] N(He)/Ntot=0.07813 VTURB=2.0  L/H=1.25 NO
 Wavelength  Eddington Hnu
   (nm)    (ergs/s/cm2/Hz/sr)
  9.0900      1.47090E-25
  9.3500      5.74130E-25
  9.6100      2.05470E-24
  9.7700      4.46160E-24
  9.9600      1.06760E-23
  10.200      3.07210E-23
  10.380      6.58570E-23
  10.560      1.37630E-22
  10.770      3.15490E-22
  11.040      8.75930E-22
  11.400      3.17530E-21
  11.780      1.13760E-20
  12.130      3.45410E-20
  12.480      9.84870E-20
  12.710      1.90330E-19
  12.840      2.73360E-19
  13.050      4.82330E-19
  13.240      7.95100E-19
  13.390      1.17300E-18
  13.660      2.28950E-18
  13.980      4.99040E-18
  14.330      1.11140E-17
  14.720      2.54700E-17
  15.100      5.82290E-17
  15.520      1.34590E-16
  15.880      2.67510E-16
  16.200      4.82170E-16
  16.600      9.89570E-16
  17.030      2.02470E-15
  17.340      3.34640E-15
  17.680      5.80410E-15
  18.020      9.72920E-15
  18.170      1.20930E-14
  18.610      2.31380E-14
  19.100      4.56180E-14
  19.390      6.78280E-14
  19.840      1.21300E-13
  20.180      1.82160E-13
  20.500      2.70040E-13
  21.050      5.09660E-13
  21.620      9.41330E-13
  21.980      1.39310E-12
  22.300      1.92040E-12
  22.680      2.90280E-12
  23.000      1.34610E-09
  23.400      3.29680E-09
  24.000      4.67470E-09
  24.650      7.05480E-09
  25.240      1.28770E-08
  25.680      1.97180E-08
  26.000      2.48360E-08
  26.400      6.13000E-08
  26.850      9.75190E-08
  27.350      1.23680E-07
  27.850      1.16760E-07
  28.400      2.58670E-07
  29.000      3.68910E-07
  29.600      3.97240E-07
  30.100      9.95810E-07
  30.800      5.20030E-06
  31.800      2.30120E-06
  32.800      4.29650E-06
  33.800      5.28880E-06
  34.800      6.99460E-06
  35.700      1.82900E-05
  36.600      4.86740E-05
  37.500      7.31310E-05
  38.500      7.31760E-05
  39.500      1.58210E-04
  40.500      3.21670E-04
  41.400      2.90950E-04
  42.200      2.92350E-04
  43.000      2.82410E-04
  44.100      3.73940E-04
  45.100      4.01000E-04
  46.000      3.12010E-04
  47.000      3.81120E-04
  48.000      4.94120E-04
  49.000      3.15210E-04
  50.000      5.67210E-04
  50.600      3.98550E-04
  51.200      7.95030E-04
  52.000      7.55190E-04
  53.000      6.97640E-04
  54.000      5.93270E-04
  55.000      5.10130E-04
  56.000      7.67970E-04
  57.000      1.04920E-03
  58.000      1.04260E-03
  59.000      1.07560E-03
  60.000      7.67240E-04
  61.000      7.72890E-04
  62.000      1.14080E-03
  63.000      1.06660E-03
  64.000      1.27490E-03
  65.000      1.18990E-03
  65.800      9.47380E-04
  66.500      1.27130E-03
  67.500      1.44190E-03
  68.500      1.13270E-03
  69.500      1.46210E-03
  70.500      1.10030E-03
  71.600      1.57070E-03
  72.600      1.61570E-03
  73.500      1.65170E-03
  74.500      1.51800E-03
  75.500      1.53120E-03
  76.500      1.35300E-03
  77.500      1.57950E-03
  78.500      1.34960E-03
  79.500      1.61470E-03
  80.500      1.64250E-03
  81.500      1.66810E-03
  82.500      1.73160E-03
  83.500      1.39200E-03
  84.500      1.69820E-03
  85.500      1.61880E-03
  86.500      1.76220E-03
  87.500      1.79160E-03
  88.500      1.78570E-03
  89.500      1.78780E-03
  90.500      1.75290E-03
  91.500      1.39840E-03
  92.500      2.32870E-03
  93.500      3.30200E-03
  94.500      3.73200E-03
  95.500      4.20930E-03
  96.500      4.58240E-03
  97.500      3.17840E-03
  98.500      4.04600E-03
  99.500      3.57280E-03
  100.50      3.60540E-03
  101.50      3.88300E-03
  102.50      3.64550E-03
  103.50      4.18090E-03
  104.50      4.50810E-03
  105.50      4.39940E-03
  106.50      4.14790E-03
  107.50      4.25900E-03
  108.50      3.95740E-03
  109.50      4.18990E-03
  110.50      4.11800E-03
  111.50      4.11840E-03
  112.50      3.86360E-03
  113.50      4.13750E-03
  114.50      4.21490E-03
  115.50      3.92210E-03
  116.50      3.75080E-03
  117.50      3.08760E-03
  118.50      3.64760E-03
  119.50      3.47430E-03
  120.50      3.47290E-03
  121.50      3.03440E-03
  122.50      3.36360E-03
  123.50      3.46220E-03
  124.50      3.40800E-03
  125.50      3.48700E-03
  126.50      3.61370E-03
  127.50      3.76790E-03
  128.50      3.78440E-03
  129.50      3.78420E-03
  130.50      3.69760E-03
  131.50      3.80380E-03
  132.50      3.77990E-03
  133.50      3.72650E-03
  134.50      3.75040E-03
  135.50      3.62230E-03
  136.50      3.53960E-03
  137.50      3.41460E-03
  138.50      3.44370E-03
  139.50      3.25730E-03
  140.50      3.12430E-03
  141.50      3.56920E-03
  142.50      3.23450E-03
  143.50      3.48240E-03
  144.20      3.32200E-03
  144.70      3.35750E-03
  145.50      3.25100E-03
  146.50      3.26730E-03
  147.50      3.31760E-03
  148.50      3.38410E-03
  149.50      3.30180E-03
  150.50      3.31240E-03
  151.20      3.31410E-03
  151.70      3.29310E-03
  152.50      3.26110E-03
  153.50      2.95300E-03
  154.50      2.33110E-03
  155.50      2.45260E-03
  156.50      2.86560E-03
  157.50      3.01310E-03
  158.50      3.00790E-03
  159.50      3.07400E-03
  160.50      2.91960E-03
  161.50      2.84370E-03
  162.50      2.94330E-03
  163.50      2.97550E-03
  164.50      2.93640E-03
  165.50      3.00530E-03
  166.50      2.97040E-03
  167.20      2.78840E-03
  167.70      3.18500E-03
  168.50      3.10860E-03
  169.50      3.08040E-03
  170.50      3.03390E-03
  171.50      2.89030E-03
  172.50      2.87170E-03
  173.50      3.00290E-03
  174.50      3.00910E-03
  175.50      2.97300E-03
  176.50      2.94880E-03
  177.50      2.88170E-03
  178.50      2.94750E-03
  179.50      2.87660E-03
  180.50      2.86960E-03
  181.50      2.84060E-03
  182.50      2.79980E-03
  183.50      2.82280E-03
  184.50      2.83600E-03
  185.50      2.85000E-03
  186.50      2.85830E-03
  187.50      2.78930E-03
  188.50      2.75740E-03
  189.50      2.81560E-03
  190.50      2.81520E-03
  191.50      2.79910E-03
  192.50      2.66670E-03
  193.50      2.79390E-03
  194.50      2.79320E-03
  195.50      2.65140E-03
  196.70      2.73070E-03
  197.60      2.72060E-03
  198.40      2.73560E-03
  199.50      2.70080E-03
  200.50      2.72850E-03
  201.50      2.70970E-03
  202.50      2.70000E-03
  203.50      2.65800E-03
  204.50      2.62790E-03
  205.50      1.94850E-03
  206.50      1.88340E-03
  207.40      1.96590E-03
  207.80      2.01710E-03
  208.50      2.21170E-03
  209.50      2.46560E-03
  210.50      2.50870E-03
  211.50      2.55010E-03
  212.50      2.50990E-03
  213.50      2.52360E-03
  214.50      2.50280E-03
  215.50      2.51450E-03
  216.50      2.38110E-03
  217.50      2.50300E-03
  218.50      2.40960E-03
  219.50      2.49820E-03
  220.50      2.47840E-03
  221.50      2.36960E-03
  222.50      2.44520E-03
  223.50      2.43250E-03
  224.50      2.40390E-03
  225.50      2.32670E-03
  226.50      2.38070E-03
  227.50      2.38760E-03
  228.50      2.33240E-03
  229.50      2.24200E-03
  230.50      2.24820E-03
  231.50      2.27210E-03
  232.50      2.29520E-03
  233.50      2.28230E-03
  234.50      2.24470E-03
  235.50      2.20550E-03
  236.50      2.18200E-03
  237.50      2.14150E-03
  238.50      2.04340E-03
  239.50      2.10710E-03
  240.50      2.10800E-03
  241.50      2.11290E-03
  242.50      2.13010E-03
  243.50      2.10790E-03
  244.50      2.09830E-03
  245.50      2.07590E-03
  246.50      2.07040E-03
  247.50      2.07890E-03
  248.50      2.02600E-03
  249.50      1.65650E-03
  250.50      1.99100E-03
  251.30      1.88940E-03
  251.80      1.95330E-03
  252.50      1.98240E-03
  253.50      1.99840E-03
  254.50      1.99330E-03
  255.50      1.97690E-03
  256.50      1.96730E-03
  257.50      1.95200E-03
  258.50      1.94380E-03
  259.50      1.89250E-03
  260.50      1.92490E-03
  261.50      1.88730E-03
  262.50      1.90450E-03
  263.50      1.90190E-03
  264.50      1.87370E-03
  265.50      1.87560E-03
  266.50      1.86070E-03
  267.50      1.81520E-03
  268.50      1.83480E-03
  269.50      1.81740E-03
  270.50      1.83120E-03
  271.50      1.81070E-03
  272.50      1.80330E-03
  273.50      1.74500E-03
  274.50      1.79250E-03
  275.50      1.77420E-03
  276.50      1.76540E-03
  277.50      1.75610E-03
  278.50      1.72720E-03
  279.50      1.70420E-03
  280.50      1.71850E-03
  281.50      1.71370E-03
  282.50      1.70080E-03
  283.50      1.69580E-03
  284.50      1.69390E-03
  285.50      1.68140E-03
  286.50      1.65430E-03
  287.50      1.64630E-03
  288.50      1.64900E-03
  289.50      1.63960E-03
  291.00      1.62400E-03
  293.00      1.61640E-03
  295.00      1.59830E-03
  297.00      1.57500E-03
  299.00      1.54530E-03
  301.00      1.52770E-03
  303.00      1.49920E-03
  305.00      1.49780E-03
  307.00      1.47680E-03
  309.00      1.47450E-03
  311.00      1.46440E-03
  313.00      1.44710E-03
  315.00      1.44100E-03
  317.00      1.42300E-03
  319.00      1.41390E-03
  321.00      1.37110E-03
  323.00      1.38390E-03
  325.00      1.37430E-03
  327.00      1.34330E-03
  329.00      1.34150E-03
  331.00      1.32540E-03
  333.00      1.31100E-03
  335.00      1.28440E-03
  337.00      1.28120E-03
  339.00      1.27360E-03
  341.00      1.26010E-03
  343.00      1.25710E-03
  345.00      1.23230E-03
  347.00      1.23100E-03
  349.00      1.22140E-03
  351.00      1.21330E-03
  353.00      1.19730E-03
  355.00      1.18710E-03
  357.00      1.17720E-03
  359.00      1.16670E-03
  361.00      1.15090E-03
  363.00      1.14160E-03
  364.00      1.11710E-03
  365.00      1.00700E-03
  367.00      9.99720E-04
  369.00      9.93260E-04
  371.00      9.86340E-04
  373.00      1.00160E-03
  375.00      1.01990E-03
  377.00      1.03200E-03
  379.00      1.06130E-03
  381.00      1.07950E-03
  383.00      1.02640E-03
  385.00      1.08320E-03
  387.00      1.07140E-03
  389.00      9.89570E-04
  391.00      1.07420E-03
  393.00      1.05070E-03
  395.00      1.04280E-03
  397.00      9.47430E-04
  399.00      1.03660E-03
  401.00      1.02690E-03
  403.00      1.00120E-03
  405.00      1.01260E-03
  407.00      9.95070E-04
  409.00      9.59040E-04
  411.00      9.08070E-04
  413.00      9.69840E-04
  415.00      9.65600E-04
  417.00      9.63450E-04
  419.00      9.51900E-04
  421.00      9.32610E-04
  423.00      9.43020E-04
  425.00      9.32370E-04
  427.00      9.25000E-04
  429.00      9.17350E-04
  431.00      9.04150E-04
  433.00      8.68790E-04
  435.00      8.31890E-04
  437.00      8.82730E-04
  439.00      8.68980E-04
  441.00      8.61170E-04
  443.00      8.62970E-04
  445.00      8.54590E-04
  447.00      8.44540E-04
  449.00      8.44480E-04
  451.00      8.27970E-04
  453.00      8.23140E-04
  455.00      8.03500E-04
  457.00      8.15460E-04
  459.00      8.06710E-04
  461.00      8.04840E-04
  463.00      7.92760E-04
  465.00      7.63210E-04
  467.00      7.83030E-04
  469.00      7.57370E-04
  471.00      7.76300E-04
  473.00      7.77070E-04
  475.00      7.71970E-04
  477.00      7.66070E-04
  479.00      7.59400E-04
  481.00      7.54260E-04
  483.00      7.47680E-04
  485.00      7.26360E-04
  487.00      6.79890E-04
  489.00      7.29800E-04
  491.00      7.25160E-04
  493.00      7.17710E-04
  495.00      7.15780E-04
  497.00      7.12140E-04
  499.00      7.07690E-04
  501.00      6.97090E-04
  503.00      6.94930E-04
  505.00      6.90300E-04
  507.00      6.87130E-04
  509.00      6.82650E-04
  511.00      6.77730E-04
  513.00      6.72420E-04
  515.00      6.67850E-04
  517.00      6.63620E-04
  519.00      6.59040E-04
  521.00      6.54320E-04
  523.00      6.50580E-04
  525.00      6.43510E-04
  527.00      6.38940E-04
  529.00      6.37300E-04
  531.00      6.32810E-04
  533.00      6.28380E-04
  535.00      6.24580E-04
  537.00      6.20170E-04
  539.00      6.15970E-04
  541.00      5.99280E-04
  543.00      6.07960E-04
  545.00      6.04050E-04
  547.00      5.99630E-04
  549.00      5.96040E-04
  551.00      5.90920E-04
  553.00      5.88190E-04
  555.00      5.84550E-04
  557.00      5.79700E-04
  559.00      5.73840E-04
  561.00      5.73320E-04
  563.00      5.69540E-04
  565.00      5.65840E-04
  567.00      5.62140E-04
  569.00      5.47720E-04
  571.00      5.14000E-04
  573.00      5.11010E-04
  575.00      5.07750E-04
  577.00      5.05350E-04
  579.00      5.02730E-04
  581.00      4.96680E-04
  583.00      4.98470E-04
  585.00      4.99020E-04
  587.00      4.93680E-04
  589.00      4.98680E-04
  591.00      4.99090E-04
  593.00      4.99870E-04
  595.00      5.01420E-04
  597.00      5.02990E-04
  599.00      5.04350E-04
  601.00      5.03410E-04
  603.00      5.01040E-04
  605.00      4.99030E-04
  607.00      4.96040E-04
  609.00      4.93940E-04
  611.00      4.90040E-04
  613.00      4.87430E-04
  615.00      4.85040E-04
  617.00      4.80730E-04
  619.00      4.80130E-04
  621.00      4.77610E-04
  623.00      4.72390E-04
  625.00      4.71310E-04
  627.00      4.69170E-04
  629.00      4.66510E-04
  631.00      4.60400E-04
  633.00      4.60970E-04
  635.00      4.58260E-04
  637.00      4.55890E-04
  639.00      4.52870E-04
  641.00      4.46650E-04
  643.00      4.48130E-04
  645.00      4.44800E-04
  647.00      4.42110E-04
  649.00      4.40090E-04
  651.00      4.36640E-04
  653.00      4.30080E-04
  655.00      4.26670E-04
  657.00      3.95570E-04
  659.00      4.26970E-04
  661.00      4.25850E-04
  663.00      4.23580E-04
  665.00      4.21180E-04
  667.00      4.15470E-04
  669.00      4.09110E-04
  671.00      4.13040E-04
  673.00      4.10870E-04
  675.00      4.08700E-04
  677.00      4.07200E-04
  679.00      4.05290E-04
  681.00      4.03120E-04
  683.00      4.00940E-04
  685.00      3.98590E-04
  687.00      3.96150E-04
  689.00      3.88070E-04
  691.00      3.91770E-04
  693.00      3.90330E-04
  695.00      3.88150E-04
  697.00      3.86180E-04
  699.00      3.84050E-04
  701.00      3.81580E-04
  703.00      3.78800E-04
  705.00      3.77350E-04
  707.00      3.73210E-04
  709.00      3.74110E-04
  711.00      3.71860E-04
  713.00      3.69910E-04
  715.00      3.68340E-04
  717.00      3.62240E-04
  719.00      3.62170E-04
  721.00      3.62630E-04
  723.00      3.60570E-04
  725.00      3.58880E-04
  727.00      3.57090E-04
  729.00      3.54350E-04
  731.00      3.52900E-04
  733.00      3.51620E-04
  735.00      3.49880E-04
  737.00      3.47780E-04
  739.00      3.46130E-04
  741.00      3.44310E-04
  743.00      3.42900E-04
  745.00      3.40490E-04
  747.00      3.39110E-04
  749.00      3.36150E-04
  751.00      3.35690E-04
  753.00      3.34170E-04
  755.00      3.32490E-04
  757.00      3.30580E-04
  759.00      3.23170E-04
  761.00      3.26790E-04
  763.00      3.25870E-04
  765.00      3.24400E-04
  767.00      3.22840E-04
  769.00      3.20320E-04
  771.00      3.19250E-04
  773.00      3.17060E-04
  775.00      3.16110E-04
  777.00      3.15300E-04
  779.00      3.13380E-04
  781.00      3.12270E-04
  783.00      3.10710E-04
  785.00      3.07850E-04
  787.00      3.07270E-04
  789.00      3.06200E-04
  791.00      3.04990E-04
  793.00      3.03630E-04
  795.00      3.02160E-04
  797.00      3.00170E-04
  799.00      2.99310E-04
  801.00      2.97950E-04
  803.00      2.96140E-04
  805.00      2.95220E-04
  807.00      2.93830E-04
  809.00      2.92460E-04
  811.00      2.91030E-04
  813.00      2.89790E-04
  815.00      2.88400E-04
  817.00      2.86650E-04
  819.00      2.84300E-04
  821.00      2.71440E-04
  823.00      2.68250E-04
  825.00      2.68670E-04
  827.00      2.67730E-04
  829.00      2.66790E-04
  831.00      2.65800E-04
  833.00      2.63810E-04
  835.00      2.62770E-04
  837.00      2.62230E-04
  839.00      2.61460E-04
  841.00      2.60500E-04
  843.00      2.59630E-04
  845.00      2.58560E-04
  847.00      2.57890E-04
  849.00      2.57170E-04
  851.00      2.55520E-04
  853.00      2.55820E-04
  855.00      2.54640E-04
  857.00      2.54590E-04
  859.00      2.53020E-04
  861.00      2.52590E-04
  863.00      2.53460E-04
  865.00      2.52030E-04
  867.00      2.48280E-04
  869.00      2.51910E-04
  871.00      2.52070E-04
  873.00      2.50570E-04
  875.00      2.43460E-04
  877.00      2.48520E-04
  879.00      2.50440E-04
  881.00      2.50180E-04
  883.00      2.49200E-04
  885.00      2.43670E-04
  887.00      2.35710E-04
  889.00      2.45380E-04
  891.00      2.45840E-04
  893.00      2.44690E-04
  895.00      2.43880E-04
  897.00      2.43040E-04
  899.00      2.40390E-04
  901.00      2.27520E-04
  903.00      2.32640E-04
  905.00      2.38400E-04
  907.00      2.37730E-04
  909.00      2.37270E-04
  911.00      2.36010E-04
  913.00      2.35630E-04
  915.00      2.34850E-04
  917.00      2.33430E-04
  919.00      2.32050E-04
  921.00      2.27830E-04
  923.00      2.12820E-04
  925.00      2.25430E-04
  927.00      2.28120E-04
  929.00      2.27830E-04
  931.00      2.26870E-04
  933.00      2.25860E-04
  935.00      2.19910E-04
  937.00      2.22890E-04
  939.00      2.23220E-04
  941.00      2.22060E-04
  943.00      2.21380E-04
  945.00      2.20680E-04
  947.00      2.19620E-04
  949.00      2.18750E-04
  951.00      2.16700E-04
  953.00      2.12320E-04
  955.00      1.98140E-04
  957.00      2.12310E-04
  959.00      2.14010E-04
  961.00      2.13550E-04
  963.00      2.12490E-04
  965.00      2.12130E-04
  967.00      2.11400E-04
  969.00      2.10530E-04
  971.00      2.05930E-04
  973.00      2.08210E-04
  975.00      2.07710E-04
  977.00      2.05720E-04
  979.00      2.06430E-04
  981.00      2.05630E-04
  983.00      2.04670E-04
  985.00      2.04040E-04
  987.00      2.03280E-04
  989.00      2.02410E-04
  991.00      2.01510E-04
  993.00      2.00940E-04
  995.00      2.00180E-04
  997.00      1.99380E-04
  999.00      1.98580E-04
  1002.5      1.92890E-04
  1007.5      1.88980E-04
  1012.5      1.89700E-04
  1017.5      1.91790E-04
  1022.5      1.89940E-04
  1027.5      1.88030E-04
  1032.5      1.86060E-04
  1037.5      1.84750E-04
  1042.5      1.82070E-04
  1047.5      1.81420E-04
  1052.5      1.79730E-04
  1057.5      1.78120E-04
  1062.5      1.76520E-04
  1067.5      1.74890E-04
  1072.5      1.73380E-04
  1077.5      1.71830E-04
  1082.5      1.69400E-04
  1087.5      1.68610E-04
  1092.5      1.59380E-04
  1097.5      1.63940E-04
  1102.5      1.64250E-04
  1107.5      1.63000E-04
  1112.5      1.61590E-04
  1117.5      1.60320E-04
  1122.5      1.58890E-04
  1127.5      1.57520E-04
  1132.5      1.56150E-04
  1137.5      1.54870E-04
  1142.5      1.53590E-04
  1147.5      1.52320E-04
  1152.5      1.51070E-04
  1157.5      1.49650E-04
  1162.5      1.46830E-04
  1167.5      1.46070E-04
  1172.5      1.46100E-04
  1177.5      1.44940E-04
  1182.5      1.43580E-04
  1187.5      1.42550E-04
  1192.5      1.41390E-04
  1197.5      1.39500E-04
  1202.5      1.39180E-04
  1207.5      1.38010E-04
  1212.5      1.36840E-04
  1217.5      1.35870E-04
  1222.5      1.34760E-04
  1227.5      1.33750E-04
  1232.5      1.32680E-04
  1237.5      1.31660E-04
  1242.5      1.30640E-04
  1247.5      1.29630E-04
  1252.5      1.28540E-04
  1257.5      1.27590E-04
  1262.5      1.26660E-04
  1267.5      1.25700E-04
  1272.5      1.24730E-04
  1277.5      1.22770E-04
  1282.5      1.16570E-04
  1287.5      1.21650E-04
  1292.5      1.21030E-04
  1297.5      1.19940E-04
  1302.5      1.19210E-04
  1307.5      1.18350E-04
  1312.5      1.17480E-04
  1317.5      1.16610E-04
  1322.5      1.15760E-04
  1327.5      1.14920E-04
  1332.5      1.14080E-04
  1337.5      1.13240E-04
  1342.5      1.12410E-04
  1347.5      1.11610E-04
  1352.5      1.10810E-04
  1357.5      1.10030E-04
  1362.5      1.09240E-04
  1367.5      1.08470E-04
  1372.5      1.07650E-04
  1377.5      1.06940E-04
  1382.5      1.06190E-04
  1387.5      1.05450E-04
  1392.5      1.04700E-04
  1397.5      1.03980E-04
