 Castelli and Kurucz 2004-2012 Atmosphere
 T     48000.     G    4.50000 [+0.5] N(He)/Ntot=0.07813 VTURB=2.0  L/H=1.25 NO
 Wavelength  Eddington Hnu
   (nm)    (ergs/s/cm2/Hz/sr)
  9.0900      3.11430E-20
  9.3500      9.26950E-20
  9.6100      2.53400E-19
  9.7700      4.76120E-19
  9.9600      9.57340E-19
  10.200      2.23540E-18
  10.380      4.12410E-18
  10.560      7.46180E-18
  10.770      1.45600E-17
  11.040      3.31980E-17
  11.400      9.41020E-17
  11.780      2.62200E-16
  12.130      6.51160E-16
  12.480      1.51490E-15
  12.710      2.60220E-15
  12.840      3.91650E-15
  13.050      6.24250E-15
  13.240      9.35630E-15
  13.390      1.28910E-14
  13.660      2.23430E-14
  13.980      4.20060E-14
  14.330      7.93180E-14
  14.720      1.47390E-13
  15.100      2.95080E-13
  15.520      5.76870E-13
  15.880      1.03790E-12
  16.200      2.94460E-12
  16.600      5.26580E-12
  17.030      8.75610E-12
  17.340      1.25900E-11
  17.680      2.01210E-11
  18.020      3.12490E-11
  18.170      3.40780E-11
  18.610      6.47090E-11
  19.100      1.07830E-10
  19.390      1.71210E-10
  19.840      2.82420E-10
  20.180      3.27430E-10
  20.500      5.09440E-10
  21.050      8.17450E-10
  21.620      1.30260E-09
  21.980      1.79490E-09
  22.300      2.14940E-09
  22.680      2.87970E-09
  23.000      1.13940E-07
  23.400      3.68910E-07
  24.000      5.37480E-07
  24.650      1.31680E-06
  25.240      6.19480E-06
  25.680      2.41130E-05
  26.000      1.67280E-05
  26.400      7.64330E-05
  26.850      8.43840E-05
  27.350      1.06590E-04
  27.850      6.28870E-05
  28.400      1.31120E-04
  29.000      2.40440E-04
  29.600      2.05800E-04
  30.100      1.78600E-04
  30.800      1.94120E-04
  31.800      3.82720E-05
  32.800      5.45580E-05
  33.800      4.14660E-05
  34.800      4.77660E-05
  35.700      1.26890E-04
  36.600      3.56780E-04
  37.500      5.03830E-04
  38.500      3.75920E-04
  39.500      8.05780E-04
  40.500      1.58250E-03
  41.400      1.55640E-03
  42.200      1.35300E-03
  43.000      1.37510E-03
  44.100      1.93900E-03
  45.100      1.99190E-03
  46.000      1.57440E-03
  47.000      1.94190E-03
  48.000      2.35470E-03
  49.000      1.94030E-03
  50.000      3.36400E-03
  50.600      2.69480E-03
  51.200      3.31970E-03
  52.000      3.20540E-03
  53.000      3.09780E-03
  54.000      2.29560E-03
  55.000      1.73560E-03
  56.000      2.51540E-03
  57.000      3.56300E-03
  58.000      3.80230E-03
  59.000      3.82800E-03
  60.000      3.15520E-03
  61.000      2.28080E-03
  62.000      3.38980E-03
  63.000      2.68090E-03
  64.000      3.87430E-03
  65.000      3.63390E-03
  65.800      3.17210E-03
  66.500      4.02280E-03
  67.500      4.09010E-03
  68.500      3.55500E-03
  69.500      4.10290E-03
  70.500      3.52600E-03
  71.600      3.94940E-03
  72.600      4.23310E-03
  73.500      4.18550E-03
  74.500      3.92390E-03
  75.500      3.81060E-03
  76.500      3.14860E-03
  77.500      3.91410E-03
  78.500      3.15620E-03
  79.500      3.83480E-03
  80.500      4.13180E-03
  81.500      4.08740E-03
  82.500      4.14840E-03
  83.500      3.70320E-03
  84.500      4.03900E-03
  85.500      3.70750E-03
  86.500      4.09360E-03
  87.500      4.15910E-03
  88.500      4.02300E-03
  89.500      3.94130E-03
  90.500      3.85490E-03
  91.500      2.94280E-03
  92.500      4.12380E-03
  93.500      5.02060E-03
  94.500      5.37380E-03
  95.500      6.29450E-03
  96.500      6.33440E-03
  97.500      5.40210E-03
  98.500      5.91350E-03
  99.500      5.17620E-03
  100.50      5.26870E-03
  101.50      5.42600E-03
  102.50      5.48380E-03
  103.50      6.01150E-03
  104.50      6.29460E-03
  105.50      6.23910E-03
  106.50      6.04780E-03
  107.50      6.34330E-03
  108.50      5.89690E-03
  109.50      6.16270E-03
  110.50      6.19340E-03
  111.50      6.22070E-03
  112.50      6.15230E-03
  113.50      6.29910E-03
  114.50      6.37080E-03
  115.50      6.18540E-03
  116.50      5.78330E-03
  117.50      5.48620E-03
  118.50      5.89630E-03
  119.50      5.47150E-03
  120.50      5.49470E-03
  121.50      4.93400E-03
  122.50      5.33350E-03
  123.50      5.02780E-03
  124.50      4.85570E-03
  125.50      5.25790E-03
  126.50      5.34470E-03
  127.50      5.37810E-03
  128.50      5.36140E-03
  129.50      5.44340E-03
  130.50      5.30710E-03
  131.50      5.25720E-03
  132.50      5.18370E-03
  133.50      5.12040E-03
  134.50      5.07840E-03
  135.50      4.90280E-03
  136.50      4.67320E-03
  137.50      4.44440E-03
  138.50      4.66990E-03
  139.50      4.60820E-03
  140.50      4.36310E-03
  141.50      4.97840E-03
  142.50      4.73310E-03
  143.50      4.94130E-03
  144.20      4.60280E-03
  144.70      4.65120E-03
  145.50      4.57490E-03
  146.50      4.56710E-03
  147.50      4.65370E-03
  148.50      4.71550E-03
  149.50      4.59680E-03
  150.50      4.51810E-03
  151.20      4.51170E-03
  151.70      4.40020E-03
  152.50      4.50870E-03
  153.50      4.27140E-03
  154.50      3.64100E-03
  155.50      3.76560E-03
  156.50      4.21930E-03
  157.50      4.34300E-03
  158.50      4.26930E-03
  159.50      4.39000E-03
  160.50      4.25760E-03
  161.50      4.21040E-03
  162.50      4.30800E-03
  163.50      4.36370E-03
  164.50      4.16310E-03
  165.50      4.30260E-03
  166.50      4.27800E-03
  167.20      4.13770E-03
  167.70      4.38120E-03
  168.50      4.36710E-03
  169.50      4.40700E-03
  170.50      4.24330E-03
  171.50      4.07550E-03
  172.50      4.07800E-03
  173.50      4.27160E-03
  174.50      4.24230E-03
  175.50      4.21770E-03
  176.50      4.15370E-03
  177.50      4.08200E-03
  178.50      4.09970E-03
  179.50      4.02260E-03
  180.50      4.01120E-03
  181.50      3.88790E-03
  182.50      3.91680E-03
  183.50      3.91210E-03
  184.50      3.94960E-03
  185.50      3.92260E-03
  186.50      3.94040E-03
  187.50      3.88710E-03
  188.50      3.84880E-03
  189.50      3.88440E-03
  190.50      3.86800E-03
  191.50      3.85740E-03
  192.50      3.70940E-03
  193.50      3.80220E-03
  194.50      3.78860E-03
  195.50      3.71550E-03
  196.70      3.71840E-03
  197.60      3.66410E-03
  198.40      3.70770E-03
  199.50      3.65870E-03
  200.50      3.65720E-03
  201.50      3.63600E-03
  202.50      3.62280E-03
  203.50      3.55430E-03
  204.50      3.52200E-03
  205.50      2.69610E-03
  206.50      2.62440E-03
  207.40      2.72660E-03
  207.80      2.81300E-03
  208.50      3.04750E-03
  209.50      3.34720E-03
  210.50      3.33750E-03
  211.50      3.36410E-03
  212.50      3.33000E-03
  213.50      3.34080E-03
  214.50      3.30270E-03
  215.50      3.30750E-03
  216.50      3.16160E-03
  217.50      3.27650E-03
  218.50      3.19160E-03
  219.50      3.24970E-03
  220.50      3.22730E-03
  221.50      3.11430E-03
  222.50      3.19670E-03
  223.50      3.17330E-03
  224.50      3.15050E-03
  225.50      3.05650E-03
  226.50      3.10400E-03
  227.50      3.11400E-03
  228.50      3.05260E-03
  229.50      3.00180E-03
  230.50      2.94360E-03
  231.50      2.97100E-03
  232.50      3.00020E-03
  233.50      2.97630E-03
  234.50      2.93140E-03
  235.50      2.88830E-03
  236.50      2.86480E-03
  237.50      2.83080E-03
  238.50      2.71710E-03
  239.50      2.78550E-03
  240.50      2.74570E-03
  241.50      2.75250E-03
  242.50      2.77740E-03
  243.50      2.74400E-03
  244.50      2.73280E-03
  245.50      2.68620E-03
  246.50      2.68310E-03
  247.50      2.70610E-03
  248.50      2.65090E-03
  249.50      2.48250E-03
  250.50      2.64210E-03
  251.30      2.48410E-03
  251.80      2.56680E-03
  252.50      2.57370E-03
  253.50      2.59950E-03
  254.50      2.60580E-03
  255.50      2.58640E-03
  256.50      2.57900E-03
  257.50      2.54830E-03
  258.50      2.53610E-03
  259.50      2.45550E-03
  260.50      2.51740E-03
  261.50      2.45630E-03
  262.50      2.49070E-03
  263.50      2.47750E-03
  264.50      2.44510E-03
  265.50      2.44150E-03
  266.50      2.43330E-03
  267.50      2.38750E-03
  268.50      2.39790E-03
  269.50      2.36900E-03
  270.50      2.38510E-03
  271.50      2.36800E-03
  272.50      2.35120E-03
  273.50      2.27610E-03
  274.50      2.32730E-03
  275.50      2.29950E-03
  276.50      2.29400E-03
  277.50      2.27200E-03
  278.50      2.22990E-03
  279.50      2.22580E-03
  280.50      2.22580E-03
  281.50      2.21010E-03
  282.50      2.18980E-03
  283.50      2.19440E-03
  284.50      2.18470E-03
  285.50      2.16390E-03
  286.50      2.10250E-03
  287.50      2.07520E-03
  288.50      2.10860E-03
  289.50      2.09410E-03
  291.00      2.09390E-03
  293.00      2.08670E-03
  295.00      2.06140E-03
  297.00      2.03580E-03
  299.00      2.00470E-03
  301.00      1.98430E-03
  303.00      1.94790E-03
  305.00      1.93650E-03
  307.00      1.88990E-03
  309.00      1.90050E-03
  311.00      1.87870E-03
  313.00      1.85920E-03
  315.00      1.84930E-03
  317.00      1.82900E-03
  319.00      1.81410E-03
  321.00      1.76190E-03
  323.00      1.78300E-03
  325.00      1.76480E-03
  327.00      1.72840E-03
  329.00      1.72430E-03
  331.00      1.70450E-03
  333.00      1.68470E-03
  335.00      1.65120E-03
  337.00      1.64610E-03
  339.00      1.62290E-03
  341.00      1.60460E-03
  343.00      1.60670E-03
  345.00      1.57670E-03
  347.00      1.56930E-03
  349.00      1.55360E-03
  351.00      1.54780E-03
  353.00      1.52540E-03
  355.00      1.51490E-03
  357.00      1.49710E-03
  359.00      1.48540E-03
  361.00      1.47160E-03
  363.00      1.45250E-03
  364.00      1.42530E-03
  365.00      1.28120E-03
  367.00      1.27080E-03
  369.00      1.26420E-03
  371.00      1.26340E-03
  373.00      1.28090E-03
  375.00      1.30520E-03
  377.00      1.32390E-03
  379.00      1.34660E-03
  381.00      1.36020E-03
  383.00      1.31050E-03
  385.00      1.35820E-03
  387.00      1.35520E-03
  389.00      1.26740E-03
  391.00      1.33690E-03
  393.00      1.31050E-03
  395.00      1.31020E-03
  397.00      1.21390E-03
  399.00      1.29220E-03
  401.00      1.28290E-03
  403.00      1.25270E-03
  405.00      1.25920E-03
  407.00      1.24920E-03
  409.00      1.21290E-03
  411.00      1.15540E-03
  413.00      1.21460E-03
  415.00      1.20860E-03
  417.00      1.19820E-03
  419.00      1.18580E-03
  421.00      1.16140E-03
  423.00      1.17170E-03
  425.00      1.16150E-03
  427.00      1.15220E-03
  429.00      1.14280E-03
  431.00      1.12880E-03
  433.00      1.09170E-03
  435.00      1.05260E-03
  437.00      1.09570E-03
  439.00      1.08370E-03
  441.00      1.07080E-03
  443.00      1.07230E-03
  445.00      1.06120E-03
  447.00      1.05620E-03
  449.00      1.04970E-03
  451.00      1.03680E-03
  453.00      1.02790E-03
  455.00      1.00370E-03
  457.00      1.01370E-03
  459.00      1.00600E-03
  461.00      1.00080E-03
  463.00      9.86040E-04
  465.00      9.64440E-04
  467.00      9.72960E-04
  469.00      9.36130E-04
  471.00      9.63320E-04
  473.00      9.58430E-04
  475.00      9.51550E-04
  477.00      9.44420E-04
  479.00      9.32340E-04
  481.00      9.29890E-04
  483.00      9.22260E-04
  485.00      9.03300E-04
  487.00      8.54790E-04
  489.00      9.01280E-04
  491.00      8.95240E-04
  493.00      8.89630E-04
  495.00      8.83930E-04
  497.00      8.77140E-04
  499.00      8.71840E-04
  501.00      8.63230E-04
  503.00      8.58450E-04
  505.00      8.50190E-04
  507.00      8.45500E-04
  509.00      8.40420E-04
  511.00      8.32300E-04
  513.00      8.24820E-04
  515.00      8.21190E-04
  517.00      8.18030E-04
  519.00      8.11950E-04
  521.00      8.04440E-04
  523.00      8.00720E-04
  525.00      7.93320E-04
  527.00      7.87990E-04
  529.00      7.84260E-04
  531.00      7.78790E-04
  533.00      7.73110E-04
  535.00      7.68620E-04
  537.00      7.62770E-04
  539.00      7.57690E-04
  541.00      7.38350E-04
  543.00      7.47950E-04
  545.00      7.42900E-04
  547.00      7.37000E-04
  549.00      7.32840E-04
  551.00      7.26850E-04
  553.00      7.23290E-04
  555.00      7.18660E-04
  557.00      7.11880E-04
  559.00      7.05540E-04
  561.00      7.04450E-04
  563.00      6.99670E-04
  565.00      6.95020E-04
  567.00      6.90330E-04
  569.00      6.74230E-04
  571.00      6.29580E-04
  573.00      6.25770E-04
  575.00      6.21450E-04
  577.00      6.18790E-04
  579.00      6.15840E-04
  581.00      6.05970E-04
  583.00      6.12300E-04
  585.00      6.12400E-04
  587.00      6.10650E-04
  589.00      6.12740E-04
  591.00      6.13460E-04
  593.00      6.14810E-04
  595.00      6.17300E-04
  597.00      6.18970E-04
  599.00      6.20430E-04
  601.00      6.18140E-04
  603.00      6.15770E-04
  605.00      6.12360E-04
  607.00      6.08520E-04
  609.00      6.06010E-04
  611.00      6.01280E-04
  613.00      5.97770E-04
  615.00      5.95340E-04
  617.00      5.89560E-04
  619.00      5.88810E-04
  621.00      5.85250E-04
  623.00      5.78650E-04
  625.00      5.77850E-04
  627.00      5.74810E-04
  629.00      5.71840E-04
  631.00      5.63980E-04
  633.00      5.64870E-04
  635.00      5.61770E-04
  637.00      5.58580E-04
  639.00      5.54160E-04
  641.00      5.46730E-04
  643.00      5.48920E-04
  645.00      5.45380E-04
  647.00      5.42120E-04
  649.00      5.39450E-04
  651.00      5.35750E-04
  653.00      5.26600E-04
  655.00      5.25100E-04
  657.00      4.91110E-04
  659.00      5.23460E-04
  661.00      5.21460E-04
  663.00      5.18530E-04
  665.00      5.15600E-04
  667.00      5.10900E-04
  669.00      5.02250E-04
  671.00      5.06030E-04
  673.00      5.03930E-04
  675.00      5.01070E-04
  677.00      4.98440E-04
  679.00      4.95910E-04
  681.00      4.93110E-04
  683.00      4.90470E-04
  685.00      4.87700E-04
  687.00      4.85000E-04
  689.00      4.74660E-04
  691.00      4.79520E-04
  693.00      4.77310E-04
  695.00      4.74660E-04
  697.00      4.72150E-04
  699.00      4.69560E-04
  701.00      4.66720E-04
  703.00      4.63500E-04
  705.00      4.61140E-04
  707.00      4.58850E-04
  709.00      4.57130E-04
  711.00      4.53240E-04
  713.00      4.51120E-04
  715.00      4.49920E-04
  717.00      4.41870E-04
  719.00      4.42380E-04
  721.00      4.42240E-04
  723.00      4.40610E-04
  725.00      4.38490E-04
  727.00      4.36230E-04
  729.00      4.33880E-04
  731.00      4.31090E-04
  733.00      4.29340E-04
  735.00      4.27360E-04
  737.00      4.24860E-04
  739.00      4.21920E-04
  741.00      4.20530E-04
  743.00      4.18700E-04
  745.00      4.15910E-04
  747.00      4.14220E-04
  749.00      4.11550E-04
  751.00      4.09990E-04
  753.00      4.08130E-04
  755.00      4.06040E-04
  757.00      4.03890E-04
  759.00      3.94570E-04
  761.00      3.99410E-04
  763.00      3.98010E-04
  765.00      3.96100E-04
  767.00      3.93690E-04
  769.00      3.91400E-04
  771.00      3.89410E-04
  773.00      3.87450E-04
  775.00      3.86010E-04
  777.00      3.84750E-04
  779.00      3.82530E-04
  781.00      3.81020E-04
  783.00      3.79110E-04
  785.00      3.76050E-04
  787.00      3.75140E-04
  789.00      3.73600E-04
  791.00      3.71960E-04
  793.00      3.70260E-04
  795.00      3.68180E-04
  797.00      3.66100E-04
  799.00      3.65000E-04
  801.00      3.63250E-04
  803.00      3.61150E-04
  805.00      3.59730E-04
  807.00      3.58180E-04
  809.00      3.56480E-04
  811.00      3.54830E-04
  813.00      3.53180E-04
  815.00      3.51540E-04
  817.00      3.49380E-04
  819.00      3.46350E-04
  821.00      3.28340E-04
  823.00      3.24370E-04
  825.00      3.24990E-04
  827.00      3.24010E-04
  829.00      3.22660E-04
  831.00      3.21310E-04
  833.00      3.19350E-04
  835.00      3.18400E-04
  837.00      3.17290E-04
  839.00      3.16100E-04
  841.00      3.15190E-04
  843.00      3.14190E-04
  845.00      3.13210E-04
  847.00      3.12310E-04
  849.00      3.11630E-04
  851.00      3.10400E-04
  853.00      3.10210E-04
  855.00      3.08940E-04
  857.00      3.08760E-04
  859.00      3.07680E-04
  861.00      3.06900E-04
  863.00      3.07490E-04
  865.00      3.06490E-04
  867.00      3.02910E-04
  869.00      3.06060E-04
  871.00      3.06060E-04
  873.00      3.05140E-04
  875.00      2.98450E-04
  877.00      3.03100E-04
  879.00      3.04250E-04
  881.00      3.03860E-04
  883.00      3.02880E-04
  885.00      2.98000E-04
  887.00      2.89880E-04
  889.00      2.98380E-04
  891.00      2.98280E-04
  893.00      2.96730E-04
  895.00      2.96120E-04
  897.00      2.95000E-04
  899.00      2.92450E-04
  901.00      2.80030E-04
  903.00      2.84730E-04
  905.00      2.89380E-04
  907.00      2.89000E-04
  909.00      2.87870E-04
  911.00      2.85740E-04
  913.00      2.85390E-04
  915.00      2.84380E-04
  917.00      2.82920E-04
  919.00      2.81460E-04
  921.00      2.77980E-04
  923.00      2.62620E-04
  925.00      2.74820E-04
  927.00      2.76780E-04
  929.00      2.76120E-04
  931.00      2.75030E-04
  933.00      2.73650E-04
  935.00      2.65990E-04
  937.00      2.69830E-04
  939.00      2.70360E-04
  941.00      2.69230E-04
  943.00      2.68260E-04
  945.00      2.67160E-04
  947.00      2.66200E-04
  949.00      2.64850E-04
  951.00      2.63430E-04
  953.00      2.59320E-04
  955.00      2.44440E-04
  957.00      2.58370E-04
  959.00      2.59500E-04
  961.00      2.58790E-04
  963.00      2.57660E-04
  965.00      2.56770E-04
  967.00      2.55770E-04
  969.00      2.54750E-04
  971.00      2.52440E-04
  973.00      2.52510E-04
  975.00      2.51300E-04
  977.00      2.48390E-04
  979.00      2.49750E-04
  981.00      2.48780E-04
  983.00      2.47610E-04
  985.00      2.46850E-04
  987.00      2.45890E-04
  989.00      2.44930E-04
  991.00      2.43910E-04
  993.00      2.43040E-04
  995.00      2.42100E-04
  997.00      2.41160E-04
  999.00      2.40230E-04
  1002.5      2.34960E-04
  1007.5      2.30370E-04
  1012.5      2.29450E-04
  1017.5      2.31860E-04
  1022.5      2.29650E-04
  1027.5      2.27340E-04
  1032.5      2.25230E-04
  1037.5      2.23300E-04
  1042.5      2.19780E-04
  1047.5      2.19230E-04
  1052.5      2.17210E-04
  1057.5      2.15240E-04
  1062.5      2.13290E-04
  1067.5      2.11360E-04
  1072.5      2.09460E-04
  1077.5      2.07580E-04
  1082.5      2.05500E-04
  1087.5      2.03820E-04
  1092.5      1.94700E-04
  1097.5      1.98920E-04
  1102.5      1.98560E-04
  1107.5      1.96830E-04
  1112.5      1.95120E-04
  1117.5      1.93570E-04
  1122.5      1.91870E-04
  1127.5      1.90190E-04
  1132.5      1.88540E-04
  1137.5      1.87000E-04
  1142.5      1.85420E-04
  1147.5      1.83870E-04
  1152.5      1.82320E-04
  1157.5      1.80680E-04
  1162.5      1.76980E-04
  1167.5      1.76130E-04
  1172.5      1.76280E-04
  1177.5      1.74870E-04
  1182.5      1.73280E-04
  1187.5      1.71990E-04
  1192.5      1.70590E-04
  1197.5      1.69040E-04
  1202.5      1.67870E-04
  1207.5      1.66460E-04
  1212.5      1.65080E-04
  1217.5      1.63850E-04
  1222.5      1.62520E-04
  1227.5      1.61270E-04
  1232.5      1.59980E-04
  1237.5      1.58740E-04
  1242.5      1.57490E-04
  1247.5      1.56270E-04
  1252.5      1.55050E-04
  1257.5      1.53840E-04
  1262.5      1.52660E-04
  1267.5      1.51490E-04
  1272.5      1.50320E-04
  1277.5      1.48740E-04
  1282.5      1.41830E-04
  1287.5      1.46720E-04
  1292.5      1.45820E-04
  1297.5      1.44720E-04
  1302.5      1.43640E-04
  1307.5      1.42570E-04
  1312.5      1.41510E-04
  1317.5      1.40460E-04
  1322.5      1.39430E-04
  1327.5      1.38400E-04
  1332.5      1.37390E-04
  1337.5      1.36390E-04
  1342.5      1.35380E-04
  1347.5      1.34410E-04
  1352.5      1.33440E-04
  1357.5      1.32480E-04
  1362.5      1.31530E-04
  1367.5      1.30590E-04
  1372.5      1.29650E-04
  1377.5      1.28740E-04
  1382.5      1.27830E-04
  1387.5      1.26930E-04
  1392.5      1.26040E-04
  1397.5      1.25160E-04
