 Castelli and Kurucz 2004-2012 Atmosphere
 T     41000.     G    4.50000 [+0.5] N(He)/Ntot=0.07813 VTURB=2.0  L/H=1.25 NO
 Wavelength  Eddington Hnu
   (nm)    (ergs/s/cm2/Hz/sr)
  9.0900      7.50250E-25
  9.3500      2.81520E-24
  9.6100      9.69850E-24
  9.7700      2.06250E-23
  9.9600      4.81550E-23
  10.200      1.34560E-22
  10.380      2.82440E-22
  10.560      5.78410E-22
  10.770      1.29600E-21
  11.040      3.49920E-21
  11.400      1.22470E-20
  11.780      4.23330E-20
  12.130      1.24660E-19
  12.480      3.44970E-19
  12.710      6.54080E-19
  12.840      9.29410E-19
  13.050      1.61160E-18
  13.240      2.61610E-18
  13.390      3.81540E-18
  13.660      7.28660E-18
  13.980      1.55190E-17
  14.330      3.36440E-17
  14.720      7.47620E-17
  15.100      1.67020E-16
  15.520      3.75040E-16
  15.880      7.28220E-16
  16.200      1.30280E-15
  16.600      2.61180E-15
  17.030      5.19430E-15
  17.340      8.41470E-15
  17.680      1.43740E-14
  18.020      2.37000E-14
  18.170      2.90570E-14
  18.610      5.47380E-14
  19.100      1.05440E-13
  19.390      1.55330E-13
  19.840      2.72340E-13
  20.180      4.00790E-13
  20.500      5.90360E-13
  21.050      1.09100E-12
  21.620      1.97280E-12
  21.980      2.88540E-12
  22.300      3.92450E-12
  22.680      5.86310E-12
  23.000      2.57090E-09
  23.400      6.55040E-09
  24.000      9.19220E-09
  24.650      1.41300E-08
  25.240      2.68990E-08
  25.680      4.17010E-08
  26.000      5.13910E-08
  26.400      1.42750E-07
  26.850      2.13500E-07
  27.350      2.75990E-07
  27.850      2.35700E-07
  28.400      5.52630E-07
  29.000      8.53160E-07
  29.600      8.31730E-07
  30.100      2.31890E-06
  30.800      1.08670E-05
  31.800      3.48130E-06
  32.800      6.59400E-06
  33.800      7.24760E-06
  34.800      9.30690E-06
  35.700      2.49920E-05
  36.600      6.78040E-05
  37.500      1.03660E-04
  38.500      9.86280E-05
  39.500      2.13310E-04
  40.500      4.40700E-04
  41.400      4.01920E-04
  42.200      3.92970E-04
  43.000      3.82070E-04
  44.100      5.10600E-04
  45.100      5.47700E-04
  46.000      4.22750E-04
  47.000      5.20530E-04
  48.000      6.75880E-04
  49.000      4.31100E-04
  50.000      8.03650E-04
  50.600      5.57160E-04
  51.200      9.96210E-04
  52.000      9.42940E-04
  53.000      8.74890E-04
  54.000      7.28820E-04
  55.000      6.05680E-04
  56.000      9.11730E-04
  57.000      1.26900E-03
  58.000      1.26820E-03
  59.000      1.30540E-03
  60.000      9.44800E-04
  61.000      9.01020E-04
  62.000      1.34450E-03
  63.000      1.24020E-03
  64.000      1.51410E-03
  65.000      1.40790E-03
  65.800      1.13460E-03
  66.500      1.51630E-03
  67.500      1.69060E-03
  68.500      1.35310E-03
  69.500      1.71070E-03
  70.500      1.30930E-03
  71.600      1.81340E-03
  72.600      1.87470E-03
  73.500      1.90870E-03
  74.500      1.76520E-03
  75.500      1.77220E-03
  76.500      1.54130E-03
  77.500      1.81690E-03
  78.500      1.51870E-03
  79.500      1.83660E-03
  80.500      1.88980E-03
  81.500      1.91400E-03
  82.500      1.97650E-03
  83.500      1.61100E-03
  84.500      1.93770E-03
  85.500      1.83160E-03
  86.500      2.00270E-03
  87.500      2.03660E-03
  88.500      2.02050E-03
  89.500      2.01780E-03
  90.500      1.97770E-03
  91.500      1.55090E-03
  92.500      2.52040E-03
  93.500      3.51420E-03
  94.500      3.93340E-03
  95.500      4.45790E-03
  96.500      4.80800E-03
  97.500      3.47140E-03
  98.500      4.28700E-03
  99.500      3.78360E-03
  100.50      3.81320E-03
  101.50      4.08670E-03
  102.50      3.87980E-03
  103.50      4.42240E-03
  104.50      4.73350E-03
  105.50      4.63310E-03
  106.50      4.39570E-03
  107.50      4.52150E-03
  108.50      4.20250E-03
  109.50      4.44020E-03
  110.50      4.37600E-03
  111.50      4.37550E-03
  112.50      4.15380E-03
  113.50      4.40620E-03
  114.50      4.48800E-03
  115.50      4.19060E-03
  116.50      3.99190E-03
  117.50      3.36810E-03
  118.50      3.90930E-03
  119.50      3.70740E-03
  120.50      3.70980E-03
  121.50      3.25620E-03
  122.50      3.59020E-03
  123.50      3.65450E-03
  124.50      3.59040E-03
  125.50      3.69640E-03
  126.50      3.82140E-03
  127.50      3.96640E-03
  128.50      3.97710E-03
  129.50      3.99530E-03
  130.50      3.89550E-03
  131.50      3.98010E-03
  132.50      3.95650E-03
  133.50      3.90480E-03
  134.50      3.92090E-03
  135.50      3.78390E-03
  136.50      3.68750E-03
  137.50      3.55150E-03
  138.50      3.59930E-03
  139.50      3.44000E-03
  140.50      3.28690E-03
  141.50      3.74690E-03
  142.50      3.41220E-03
  143.50      3.66040E-03
  144.20      3.48030E-03
  144.70      3.51820E-03
  145.50      3.41520E-03
  146.50      3.43430E-03
  147.50      3.48320E-03
  148.50      3.55230E-03
  149.50      3.46640E-03
  150.50      3.47470E-03
  151.20      3.47740E-03
  151.70      3.44190E-03
  152.50      3.42840E-03
  153.50      3.12180E-03
  154.50      2.47390E-03
  155.50      2.60440E-03
  156.50      3.03110E-03
  157.50      3.17890E-03
  158.50      3.16340E-03
  159.50      3.23710E-03
  160.50      3.08060E-03
  161.50      3.00610E-03
  162.50      3.10660E-03
  163.50      3.14060E-03
  164.50      3.08360E-03
  165.50      3.16390E-03
  166.50      3.12710E-03
  167.20      2.94840E-03
  167.70      3.33150E-03
  168.50      3.26360E-03
  169.50      3.24280E-03
  170.50      3.18230E-03
  171.50      3.03240E-03
  172.50      3.02180E-03
  173.50      3.15980E-03
  174.50      3.16250E-03
  175.50      3.12550E-03
  176.50      3.09680E-03
  177.50      3.03130E-03
  178.50      3.09380E-03
  179.50      3.01980E-03
  180.50      3.01130E-03
  181.50      2.97640E-03
  182.50      2.93970E-03
  183.50      2.95900E-03
  184.50      2.97800E-03
  185.50      2.98520E-03
  186.50      2.99350E-03
  187.50      2.92370E-03
  188.50      2.89370E-03
  189.50      2.95480E-03
  190.50      2.94830E-03
  191.50      2.93380E-03
  192.50      2.79860E-03
  193.50      2.92320E-03
  194.50      2.91890E-03
  195.50      2.78680E-03
  196.70      2.85520E-03
  197.60      2.83900E-03
  198.40      2.85780E-03
  199.50      2.82470E-03
  200.50      2.84460E-03
  201.50      2.82430E-03
  202.50      2.81330E-03
  203.50      2.77010E-03
  204.50      2.73870E-03
  205.50      2.02550E-03
  206.50      1.95910E-03
  207.40      2.04390E-03
  207.80      2.10280E-03
  208.50      2.30770E-03
  209.50      2.57450E-03
  210.50      2.61070E-03
  211.50      2.65120E-03
  212.50      2.61100E-03
  213.50      2.62500E-03
  214.50      2.60250E-03
  215.50      2.61350E-03
  216.50      2.47460E-03
  217.50      2.60080E-03
  218.50      2.50460E-03
  219.50      2.59330E-03
  220.50      2.57270E-03
  221.50      2.46070E-03
  222.50      2.53950E-03
  223.50      2.52600E-03
  224.50      2.49810E-03
  225.50      2.41700E-03
  226.50      2.47170E-03
  227.50      2.47900E-03
  228.50      2.42300E-03
  229.50      2.34270E-03
  230.50      2.33580E-03
  231.50      2.36010E-03
  232.50      2.38390E-03
  233.50      2.37080E-03
  234.50      2.33120E-03
  235.50      2.29190E-03
  236.50      2.26800E-03
  237.50      2.22690E-03
  238.50      2.12540E-03
  239.50      2.19170E-03
  240.50      2.18840E-03
  241.50      2.19310E-03
  242.50      2.21180E-03
  243.50      2.18800E-03
  244.50      2.17830E-03
  245.50      2.15310E-03
  246.50      2.14810E-03
  247.50      2.15920E-03
  248.50      2.10680E-03
  249.50      1.75660E-03
  250.50      2.07570E-03
  251.30      1.96240E-03
  251.80      2.03030E-03
  252.50      2.05590E-03
  253.50      2.07380E-03
  254.50      2.07030E-03
  255.50      2.05340E-03
  256.50      2.04380E-03
  257.50      2.02680E-03
  258.50      2.01850E-03
  259.50      1.96180E-03
  260.50      1.99860E-03
  261.50      1.95800E-03
  262.50      1.97780E-03
  263.50      1.97390E-03
  264.50      1.94440E-03
  265.50      1.94660E-03
  266.50      1.93240E-03
  267.50      1.88620E-03
  268.50      1.90440E-03
  269.50      1.88640E-03
  270.50      1.90110E-03
  271.50      1.88080E-03
  272.50      1.87260E-03
  273.50      1.81060E-03
  274.50      1.86000E-03
  275.50      1.84070E-03
  276.50      1.83230E-03
  277.50      1.82090E-03
  278.50      1.79000E-03
  279.50      1.76990E-03
  280.50      1.78250E-03
  281.50      1.77650E-03
  282.50      1.76220E-03
  283.50      1.75880E-03
  284.50      1.75590E-03
  285.50      1.74300E-03
  286.50      1.71380E-03
  287.50      1.70390E-03
  288.50      1.70860E-03
  289.50      1.69900E-03
  291.00      1.68450E-03
  293.00      1.67580E-03
  295.00      1.65730E-03
  297.00      1.63290E-03
  299.00      1.60260E-03
  301.00      1.58510E-03
  303.00      1.55520E-03
  305.00      1.55290E-03
  307.00      1.52910E-03
  309.00      1.52830E-03
  311.00      1.51690E-03
  313.00      1.49940E-03
  315.00      1.49290E-03
  317.00      1.47420E-03
  319.00      1.46470E-03
  321.00      1.41950E-03
  323.00      1.43410E-03
  325.00      1.42340E-03
  327.00      1.39130E-03
  329.00      1.38930E-03
  331.00      1.37280E-03
  333.00      1.35780E-03
  335.00      1.33010E-03
  337.00      1.32710E-03
  339.00      1.31760E-03
  341.00      1.30360E-03
  343.00      1.30090E-03
  345.00      1.27510E-03
  347.00      1.27360E-03
  349.00      1.26340E-03
  351.00      1.25580E-03
  353.00      1.23850E-03
  355.00      1.22820E-03
  357.00      1.21770E-03
  359.00      1.20710E-03
  361.00      1.19110E-03
  363.00      1.18090E-03
  364.00      1.15450E-03
  365.00      1.03670E-03
  367.00      1.02900E-03
  369.00      1.02280E-03
  371.00      1.01720E-03
  373.00      1.03400E-03
  375.00      1.05400E-03
  377.00      1.06810E-03
  379.00      1.09670E-03
  381.00      1.11440E-03
  383.00      1.06230E-03
  385.00      1.11740E-03
  387.00      1.10660E-03
  389.00      1.02430E-03
  391.00      1.10690E-03
  393.00      1.08280E-03
  395.00      1.07600E-03
  397.00      9.80630E-04
  399.00      1.06850E-03
  401.00      1.05860E-03
  403.00      1.03240E-03
  405.00      1.04350E-03
  407.00      1.02740E-03
  409.00      9.91040E-04
  411.00      9.39040E-04
  413.00      1.00080E-03
  415.00      9.96040E-04
  417.00      9.92710E-04
  419.00      9.81030E-04
  421.00      9.60590E-04
  423.00      9.71490E-04
  425.00      9.61240E-04
  427.00      9.53960E-04
  429.00      9.45930E-04
  431.00      9.32850E-04
  433.00      8.96950E-04
  435.00      8.60020E-04
  437.00      9.09780E-04
  439.00      8.96100E-04
  441.00      8.87490E-04
  443.00      8.89070E-04
  445.00      8.80480E-04
  447.00      8.71070E-04
  449.00      8.70010E-04
  451.00      8.53760E-04
  453.00      8.48310E-04
  455.00      8.27690E-04
  457.00      8.39910E-04
  459.00      8.31500E-04
  461.00      8.29340E-04
  463.00      8.16830E-04
  465.00      7.88160E-04
  467.00      8.06980E-04
  469.00      7.79090E-04
  471.00      8.00310E-04
  473.00      7.99820E-04
  475.00      7.94480E-04
  477.00      7.88290E-04
  479.00      7.81110E-04
  481.00      7.76170E-04
  483.00      7.69570E-04
  485.00      7.48450E-04
  487.00      7.01680E-04
  489.00      7.51180E-04
  491.00      7.46370E-04
  493.00      7.39350E-04
  495.00      7.36870E-04
  497.00      7.32610E-04
  499.00      7.28060E-04
  501.00      7.17930E-04
  503.00      7.15290E-04
  505.00      7.10350E-04
  507.00      7.06810E-04
  509.00      7.02260E-04
  511.00      6.97140E-04
  513.00      6.91630E-04
  515.00      6.86980E-04
  517.00      6.82780E-04
  519.00      6.78000E-04
  521.00      6.72990E-04
  523.00      6.69200E-04
  525.00      6.62090E-04
  527.00      6.57340E-04
  529.00      6.55510E-04
  531.00      6.50900E-04
  533.00      6.46300E-04
  535.00      6.42410E-04
  537.00      6.37910E-04
  539.00      6.33530E-04
  541.00      6.16150E-04
  543.00      6.25280E-04
  545.00      6.21240E-04
  547.00      6.16640E-04
  549.00      6.12990E-04
  551.00      6.07700E-04
  553.00      6.04980E-04
  555.00      6.01180E-04
  557.00      5.96080E-04
  559.00      5.90080E-04
  561.00      5.89560E-04
  563.00      5.85660E-04
  565.00      5.81860E-04
  567.00      5.78070E-04
  569.00      5.63160E-04
  571.00      5.26570E-04
  573.00      5.23490E-04
  575.00      5.20150E-04
  577.00      5.17690E-04
  579.00      5.15090E-04
  581.00      5.08700E-04
  583.00      5.11130E-04
  585.00      5.11700E-04
  587.00      5.06950E-04
  589.00      5.11740E-04
  591.00      5.12330E-04
  593.00      5.13380E-04
  595.00      5.15260E-04
  597.00      5.17030E-04
  599.00      5.18660E-04
  601.00      5.17590E-04
  603.00      5.15240E-04
  605.00      5.13100E-04
  607.00      5.09960E-04
  609.00      5.07860E-04
  611.00      5.03820E-04
  613.00      5.01110E-04
  615.00      4.98800E-04
  617.00      4.94180E-04
  619.00      4.93650E-04
  621.00      4.91050E-04
  623.00      4.85490E-04
  625.00      4.84560E-04
  627.00      4.82350E-04
  629.00      4.79620E-04
  631.00      4.73120E-04
  633.00      4.73900E-04
  635.00      4.71150E-04
  637.00      4.68680E-04
  639.00      4.65510E-04
  641.00      4.58860E-04
  643.00      4.60680E-04
  645.00      4.57310E-04
  647.00      4.54560E-04
  649.00      4.52520E-04
  651.00      4.49000E-04
  653.00      4.41840E-04
  655.00      4.38920E-04
  657.00      4.07520E-04
  659.00      4.38990E-04
  661.00      4.37760E-04
  663.00      4.35420E-04
  665.00      4.32950E-04
  667.00      4.27310E-04
  669.00      4.20420E-04
  671.00      4.24610E-04
  673.00      4.22480E-04
  675.00      4.20180E-04
  677.00      4.18550E-04
  679.00      4.16600E-04
  681.00      4.14330E-04
  683.00      4.12090E-04
  685.00      4.09680E-04
  687.00      4.07200E-04
  689.00      3.98560E-04
  691.00      4.02720E-04
  693.00      4.01150E-04
  695.00      3.98910E-04
  697.00      3.96890E-04
  699.00      3.94700E-04
  701.00      3.92180E-04
  703.00      3.89350E-04
  705.00      3.87820E-04
  707.00      3.83920E-04
  709.00      3.84470E-04
  711.00      3.82090E-04
  713.00      3.80090E-04
  715.00      3.78510E-04
  717.00      3.72020E-04
  719.00      3.72050E-04
  721.00      3.72640E-04
  723.00      3.70620E-04
  725.00      3.68800E-04
  727.00      3.66940E-04
  729.00      3.64310E-04
  731.00      3.62610E-04
  733.00      3.61320E-04
  735.00      3.59530E-04
  737.00      3.57350E-04
  739.00      3.55590E-04
  741.00      3.53770E-04
  743.00      3.52350E-04
  745.00      3.49840E-04
  747.00      3.48460E-04
  749.00      3.45500E-04
  751.00      3.44910E-04
  753.00      3.43370E-04
  755.00      3.41630E-04
  757.00      3.39670E-04
  759.00      3.31800E-04
  761.00      3.35800E-04
  763.00      3.34840E-04
  765.00      3.33320E-04
  767.00      3.31680E-04
  769.00      3.29160E-04
  771.00      3.28020E-04
  773.00      3.25810E-04
  775.00      3.24780E-04
  777.00      3.23940E-04
  779.00      3.21990E-04
  781.00      3.20850E-04
  783.00      3.19210E-04
  785.00      3.16250E-04
  787.00      3.15700E-04
  789.00      3.14590E-04
  791.00      3.13330E-04
  793.00      3.11920E-04
  795.00      3.10390E-04
  797.00      3.08330E-04
  799.00      3.07480E-04
  801.00      3.06070E-04
  803.00      3.04230E-04
  805.00      3.03260E-04
  807.00      3.01830E-04
  809.00      3.00440E-04
  811.00      2.98990E-04
  813.00      2.97670E-04
  815.00      2.96270E-04
  817.00      2.94420E-04
  819.00      2.91970E-04
  821.00      2.77890E-04
  823.00      2.74580E-04
  825.00      2.75040E-04
  827.00      2.74140E-04
  829.00      2.73130E-04
  831.00      2.72080E-04
  833.00      2.70100E-04
  835.00      2.69120E-04
  837.00      2.68500E-04
  839.00      2.67670E-04
  841.00      2.66740E-04
  843.00      2.65870E-04
  845.00      2.64860E-04
  847.00      2.64150E-04
  849.00      2.63470E-04
  851.00      2.61900E-04
  853.00      2.62160E-04
  855.00      2.60990E-04
  857.00      2.60910E-04
  859.00      2.59520E-04
  861.00      2.59030E-04
  863.00      2.59850E-04
  865.00      2.58560E-04
  867.00      2.54900E-04
  869.00      2.58420E-04
  871.00      2.58570E-04
  873.00      2.57240E-04
  875.00      2.50300E-04
  877.00      2.55280E-04
  879.00      2.57050E-04
  881.00      2.56770E-04
  883.00      2.55870E-04
  885.00      2.50500E-04
  887.00      2.42530E-04
  889.00      2.51970E-04
  891.00      2.52340E-04
  893.00      2.51110E-04
  895.00      2.50320E-04
  897.00      2.49460E-04
  899.00      2.46890E-04
  901.00      2.34130E-04
  903.00      2.39160E-04
  905.00      2.44730E-04
  907.00      2.44160E-04
  909.00      2.43580E-04
  911.00      2.42140E-04
  913.00      2.41750E-04
  915.00      2.41010E-04
  917.00      2.39570E-04
  919.00      2.38170E-04
  921.00      2.34140E-04
  923.00      2.19100E-04
  925.00      2.31610E-04
  927.00      2.34150E-04
  929.00      2.33810E-04
  931.00      2.32890E-04
  933.00      2.31770E-04
  935.00      2.25420E-04
  937.00      2.28630E-04
  939.00      2.29050E-04
  941.00      2.27900E-04
  943.00      2.27200E-04
  945.00      2.26480E-04
  947.00      2.25410E-04
  949.00      2.24490E-04
  951.00      2.22540E-04
  953.00      2.18230E-04
  955.00      2.03980E-04
  957.00      2.18060E-04
  959.00      2.19640E-04
  961.00      2.19200E-04
  963.00      2.18110E-04
  965.00      2.17660E-04
  967.00      2.16900E-04
  969.00      2.16030E-04
  971.00      2.11700E-04
  973.00      2.13710E-04
  975.00      2.13090E-04
  977.00      2.10890E-04
  979.00      2.11800E-04
  981.00      2.10980E-04
  983.00      2.09980E-04
  985.00      2.09350E-04
  987.00      2.08580E-04
  989.00      2.07710E-04
  991.00      2.06800E-04
  993.00      2.06160E-04
  995.00      2.05380E-04
  997.00      2.04580E-04
  999.00      2.03790E-04
  1002.5      1.98150E-04
  1007.5      1.94150E-04
  1012.5      1.94520E-04
  1017.5      1.96760E-04
  1022.5      1.94880E-04
  1027.5      1.92900E-04
  1032.5      1.90930E-04
  1037.5      1.89530E-04
  1042.5      1.86680E-04
  1047.5      1.86110E-04
  1052.5      1.84380E-04
  1057.5      1.82720E-04
  1062.5      1.81080E-04
  1067.5      1.79420E-04
  1072.5      1.77850E-04
  1077.5      1.76270E-04
  1082.5      1.73880E-04
  1087.5      1.72980E-04
  1092.5      1.63820E-04
  1097.5      1.68300E-04
  1102.5      1.68520E-04
  1107.5      1.67200E-04
  1112.5      1.65750E-04
  1117.5      1.64450E-04
  1122.5      1.62990E-04
  1127.5      1.61580E-04
  1132.5      1.60180E-04
  1137.5      1.58870E-04
  1142.5      1.57560E-04
  1147.5      1.56250E-04
  1152.5      1.54960E-04
  1157.5      1.53510E-04
  1162.5      1.50480E-04
  1167.5      1.49720E-04
  1172.5      1.49860E-04
  1177.5      1.48670E-04
  1182.5      1.47280E-04
  1187.5      1.46220E-04
  1192.5      1.45030E-04
  1197.5      1.43200E-04
  1202.5      1.42750E-04
  1207.5      1.41550E-04
  1212.5      1.40360E-04
  1217.5      1.39360E-04
  1222.5      1.38220E-04
  1227.5      1.37180E-04
  1232.5      1.36090E-04
  1237.5      1.35040E-04
  1242.5      1.33990E-04
  1247.5      1.32950E-04
  1252.5      1.31860E-04
  1257.5      1.30860E-04
  1262.5      1.29900E-04
  1267.5      1.28920E-04
  1272.5      1.27920E-04
  1277.5      1.26010E-04
  1282.5      1.19750E-04
  1287.5      1.24780E-04
  1292.5      1.24120E-04
  1297.5      1.23050E-04
  1302.5      1.22260E-04
  1307.5      1.21370E-04
  1312.5      1.20480E-04
  1317.5      1.19580E-04
  1322.5      1.18710E-04
  1327.5      1.17840E-04
  1332.5      1.16980E-04
  1337.5      1.16130E-04
  1342.5      1.15280E-04
  1347.5      1.14460E-04
  1352.5      1.13630E-04
  1357.5      1.12830E-04
  1362.5      1.12020E-04
  1367.5      1.11230E-04
  1372.5      1.10400E-04
  1377.5      1.09660E-04
  1382.5      1.08890E-04
  1387.5      1.08130E-04
  1392.5      1.07360E-04
  1397.5      1.06620E-04
