 Castelli and Kurucz 2004-2012 Atmosphere
 T     34000.     G    4.00000 [+0.5] N(He)/Ntot=0.07813 VTURB=2.0  L/H=1.25 NO
 Wavelength  Eddington Hnu
   (nm)    (ergs/s/cm2/Hz/sr)
  9.0900      4.24340E-31
  9.3500      2.23260E-30
  9.6100      1.07420E-29
  9.7700      2.75040E-29
  9.9600      8.03890E-29
  10.200      2.95930E-28
  10.380      7.59510E-28
  10.560      1.89400E-27
  10.770      5.31000E-27
  11.040      1.89680E-26
  11.400      9.51020E-26
  11.780      4.74040E-25
  12.130      1.91930E-24
  12.480      7.22460E-24
  12.710      1.66420E-23
  12.840      2.63420E-23
  13.050      5.42470E-23
  13.240      1.02580E-22
  13.390      1.67600E-22
  13.660      3.94870E-22
  13.980      1.05060E-21
  14.330      2.91520E-21
  14.720      8.54420E-21
  15.100      2.35200E-20
  15.520      6.75210E-20
  15.880      1.59820E-19
  16.200      3.32350E-19
  16.600      8.05600E-19
  17.030      1.97810E-18
  17.340      3.70990E-18
  17.680      7.26180E-18
  18.020      1.37170E-17
  18.170      1.82870E-17
  18.610      3.98170E-17
  19.100      9.11990E-17
  19.390      1.46150E-16
  19.840      2.97610E-16
  20.180      4.94690E-16
  20.500      7.87800E-16
  21.050      1.70160E-15
  21.620      3.58470E-15
  21.980      5.74020E-15
  22.300      8.52510E-15
  22.680      1.40220E-14
  23.000      5.30470E-12
  23.400      1.12140E-11
  24.000      1.77180E-11
  24.650      2.95580E-11
  25.240      5.00930E-11
  25.680      7.46990E-11
  26.000      1.36230E-10
  26.400      3.25840E-10
  26.850      5.22890E-10
  27.350      7.01450E-10
  27.850      8.10430E-10
  28.400      1.73670E-09
  29.000      2.52200E-09
  29.600      3.23840E-09
  30.100      9.75300E-09
  30.800      2.21300E-08
  31.800      5.38390E-08
  32.800      8.07820E-08
  33.800      1.68700E-07
  34.800      2.73020E-07
  35.700      6.27800E-07
  36.600      1.66380E-06
  37.500      1.92830E-06
  38.500      2.71190E-06
  39.500      6.66850E-06
  40.500      1.08140E-05
  41.400      1.20390E-05
  42.200      1.41700E-05
  43.000      1.42140E-05
  44.100      1.84740E-05
  45.100      1.91240E-05
  46.000      1.68630E-05
  47.000      2.09020E-05
  48.000      2.63770E-05
  49.000      2.13570E-05
  50.000      3.05510E-05
  50.600      3.11370E-05
  51.200      1.51400E-04
  52.000      1.47710E-04
  53.000      1.36720E-04
  54.000      1.24480E-04
  55.000      1.28030E-04
  56.000      1.99050E-04
  57.000      2.61890E-04
  58.000      2.53250E-04
  59.000      2.67210E-04
  60.000      1.72350E-04
  61.000      2.27090E-04
  62.000      3.30260E-04
  63.000      3.20270E-04
  64.000      3.54480E-04
  65.000      3.29610E-04
  65.800      2.32790E-04
  66.500      3.42640E-04
  67.500      4.34940E-04
  68.500      2.97690E-04
  69.500      4.53110E-04
  70.500      3.04650E-04
  71.600      5.26450E-04
  72.600      5.31280E-04
  73.500      5.44700E-04
  74.500      4.76020E-04
  75.500      4.94750E-04
  76.500      4.76050E-04
  77.500      5.49430E-04
  78.500      5.25740E-04
  79.500      5.99570E-04
  80.500      5.70170E-04
  81.500      5.76790E-04
  82.500      6.36410E-04
  83.500      4.62810E-04
  84.500      6.17000E-04
  85.500      6.09480E-04
  86.500      6.57490E-04
  87.500      6.72830E-04
  88.500      6.91780E-04
  89.500      7.02230E-04
  90.500      6.86810E-04
  91.500      6.76850E-04
  92.500      1.36980E-03
  93.500      2.04550E-03
  94.500      2.29630E-03
  95.500      2.48490E-03
  96.500      2.70720E-03
  97.500      1.36330E-03
  98.500      2.20770E-03
  99.500      2.02960E-03
  100.50      2.12120E-03
  101.50      2.32520E-03
  102.50      2.16670E-03
  103.50      2.43020E-03
  104.50      2.75960E-03
  105.50      2.65550E-03
  106.50      2.40700E-03
  107.50      2.48660E-03
  108.50      2.34870E-03
  109.50      2.48490E-03
  110.50      2.43610E-03
  111.50      2.43010E-03
  112.50      2.07200E-03
  113.50      2.41760E-03
  114.50      2.45310E-03
  115.50      2.30240E-03
  116.50      2.24910E-03
  117.50      1.54120E-03
  118.50      2.11240E-03
  119.50      2.07190E-03
  120.50      2.05390E-03
  121.50      1.82510E-03
  122.50      2.02950E-03
  123.50      2.18090E-03
  124.50      2.12620E-03
  125.50      2.15460E-03
  126.50      2.26430E-03
  127.50      2.40120E-03
  128.50      2.43620E-03
  129.50      2.36570E-03
  130.50      2.34820E-03
  131.50      2.50570E-03
  132.50      2.47460E-03
  133.50      2.42050E-03
  134.50      2.47300E-03
  135.50      2.40720E-03
  136.50      2.37400E-03
  137.50      2.30510E-03
  138.50      2.28210E-03
  139.50      1.91300E-03
  140.50      1.92980E-03
  141.50      2.31960E-03
  142.50      2.08210E-03
  143.50      2.27420E-03
  144.20      2.21320E-03
  144.70      2.22900E-03
  145.50      2.13660E-03
  146.50      2.12250E-03
  147.50      2.18890E-03
  148.50      2.22670E-03
  149.50      2.17490E-03
  150.50      2.15970E-03
  151.20      2.14730E-03
  151.70      2.17960E-03
  152.50      2.10510E-03
  153.50      1.85270E-03
  154.50      1.44470E-03
  155.50      1.51190E-03
  156.50      1.82630E-03
  157.50      1.95390E-03
  158.50      1.99240E-03
  159.50      2.01000E-03
  160.50      1.91030E-03
  161.50      1.84330E-03
  162.50      1.92250E-03
  163.50      1.96880E-03
  164.50      1.99270E-03
  165.50      1.99830E-03
  166.50      1.99470E-03
  167.20      1.82590E-03
  167.70      2.19980E-03
  168.50      2.10290E-03
  169.50      2.06020E-03
  170.50      2.06460E-03
  171.50      1.95240E-03
  172.50      1.92310E-03
  173.50      2.01780E-03
  174.50      2.02590E-03
  175.50      2.01290E-03
  176.50      2.01170E-03
  177.50      1.95050E-03
  178.50      2.01190E-03
  179.50      1.97120E-03
  180.50      1.97910E-03
  181.50      1.95540E-03
  182.50      1.93110E-03
  183.50      1.95600E-03
  184.50      1.91640E-03
  185.50      1.96610E-03
  186.50      1.97870E-03
  187.50      1.93800E-03
  188.50      1.88030E-03
  189.50      1.89320E-03
  190.50      1.93970E-03
  191.50      1.91700E-03
  192.50      1.80990E-03
  193.50      1.93810E-03
  194.50      1.96170E-03
  195.50      1.80060E-03
  196.70      1.90940E-03
  197.60      1.94240E-03
  198.40      1.92120E-03
  199.50      1.88500E-03
  200.50      1.94090E-03
  201.50      1.94420E-03
  202.50      1.95280E-03
  203.50      1.90030E-03
  204.50      1.88560E-03
  205.50      1.48710E-03
  206.50      1.45080E-03
  207.40      1.54340E-03
  207.80      1.55540E-03
  208.50      1.71300E-03
  209.50      1.80270E-03
  210.50      1.82400E-03
  211.50      1.86800E-03
  212.50      1.84350E-03
  213.50      1.85250E-03
  214.50      1.83430E-03
  215.50      1.84780E-03
  216.50      1.77340E-03
  217.50      1.83500E-03
  218.50      1.79430E-03
  219.50      1.84570E-03
  220.50      1.83120E-03
  221.50      1.77550E-03
  222.50      1.80360E-03
  223.50      1.79310E-03
  224.50      1.77350E-03
  225.50      1.74120E-03
  226.50      1.76270E-03
  227.50      1.76760E-03
  228.50      1.72950E-03
  229.50      1.56840E-03
  230.50      1.68100E-03
  231.50      1.68460E-03
  232.50      1.70250E-03
  233.50      1.68930E-03
  234.50      1.67010E-03
  235.50      1.64090E-03
  236.50      1.62350E-03
  237.50      1.59550E-03
  238.50      1.53870E-03
  239.50      1.56890E-03
  240.50      1.57930E-03
  241.50      1.58100E-03
  242.50      1.59030E-03
  243.50      1.57510E-03
  244.50      1.56930E-03
  245.50      1.55850E-03
  246.50      1.54960E-03
  247.50      1.54650E-03
  248.50      1.48980E-03
  249.50      1.07530E-03
  250.50      1.43920E-03
  251.30      1.43040E-03
  251.80      1.45930E-03
  252.50      1.49530E-03
  253.50      1.50180E-03
  254.50      1.48990E-03
  255.50      1.48100E-03
  256.50      1.47520E-03
  257.50      1.46660E-03
  258.50      1.46040E-03
  259.50      1.43630E-03
  260.50      1.45010E-03
  261.50      1.42480E-03
  262.50      1.43280E-03
  263.50      1.43380E-03
  264.50      1.41470E-03
  265.50      1.41360E-03
  266.50      1.39620E-03
  267.50      1.36460E-03
  268.50      1.38680E-03
  269.50      1.36880E-03
  270.50      1.37420E-03
  271.50      1.36000E-03
  272.50      1.36020E-03
  273.50      1.33160E-03
  274.50      1.35410E-03
  275.50      1.34320E-03
  276.50      1.33380E-03
  277.50      1.33540E-03
  278.50      1.31600E-03
  279.50      1.28680E-03
  280.50      1.30500E-03
  281.50      1.30540E-03
  282.50      1.29890E-03
  283.50      1.28640E-03
  284.50      1.28980E-03
  285.50      1.28030E-03
  286.50      1.26250E-03
  287.50      1.25910E-03
  288.50      1.25760E-03
  289.50      1.25270E-03
  291.00      1.23580E-03
  293.00      1.23480E-03
  295.00      1.21920E-03
  297.00      1.20420E-03
  299.00      1.18130E-03
  301.00      1.16410E-03
  303.00      1.14650E-03
  305.00      1.14870E-03
  307.00      1.13950E-03
  309.00      1.12890E-03
  311.00      1.12730E-03
  313.00      1.11260E-03
  315.00      1.10910E-03
  317.00      1.09520E-03
  319.00      1.08910E-03
  321.00      1.06520E-03
  323.00      1.06470E-03
  325.00      1.06120E-03
  327.00      1.03830E-03
  329.00      1.03670E-03
  331.00      1.02460E-03
  333.00      1.01350E-03
  335.00      9.95180E-04
  337.00      9.91050E-04
  339.00      9.90840E-04
  341.00      9.80440E-04
  343.00      9.76630E-04
  345.00      9.59500E-04
  347.00      9.57270E-04
  349.00      9.50200E-04
  351.00      9.43000E-04
  353.00      9.33930E-04
  355.00      9.25400E-04
  357.00      9.17910E-04
  359.00      9.08420E-04
  361.00      8.96540E-04
  363.00      8.91130E-04
  364.00      8.79660E-04
  365.00      8.19000E-04
  367.00      8.13750E-04
  369.00      8.08180E-04
  371.00      7.96610E-04
  373.00      8.01730E-04
  375.00      8.19460E-04
  377.00      8.22480E-04
  379.00      8.45840E-04
  381.00      8.62770E-04
  383.00      8.12830E-04
  385.00      8.66400E-04
  387.00      8.48110E-04
  389.00      7.89850E-04
  391.00      8.57820E-04
  393.00      8.37270E-04
  395.00      8.29010E-04
  397.00      7.56860E-04
  399.00      8.27530E-04
  401.00      8.18720E-04
  403.00      8.00930E-04
  405.00      8.06970E-04
  407.00      7.86960E-04
  409.00      7.61330E-04
  411.00      7.22940E-04
  413.00      7.70390E-04
  415.00      7.67540E-04
  417.00      7.69110E-04
  419.00      7.62000E-04
  421.00      7.51330E-04
  423.00      7.54070E-04
  425.00      7.42280E-04
  427.00      7.34650E-04
  429.00      7.29070E-04
  431.00      7.17120E-04
  433.00      6.95010E-04
  435.00      6.62480E-04
  437.00      7.04120E-04
  439.00      6.94690E-04
  441.00      6.89170E-04
  443.00      6.92140E-04
  445.00      6.85200E-04
  447.00      6.75700E-04
  449.00      6.77700E-04
  451.00      6.63490E-04
  453.00      6.62450E-04
  455.00      6.51640E-04
  457.00      6.56980E-04
  459.00      6.48860E-04
  461.00      6.46240E-04
  463.00      6.37160E-04
  465.00      6.07550E-04
  467.00      6.28670E-04
  469.00      6.17510E-04
  471.00      6.21720E-04
  473.00      6.27510E-04
  475.00      6.22910E-04
  477.00      6.19860E-04
  479.00      6.15200E-04
  481.00      6.10000E-04
  483.00      6.04720E-04
  485.00      5.90430E-04
  487.00      5.49790E-04
  489.00      5.91070E-04
  491.00      5.86840E-04
  493.00      5.79110E-04
  495.00      5.78140E-04
  497.00      5.77620E-04
  499.00      5.73920E-04
  501.00      5.61740E-04
  503.00      5.63020E-04
  505.00      5.59250E-04
  507.00      5.58000E-04
  509.00      5.54190E-04
  511.00      5.50230E-04
  513.00      5.45750E-04
  515.00      5.42150E-04
  517.00      5.38470E-04
  519.00      5.35290E-04
  521.00      5.32030E-04
  523.00      5.28830E-04
  525.00      5.22680E-04
  527.00      5.19160E-04
  529.00      5.18400E-04
  531.00      5.14770E-04
  533.00      5.11420E-04
  535.00      5.08390E-04
  537.00      5.04890E-04
  539.00      5.01330E-04
  541.00      4.91990E-04
  543.00      4.95400E-04
  545.00      4.92140E-04
  547.00      4.88650E-04
  549.00      4.85710E-04
  551.00      4.82010E-04
  553.00      4.79420E-04
  555.00      4.76770E-04
  557.00      4.73010E-04
  559.00      4.68550E-04
  561.00      4.67890E-04
  563.00      4.64870E-04
  565.00      4.61820E-04
  567.00      4.58380E-04
  569.00      4.47270E-04
  571.00      4.32140E-04
  573.00      4.29820E-04
  575.00      4.26730E-04
  577.00      4.25210E-04
  579.00      4.22790E-04
  581.00      4.18690E-04
  583.00      4.18130E-04
  585.00      4.18730E-04
  587.00      4.11490E-04
  589.00      4.16480E-04
  591.00      4.16220E-04
  593.00      4.15690E-04
  595.00      4.15800E-04
  597.00      4.16250E-04
  599.00      4.14730E-04
  601.00      4.13500E-04
  603.00      4.10440E-04
  605.00      4.08300E-04
  607.00      4.06050E-04
  609.00      4.04260E-04
  611.00      4.01200E-04
  613.00      3.99130E-04
  615.00      3.96470E-04
  617.00      3.93640E-04
  619.00      3.92900E-04
  621.00      3.90940E-04
  623.00      3.87430E-04
  625.00      3.85900E-04
  627.00      3.84060E-04
  629.00      3.81970E-04
  631.00      3.77910E-04
  633.00      3.77720E-04
  635.00      3.75200E-04
  637.00      3.73540E-04
  639.00      3.71330E-04
  641.00      3.67560E-04
  643.00      3.67330E-04
  645.00      3.64580E-04
  647.00      3.62060E-04
  649.00      3.60430E-04
  651.00      3.57920E-04
  653.00      3.54390E-04
  655.00      3.50870E-04
  657.00      3.23270E-04
  659.00      3.49870E-04
  661.00      3.49120E-04
  663.00      3.47510E-04
  665.00      3.45440E-04
  667.00      3.40460E-04
  669.00      3.37150E-04
  671.00      3.38930E-04
  673.00      3.36540E-04
  675.00      3.35260E-04
  677.00      3.34290E-04
  679.00      3.32400E-04
  681.00      3.31040E-04
  683.00      3.29260E-04
  685.00      3.27380E-04
  687.00      3.25320E-04
  689.00      3.21040E-04
  691.00      3.21530E-04
  693.00      3.20800E-04
  695.00      3.19040E-04
  697.00      3.17440E-04
  699.00      3.15730E-04
  701.00      3.13650E-04
  703.00      3.11240E-04
  705.00      3.10220E-04
  707.00      3.05590E-04
  709.00      3.07670E-04
  711.00      3.05560E-04
  713.00      3.04190E-04
  715.00      3.03010E-04
  717.00      2.99700E-04
  719.00      2.99110E-04
  721.00      2.98410E-04
  723.00      2.95510E-04
  725.00      2.95100E-04
  727.00      2.93900E-04
  729.00      2.90940E-04
  731.00      2.90590E-04
  733.00      2.89430E-04
  735.00      2.88030E-04
  737.00      2.86470E-04
  739.00      2.85160E-04
  741.00      2.83640E-04
  743.00      2.82390E-04
  745.00      2.80590E-04
  747.00      2.79090E-04
  749.00      2.76750E-04
  751.00      2.76610E-04
  753.00      2.75250E-04
  755.00      2.74020E-04
  757.00      2.72500E-04
  759.00      2.68580E-04
  761.00      2.69370E-04
  763.00      2.68450E-04
  765.00      2.67300E-04
  767.00      2.66170E-04
  769.00      2.64010E-04
  771.00      2.63130E-04
  773.00      2.61360E-04
  775.00      2.60760E-04
  777.00      2.59960E-04
  779.00      2.58530E-04
  781.00      2.57490E-04
  783.00      2.56270E-04
  785.00      2.54290E-04
  787.00      2.53360E-04
  789.00      2.52350E-04
  791.00      2.51480E-04
  793.00      2.50310E-04
  795.00      2.49340E-04
  797.00      2.47830E-04
  799.00      2.46930E-04
  801.00      2.45800E-04
  803.00      2.44330E-04
  805.00      2.43630E-04
  807.00      2.42510E-04
  809.00      2.41270E-04
  811.00      2.39650E-04
  813.00      2.39210E-04
  815.00      2.37940E-04
  817.00      2.36820E-04
  819.00      2.34910E-04
  821.00      2.28760E-04
  823.00      2.26590E-04
  825.00      2.26770E-04
  827.00      2.25240E-04
  829.00      2.24910E-04
  831.00      2.24200E-04
  833.00      2.22410E-04
  835.00      2.21010E-04
  837.00      2.20880E-04
  839.00      2.20480E-04
  841.00      2.19520E-04
  843.00      2.18780E-04
  845.00      2.17490E-04
  847.00      2.17070E-04
  849.00      2.16350E-04
  851.00      2.14070E-04
  853.00      2.15040E-04
  855.00      2.12920E-04
  857.00      2.14280E-04
  859.00      2.10960E-04
  861.00      2.10610E-04
  863.00      2.13160E-04
  865.00      2.10870E-04
  867.00      2.04240E-04
  869.00      2.11300E-04
  871.00      2.11520E-04
  873.00      2.09280E-04
  875.00      1.98350E-04
  877.00      2.06710E-04
  879.00      2.09300E-04
  881.00      2.08820E-04
  883.00      2.07520E-04
  885.00      2.01640E-04
  887.00      1.91960E-04
  889.00      2.04400E-04
  891.00      2.04630E-04
  893.00      2.03640E-04
  895.00      2.02980E-04
  897.00      2.02340E-04
  899.00      1.99830E-04
  901.00      1.86220E-04
  903.00      1.92840E-04
  905.00      1.98540E-04
  907.00      1.97280E-04
  909.00      1.97170E-04
  911.00      1.96610E-04
  913.00      1.96020E-04
  915.00      1.95340E-04
  917.00      1.94120E-04
  919.00      1.93230E-04
  921.00      1.89190E-04
  923.00      1.74160E-04
  925.00      1.87750E-04
  927.00      1.90000E-04
  929.00      1.89520E-04
  931.00      1.88500E-04
  933.00      1.87940E-04
  935.00      1.85050E-04
  937.00      1.85860E-04
  939.00      1.85820E-04
  941.00      1.84650E-04
  943.00      1.84130E-04
  945.00      1.83550E-04
  947.00      1.82450E-04
  949.00      1.82020E-04
  951.00      1.80040E-04
  953.00      1.76530E-04
  955.00      1.62870E-04
  957.00      1.77070E-04
  959.00      1.78340E-04
  961.00      1.77540E-04
  963.00      1.76510E-04
  965.00      1.76580E-04
  967.00      1.76010E-04
  969.00      1.75240E-04
  971.00      1.69720E-04
  973.00      1.73050E-04
  975.00      1.73210E-04
  977.00      1.72020E-04
  979.00      1.71900E-04
  981.00      1.71210E-04
  983.00      1.70500E-04
  985.00      1.69880E-04
  987.00      1.69230E-04
  989.00      1.68370E-04
  991.00      1.67410E-04
  993.00      1.67350E-04
  995.00      1.66750E-04
  997.00      1.66000E-04
  999.00      1.65440E-04
  1002.5      1.60440E-04
  1007.5      1.57080E-04
  1012.5      1.58990E-04
  1017.5      1.59830E-04
  1022.5      1.58250E-04
  1027.5      1.56730E-04
  1032.5      1.54940E-04
  1037.5      1.54010E-04
  1042.5      1.52290E-04
  1047.5      1.51240E-04
  1052.5      1.49820E-04
  1057.5      1.48510E-04
  1062.5      1.47170E-04
  1067.5      1.45770E-04
  1072.5      1.44590E-04
  1077.5      1.43290E-04
  1082.5      1.40890E-04
  1087.5      1.40660E-04
  1092.5      1.32370E-04
  1097.5      1.36780E-04
  1102.5      1.36810E-04
  1107.5      1.35970E-04
  1112.5      1.34790E-04
  1117.5      1.33710E-04
  1122.5      1.32520E-04
  1127.5      1.31410E-04
  1132.5      1.30220E-04
  1137.5      1.29170E-04
  1142.5      1.28110E-04
  1147.5      1.27060E-04
  1152.5      1.26040E-04
  1157.5      1.24870E-04
  1162.5      1.23240E-04
  1167.5      1.22400E-04
  1172.5      1.21950E-04
  1177.5      1.20960E-04
  1182.5      1.19850E-04
  1187.5      1.18970E-04
  1192.5      1.18010E-04
  1197.5      1.16080E-04
  1202.5      1.16180E-04
  1207.5      1.15210E-04
  1212.5      1.14210E-04
  1217.5      1.13440E-04
  1222.5      1.12530E-04
  1227.5      1.11680E-04
  1232.5      1.10770E-04
  1237.5      1.09930E-04
  1242.5      1.09100E-04
  1247.5      1.08240E-04
  1252.5      1.07230E-04
  1257.5      1.06510E-04
  1262.5      1.05760E-04
  1267.5      1.04980E-04
  1272.5      1.04180E-04
  1277.5      1.02330E-04
  1282.5      9.72290E-05
  1287.5      1.01650E-04
  1292.5      1.01100E-04
  1297.5      9.99790E-05
  1302.5      9.95370E-05
  1307.5      9.88790E-05
  1312.5      9.81540E-05
  1317.5      9.74310E-05
  1322.5      9.67250E-05
  1327.5      9.60220E-05
  1332.5      9.53040E-05
  1337.5      9.46060E-05
  1342.5      9.38930E-05
  1347.5      9.32630E-05
  1352.5      9.25680E-05
  1357.5      9.19540E-05
  1362.5      9.12560E-05
  1367.5      9.06530E-05
  1372.5      8.99210E-05
  1377.5      8.93900E-05
  1382.5      8.87680E-05
  1387.5      8.81420E-05
  1392.5      8.74790E-05
  1397.5      8.69220E-05
