 Castelli and Kurucz 2004-2012 Atmosphere
 T     43000.     G    4.50000 [+0.5] N(He)/Ntot=0.07813 VTURB=2.0  L/H=1.25 NO
 Wavelength  Eddington Hnu
   (nm)    (ergs/s/cm2/Hz/sr)
  9.0900      2.23130E-23
  9.3500      7.78600E-23
  9.6100      2.49580E-22
  9.7700      5.10320E-22
  9.9600      1.13620E-21
  10.200      2.99760E-21
  10.380      6.03540E-21
  10.560      1.18740E-20
  10.770      2.54350E-20
  11.040      6.49780E-20
  11.400      2.12120E-19
  11.780      6.83630E-19
  12.130      1.89930E-18
  12.480      4.96720E-18
  12.710      9.09500E-18
  12.840      1.26730E-17
  13.050      2.12850E-17
  13.240      3.36140E-17
  13.390      4.80800E-17
  13.660      8.84050E-17
  13.980      1.80960E-16
  14.330      3.74120E-16
  14.720      7.84790E-16
  15.100      1.68990E-15
  15.520      3.61060E-15
  15.880      6.74930E-15
  16.200      1.24400E-14
  16.600      2.38900E-14
  17.030      4.48330E-14
  17.340      6.97790E-14
  17.680      1.15750E-13
  18.020      1.85010E-13
  18.170      2.19990E-13
  18.610      4.03350E-13
  19.100      7.35400E-13
  19.390      1.07240E-12
  19.840      1.80400E-12
  20.180      2.50350E-12
  20.500      3.65710E-12
  21.050      6.41360E-12
  21.620      1.09860E-11
  21.980      1.56260E-11
  22.300      2.04820E-11
  22.680      2.97260E-11
  23.000      8.39360E-09
  23.400      2.30390E-08
  24.000      3.16930E-08
  24.650      5.15370E-08
  25.240      1.05460E-07
  25.680      1.75180E-07
  26.000      2.08160E-07
  26.400      1.39360E-06
  26.850      1.69110E-06
  27.350      2.33910E-06
  27.850      1.33700E-06
  28.400      3.72050E-06
  29.000      7.60770E-06
  29.600      5.89940E-06
  30.100      1.21890E-05
  30.800      3.38640E-05
  31.800      7.31110E-06
  32.800      1.33910E-05
  33.800      1.23520E-05
  34.800      1.51610E-05
  35.700      4.19910E-05
  36.600      1.17790E-04
  37.500      1.80860E-04
  38.500      1.57740E-04
  39.500      3.42830E-04
  40.500      7.12930E-04
  41.400      6.65880E-04
  42.200      6.21800E-04
  43.000      6.13330E-04
  44.100      8.33280E-04
  45.100      8.88040E-04
  46.000      6.82000E-04
  47.000      8.47700E-04
  48.000      1.09260E-03
  49.000      7.23490E-04
  50.000      1.38950E-03
  50.600      9.79610E-04
  51.200      1.49950E-03
  52.000      1.41490E-03
  53.000      1.32690E-03
  54.000      1.06010E-03
  55.000      8.37010E-04
  56.000      1.25440E-03
  57.000      1.79060E-03
  58.000      1.81510E-03
  59.000      1.85880E-03
  60.000      1.39520E-03
  61.000      1.20080E-03
  62.000      1.81530E-03
  63.000      1.62070E-03
  64.000      2.06790E-03
  65.000      1.91580E-03
  65.800      1.58000E-03
  66.500      2.08990E-03
  67.500      2.25600E-03
  68.500      1.86790E-03
  69.500      2.27700E-03
  70.500      1.81040E-03
  71.600      2.34960E-03
  72.600      2.45420E-03
  73.500      2.47580E-03
  74.500      2.31240E-03
  75.500      2.30180E-03
  76.500      1.95260E-03
  77.500      2.34300E-03
  78.500      1.89820E-03
  79.500      2.32590E-03
  80.500      2.44040E-03
  81.500      2.45500E-03
  82.500      2.51650E-03
  83.500      2.11270E-03
  84.500      2.46320E-03
  85.500      2.29480E-03
  86.500      2.52720E-03
  87.500      2.57160E-03
  88.500      2.52990E-03
  89.500      2.51420E-03
  90.500      2.46220E-03
  91.500      1.88700E-03
  92.500      2.92910E-03
  93.500      3.93940E-03
  94.500      4.33780E-03
  95.500      4.96420E-03
  96.500      5.25210E-03
  97.500      4.04230E-03
  98.500      4.76130E-03
  99.500      4.19700E-03
  100.50      4.23230E-03
  101.50      4.48670E-03
  102.50      4.34730E-03
  103.50      4.89820E-03
  104.50      5.18440E-03
  105.50      5.10070E-03
  106.50      4.88200E-03
  107.50      5.05060E-03
  108.50      4.69560E-03
  109.50      4.94450E-03
  110.50      4.90140E-03
  111.50      4.90300E-03
  112.50      4.73710E-03
  113.50      4.95200E-03
  114.50      5.03700E-03
  115.50      4.75000E-03
  116.50      4.49090E-03
  117.50      3.95550E-03
  118.50      4.45780E-03
  119.50      4.19490E-03
  120.50      4.20450E-03
  121.50      3.71840E-03
  122.50      4.06810E-03
  123.50      4.04670E-03
  124.50      3.95550E-03
  125.50      4.12940E-03
  126.50      4.24830E-03
  127.50      4.36860E-03
  128.50      4.36910E-03
  129.50      4.41850E-03
  130.50      4.29670E-03
  131.50      4.33770E-03
  132.50      4.30970E-03
  133.50      4.25940E-03
  134.50      4.25850E-03
  135.50      4.10740E-03
  136.50      3.97860E-03
  137.50      3.81950E-03
  138.50      3.91000E-03
  139.50      3.79230E-03
  140.50      3.60600E-03
  141.50      4.10380E-03
  142.50      3.77980E-03
  143.50      4.02430E-03
  144.20      3.80260E-03
  144.70      3.84380E-03
  145.50      3.74930E-03
  146.50      3.76920E-03
  147.50      3.81930E-03
  148.50      3.89090E-03
  149.50      3.79740E-03
  150.50      3.79160E-03
  151.20      3.79580E-03
  151.70      3.73120E-03
  152.50      3.75620E-03
  153.50      3.45920E-03
  154.50      2.77630E-03
  155.50      2.92010E-03
  156.50      3.36900E-03
  157.50      3.51330E-03
  158.50      3.47840E-03
  159.50      3.56620E-03
  160.50      3.41120E-03
  161.50      3.34030E-03
  162.50      3.44140E-03
  163.50      3.48140E-03
  164.50      3.38530E-03
  165.50      3.48640E-03
  166.50      3.44990E-03
  167.20      3.27910E-03
  167.70      3.62840E-03
  168.50      3.57770E-03
  169.50      3.57390E-03
  170.50      3.48350E-03
  171.50      3.32230E-03
  172.50      3.32520E-03
  173.50      3.47770E-03
  174.50      3.47160E-03
  175.50      3.43540E-03
  176.50      3.39710E-03
  177.50      3.33430E-03
  178.50      3.38790E-03
  179.50      3.30960E-03
  180.50      3.29870E-03
  181.50      3.24720E-03
  182.50      3.22370E-03
  183.50      3.23420E-03
  184.50      3.26020E-03
  185.50      3.25490E-03
  186.50      3.26470E-03
  187.50      3.19620E-03
  188.50      3.16610E-03
  189.50      3.22720E-03
  190.50      3.21300E-03
  191.50      3.20000E-03
  192.50      3.05960E-03
  193.50      3.17810E-03
  194.50      3.16930E-03
  195.50      3.05550E-03
  196.70      3.10280E-03
  197.60      3.07580E-03
  198.40      3.10080E-03
  199.50      3.06750E-03
  200.50      3.07570E-03
  201.50      3.05390E-03
  202.50      3.04210E-03
  203.50      2.99400E-03
  204.50      2.96070E-03
  205.50      2.19510E-03
  206.50      2.12670E-03
  207.40      2.21700E-03
  207.80      2.28810E-03
  208.50      2.50770E-03
  209.50      2.79260E-03
  210.50      2.81580E-03
  211.50      2.85350E-03
  212.50      2.81410E-03
  213.50      2.82820E-03
  214.50      2.80180E-03
  215.50      2.81100E-03
  216.50      2.66440E-03
  217.50      2.79490E-03
  218.50      2.69660E-03
  219.50      2.78210E-03
  220.50      2.76020E-03
  221.50      2.64430E-03
  222.50      2.72740E-03
  223.50      2.71180E-03
  224.50      2.68580E-03
  225.50      2.59840E-03
  226.50      2.65270E-03
  227.50      2.66100E-03
  228.50      2.60340E-03
  229.50      2.53800E-03
  230.50      2.51060E-03
  231.50      2.53550E-03
  232.50      2.56060E-03
  233.50      2.54600E-03
  234.50      2.50370E-03
  235.50      2.46440E-03
  236.50      2.44010E-03
  237.50      2.39910E-03
  238.50      2.29230E-03
  239.50      2.36160E-03
  240.50      2.34890E-03
  241.50      2.35310E-03
  242.50      2.37450E-03
  243.50      2.34760E-03
  244.50      2.33770E-03
  245.50      2.30660E-03
  246.50      2.30270E-03
  247.50      2.31800E-03
  248.50      2.26650E-03
  249.50      1.96540E-03
  250.50      2.24270E-03
  251.30      2.10950E-03
  251.80      2.18400E-03
  252.50      2.20300E-03
  253.50      2.22430E-03
  254.50      2.22400E-03
  255.50      2.20640E-03
  256.50      2.19710E-03
  257.50      2.17610E-03
  258.50      2.16730E-03
  259.50      2.10070E-03
  260.50      2.14650E-03
  261.50      2.09960E-03
  262.50      2.12420E-03
  263.50      2.11780E-03
  264.50      2.08630E-03
  265.50      2.08840E-03
  266.50      2.07560E-03
  267.50      2.02880E-03
  268.50      2.04420E-03
  269.50      2.02400E-03
  270.50      2.04010E-03
  271.50      2.02000E-03
  272.50      2.00990E-03
  273.50      1.94240E-03
  274.50      1.99430E-03
  275.50      1.97280E-03
  276.50      1.96570E-03
  277.50      1.95030E-03
  278.50      1.91560E-03
  279.50      1.90110E-03
  280.50      1.91000E-03
  281.50      1.90140E-03
  282.50      1.88470E-03
  283.50      1.88450E-03
  284.50      1.87940E-03
  285.50      1.86510E-03
  286.50      1.83040E-03
  287.50      1.81630E-03
  288.50      1.82620E-03
  289.50      1.81590E-03
  291.00      1.80400E-03
  293.00      1.79420E-03
  295.00      1.77440E-03
  297.00      1.74860E-03
  299.00      1.71750E-03
  301.00      1.69970E-03
  303.00      1.66750E-03
  305.00      1.66310E-03
  307.00      1.63320E-03
  309.00      1.63550E-03
  311.00      1.62140E-03
  313.00      1.60350E-03
  315.00      1.59600E-03
  317.00      1.57650E-03
  319.00      1.56590E-03
  321.00      1.51660E-03
  323.00      1.53430E-03
  325.00      1.52130E-03
  327.00      1.48740E-03
  329.00      1.48500E-03
  331.00      1.46770E-03
  333.00      1.45140E-03
  335.00      1.42190E-03
  337.00      1.41870E-03
  339.00      1.40530E-03
  341.00      1.39010E-03
  343.00      1.38830E-03
  345.00      1.36090E-03
  347.00      1.35860E-03
  349.00      1.34710E-03
  351.00      1.33990E-03
  353.00      1.32100E-03
  355.00      1.31050E-03
  357.00      1.29830E-03
  359.00      1.28750E-03
  361.00      1.27140E-03
  363.00      1.25920E-03
  364.00      1.23030E-03
  365.00      1.10020E-03
  367.00      1.09190E-03
  369.00      1.08590E-03
  371.00      1.08240E-03
  373.00      1.10120E-03
  375.00      1.12360E-03
  377.00      1.14050E-03
  379.00      1.16770E-03
  381.00      1.18440E-03
  383.00      1.13380E-03
  385.00      1.18600E-03
  387.00      1.17740E-03
  389.00      1.09360E-03
  391.00      1.17250E-03
  393.00      1.14730E-03
  395.00      1.14280E-03
  397.00      1.04710E-03
  399.00      1.13220E-03
  401.00      1.12260E-03
  403.00      1.09490E-03
  405.00      1.10500E-03
  407.00      1.09160E-03
  409.00      1.05470E-03
  411.00      1.00070E-03
  413.00      1.06230E-03
  415.00      1.05700E-03
  417.00      1.05130E-03
  419.00      1.03950E-03
  421.00      1.01730E-03
  423.00      1.02860E-03
  425.00      1.01880E-03
  427.00      1.01110E-03
  429.00      1.00270E-03
  431.00      9.89710E-04
  433.00      9.52930E-04
  435.00      9.15710E-04
  437.00      9.63450E-04
  439.00      9.50260E-04
  441.00      9.40120E-04
  443.00      9.41470E-04
  445.00      9.32030E-04
  447.00      9.24200E-04
  449.00      9.21280E-04
  451.00      9.05830E-04
  453.00      8.99260E-04
  455.00      8.77040E-04
  457.00      8.89230E-04
  459.00      8.81290E-04
  461.00      8.78430E-04
  463.00      8.65210E-04
  465.00      8.38120E-04
  467.00      8.54830E-04
  469.00      8.23320E-04
  471.00      8.47950E-04
  473.00      8.45180E-04
  475.00      8.39540E-04
  477.00      8.32890E-04
  479.00      8.24510E-04
  481.00      8.20090E-04
  483.00      8.13110E-04
  485.00      7.92650E-04
  487.00      7.45190E-04
  489.00      7.94020E-04
  491.00      7.88900E-04
  493.00      7.82690E-04
  495.00      7.79000E-04
  497.00      7.73660E-04
  499.00      7.68940E-04
  501.00      7.59580E-04
  503.00      7.56010E-04
  505.00      7.50470E-04
  507.00      7.46330E-04
  509.00      7.41610E-04
  511.00      7.35920E-04
  513.00      7.29940E-04
  515.00      7.25330E-04
  517.00      7.21220E-04
  519.00      7.16040E-04
  521.00      7.10420E-04
  523.00      7.06570E-04
  525.00      6.99390E-04
  527.00      6.94400E-04
  529.00      6.92080E-04
  531.00      6.87240E-04
  533.00      6.82290E-04
  535.00      6.78250E-04
  537.00      6.73390E-04
  539.00      6.68780E-04
  541.00      6.50380E-04
  543.00      6.60060E-04
  545.00      6.55770E-04
  547.00      6.50810E-04
  549.00      6.47020E-04
  551.00      6.41510E-04
  553.00      6.38560E-04
  555.00      6.34510E-04
  557.00      6.28980E-04
  559.00      6.22770E-04
  561.00      6.22190E-04
  563.00      6.18050E-04
  565.00      6.14030E-04
  567.00      6.10040E-04
  569.00      5.94360E-04
  571.00      5.53480E-04
  573.00      5.50230E-04
  575.00      5.46680E-04
  577.00      5.44140E-04
  579.00      5.41520E-04
  581.00      5.34270E-04
  583.00      5.37970E-04
  585.00      5.38530E-04
  587.00      5.34790E-04
  589.00      5.39010E-04
  591.00      5.39860E-04
  593.00      5.41250E-04
  595.00      5.43590E-04
  597.00      5.45550E-04
  599.00      5.47490E-04
  601.00      5.46090E-04
  603.00      5.43770E-04
  605.00      5.41300E-04
  607.00      5.37910E-04
  609.00      5.35760E-04
  611.00      5.31460E-04
  613.00      5.28570E-04
  615.00      5.26410E-04
  617.00      5.21200E-04
  619.00      5.20720E-04
  621.00      5.17920E-04
  623.00      5.11750E-04
  625.00      5.11100E-04
  627.00      5.08710E-04
  629.00      5.05860E-04
  631.00      4.98730E-04
  633.00      4.99800E-04
  635.00      4.96940E-04
  637.00      4.94300E-04
  639.00      4.90780E-04
  641.00      4.83530E-04
  643.00      4.85800E-04
  645.00      4.82370E-04
  647.00      4.79480E-04
  649.00      4.77280E-04
  651.00      4.73670E-04
  653.00      4.65600E-04
  655.00      4.63440E-04
  657.00      4.31240E-04
  659.00      4.63080E-04
  661.00      4.61620E-04
  663.00      4.59070E-04
  665.00      4.56480E-04
  667.00      4.51060E-04
  669.00      4.43320E-04
  671.00      4.47770E-04
  673.00      4.45690E-04
  675.00      4.43200E-04
  677.00      4.41290E-04
  679.00      4.39190E-04
  681.00      4.36750E-04
  683.00      4.34400E-04
  685.00      4.31910E-04
  687.00      4.29380E-04
  689.00      4.19840E-04
  691.00      4.24670E-04
  693.00      4.22820E-04
  695.00      4.20470E-04
  697.00      4.18310E-04
  699.00      4.16000E-04
  701.00      4.13400E-04
  703.00      4.10460E-04
  705.00      4.08750E-04
  707.00      4.05410E-04
  709.00      4.05180E-04
  711.00      4.02510E-04
  713.00      4.00400E-04
  715.00      3.98890E-04
  717.00      3.91700E-04
  719.00      3.91940E-04
  721.00      3.92560E-04
  723.00      3.90600E-04
  725.00      3.88640E-04
  727.00      3.86650E-04
  729.00      3.84210E-04
  731.00      3.82080E-04
  733.00      3.80710E-04
  735.00      3.78840E-04
  737.00      3.76520E-04
  739.00      3.74500E-04
  741.00      3.72730E-04
  743.00      3.71230E-04
  745.00      3.68580E-04
  747.00      3.67170E-04
  749.00      3.64220E-04
  751.00      3.63380E-04
  753.00      3.61780E-04
  755.00      3.59930E-04
  757.00      3.57940E-04
  759.00      3.49320E-04
  761.00      3.53850E-04
  763.00      3.52800E-04
  765.00      3.51160E-04
  767.00      3.49360E-04
  769.00      3.46850E-04
  771.00      3.45540E-04
  773.00      3.43320E-04
  775.00      3.42150E-04
  777.00      3.41260E-04
  779.00      3.39190E-04
  781.00      3.37960E-04
  783.00      3.36230E-04
  785.00      3.33150E-04
  787.00      3.32580E-04
  789.00      3.31360E-04
  791.00      3.30000E-04
  793.00      3.28510E-04
  795.00      3.26810E-04
  797.00      3.24690E-04
  799.00      3.23820E-04
  801.00      3.22320E-04
  803.00      3.20410E-04
  805.00      3.19340E-04
  807.00      3.17850E-04
  809.00      3.16370E-04
  811.00      3.14880E-04
  813.00      3.13450E-04
  815.00      3.11980E-04
  817.00      3.10000E-04
  819.00      3.07340E-04
  821.00      2.91320E-04
  823.00      2.87770E-04
  825.00      2.88320E-04
  827.00      2.87440E-04
  829.00      2.86310E-04
  831.00      2.85170E-04
  833.00      2.83190E-04
  835.00      2.82300E-04
  837.00      2.81520E-04
  839.00      2.80590E-04
  841.00      2.79700E-04
  843.00      2.78810E-04
  845.00      2.77880E-04
  847.00      2.77110E-04
  849.00      2.76480E-04
  851.00      2.75030E-04
  853.00      2.75210E-04
  855.00      2.74040E-04
  857.00      2.73930E-04
  859.00      2.72760E-04
  861.00      2.72180E-04
  863.00      2.72930E-04
  865.00      2.71830E-04
  867.00      2.68250E-04
  869.00      2.71650E-04
  871.00      2.71790E-04
  873.00      2.70690E-04
  875.00      2.63910E-04
  877.00      2.68820E-04
  879.00      2.70350E-04
  881.00      2.70050E-04
  883.00      2.69220E-04
  885.00      2.64070E-04
  887.00      2.56020E-04
  889.00      2.65140E-04
  891.00      2.65370E-04
  893.00      2.64010E-04
  895.00      2.63320E-04
  897.00      2.62320E-04
  899.00      2.59870E-04
  901.00      2.47200E-04
  903.00      2.52140E-04
  905.00      2.57410E-04
  907.00      2.56950E-04
  909.00      2.56120E-04
  911.00      2.54440E-04
  913.00      2.54110E-04
  915.00      2.53320E-04
  917.00      2.51890E-04
  919.00      2.50430E-04
  921.00      2.46690E-04
  923.00      2.31470E-04
  925.00      2.43910E-04
  927.00      2.46210E-04
  929.00      2.45840E-04
  931.00      2.44850E-04
  933.00      2.43610E-04
  935.00      2.36650E-04
  937.00      2.40180E-04
  939.00      2.40700E-04
  941.00      2.39610E-04
  943.00      2.38840E-04
  945.00      2.38030E-04
  947.00      2.37000E-04
  949.00      2.36020E-04
  951.00      2.34190E-04
  953.00      2.29980E-04
  955.00      2.15460E-04
  957.00      2.29530E-04
  959.00      2.30950E-04
  961.00      2.30460E-04
  963.00      2.29360E-04
  965.00      2.28770E-04
  967.00      2.27920E-04
  969.00      2.27020E-04
  971.00      2.23230E-04
  973.00      2.24700E-04
  975.00      2.23880E-04
  977.00      2.21350E-04
  979.00      2.22580E-04
  981.00      2.21700E-04
  983.00      2.20630E-04
  985.00      2.20000E-04
  987.00      2.19160E-04
  989.00      2.18280E-04
  991.00      2.17340E-04
  993.00      2.16620E-04
  995.00      2.15790E-04
  997.00      2.14960E-04
  999.00      2.14120E-04
  1002.5      2.08610E-04
  1007.5      2.04430E-04
  1012.5      2.04260E-04
  1017.5      2.06720E-04
  1022.5      2.04740E-04
  1027.5      2.02650E-04
  1032.5      2.00670E-04
  1037.5      1.99090E-04
  1042.5      1.95930E-04
  1047.5      1.95500E-04
  1052.5      1.93690E-04
  1057.5      1.91940E-04
  1062.5      1.90210E-04
  1067.5      1.88480E-04
  1072.5      1.86810E-04
  1077.5      1.85140E-04
  1082.5      1.82860E-04
  1087.5      1.81740E-04
  1092.5      1.72600E-04
  1097.5      1.77010E-04
  1102.5      1.77060E-04
  1107.5      1.75600E-04
  1112.5      1.74070E-04
  1117.5      1.72720E-04
  1122.5      1.71190E-04
  1127.5      1.69690E-04
  1132.5      1.68230E-04
  1137.5      1.66850E-04
  1142.5      1.65470E-04
  1147.5      1.64090E-04
  1152.5      1.62720E-04
  1157.5      1.61210E-04
  1162.5      1.57890E-04
  1167.5      1.57120E-04
  1172.5      1.57350E-04
  1177.5      1.56110E-04
  1182.5      1.54650E-04
  1187.5      1.53530E-04
  1192.5      1.52280E-04
  1197.5      1.50580E-04
  1202.5      1.49880E-04
  1207.5      1.48620E-04
  1212.5      1.47380E-04
  1217.5      1.46310E-04
  1222.5      1.45110E-04
  1227.5      1.44020E-04
  1232.5      1.42870E-04
  1237.5      1.41760E-04
  1242.5      1.40660E-04
  1247.5      1.39570E-04
  1252.5      1.38440E-04
  1257.5      1.37380E-04
  1262.5      1.36360E-04
  1267.5      1.35320E-04
  1272.5      1.34270E-04
  1277.5      1.32490E-04
  1282.5      1.26010E-04
  1287.5      1.31000E-04
  1292.5      1.30270E-04
  1297.5      1.29220E-04
  1302.5      1.28330E-04
  1307.5      1.27380E-04
  1312.5      1.26440E-04
  1317.5      1.25500E-04
  1322.5      1.24580E-04
  1327.5      1.23670E-04
  1332.5      1.22770E-04
  1337.5      1.21870E-04
  1342.5      1.20980E-04
  1347.5      1.20110E-04
  1352.5      1.19250E-04
  1357.5      1.18400E-04
  1362.5      1.17550E-04
  1367.5      1.16710E-04
  1372.5      1.15860E-04
  1377.5      1.15060E-04
  1382.5      1.14260E-04
  1387.5      1.13450E-04
  1392.5      1.12650E-04
  1397.5      1.11870E-04
