 Castelli and Kurucz 2004-2012 Atmosphere
 T     32000.     G    5.00000 [+0.5] N(He)/Ntot=0.07813 VTURB=2.0  L/H=1.25 NO
 Wavelength  Eddington Hnu
   (nm)    (ergs/s/cm2/Hz/sr)
  9.0900      6.10780E-33
  9.3500      3.61770E-32
  9.6100      1.95890E-31
  9.7700      5.31530E-31
  9.9600      1.67240E-30
  10.200      6.72110E-30
  10.380      1.83670E-29
  10.560      4.86150E-29
  10.770      1.45660E-28
  11.040      5.64040E-28
  11.400      3.12650E-27
  11.780      1.71960E-26
  12.130      7.57380E-26
  12.480      3.08820E-25
  12.710      7.48060E-25
  12.840      1.21750E-24
  13.050      2.62060E-24
  13.240      5.15460E-24
  13.390      8.67570E-24
  13.660      2.15890E-23
  13.980      6.10010E-23
  14.330      1.80840E-22
  14.720      5.73540E-22
  15.100      1.67460E-21
  15.520      5.16980E-21
  15.880      1.30010E-20
  16.200      2.86140E-20
  16.600      7.37060E-20
  17.030      1.93700E-19
  17.340      3.80400E-19
  17.680      7.75340E-19
  18.020      1.53760E-18
  18.170      2.06790E-18
  18.610      4.77960E-18
  19.100      1.16580E-17
  19.390      1.93460E-17
  19.840      4.13450E-17
  20.180      7.17280E-17
  20.500      1.18520E-16
  21.050      2.72170E-16
  21.620      6.14550E-16
  21.980      1.01170E-15
  22.300      1.55230E-15
  22.680      2.65850E-15
  23.000      2.28500E-13
  23.400      4.89640E-13
  24.000      8.79650E-13
  24.650      1.65950E-12
  25.240      2.92910E-12
  25.680      4.33110E-12
  26.000      7.08440E-12
  26.400      1.09600E-11
  26.850      1.68400E-11
  27.350      2.49460E-11
  27.850      3.49690E-11
  28.400      7.50690E-11
  29.000      1.15750E-10
  29.600      1.68080E-10
  30.100      2.43550E-10
  30.800      5.48820E-10
  31.800      1.16050E-09
  32.800      1.88840E-09
  33.800      3.49090E-09
  34.800      5.83360E-09
  35.700      1.70310E-08
  36.600      3.72290E-08
  37.500      4.86520E-08
  38.500      7.66740E-08
  39.500      1.65100E-07
  40.500      2.16600E-07
  41.400      3.19460E-07
  42.200      3.91480E-07
  43.000      5.00740E-07
  44.100      6.66110E-07
  45.100      7.89630E-07
  46.000      9.00380E-07
  47.000      1.16650E-06
  48.000      1.46750E-06
  49.000      1.76150E-06
  50.000      2.16290E-06
  50.600      3.71620E-06
  51.200      3.08860E-05
  52.000      3.01280E-05
  53.000      2.93150E-05
  54.000      2.81310E-05
  55.000      3.78530E-05
  56.000      4.82530E-05
  57.000      5.18890E-05
  58.000      4.93270E-05
  59.000      5.60410E-05
  60.000      4.84540E-05
  61.000      6.12030E-05
  62.000      7.27560E-05
  63.000      7.29570E-05
  64.000      7.09770E-05
  65.000      7.43830E-05
  65.800      6.78300E-05
  66.500      7.99560E-05
  67.500      8.85620E-05
  68.500      7.32660E-05
  69.500      1.06290E-04
  70.500      9.07080E-05
  71.600      1.21240E-04
  72.600      1.20400E-04
  73.500      1.23420E-04
  74.500      1.28630E-04
  75.500      1.32520E-04
  76.500      1.40440E-04
  77.500      1.49120E-04
  78.500      1.59420E-04
  79.500      1.62560E-04
  80.500      1.60660E-04
  81.500      1.62930E-04
  82.500      1.78470E-04
  83.500      1.45890E-04
  84.500      1.77160E-04
  85.500      1.78100E-04
  86.500      1.89540E-04
  87.500      1.96940E-04
  88.500      2.08310E-04
  89.500      2.15350E-04
  90.500      2.11750E-04
  91.500      2.21350E-04
  92.500      6.42490E-04
  93.500      1.15240E-03
  94.500      1.83400E-03
  95.500      2.14810E-03
  96.500      2.64200E-03
  97.500      7.40260E-04
  98.500      2.16290E-03
  99.500      1.98720E-03
  100.50      2.21230E-03
  101.50      2.39700E-03
  102.50      1.58280E-03
  103.50      2.28330E-03
  104.50      2.96140E-03
  105.50      2.79190E-03
  106.50      2.26130E-03
  107.50      2.52270E-03
  108.50      2.31900E-03
  109.50      2.57370E-03
  110.50      2.46170E-03
  111.50      2.46720E-03
  112.50      1.87530E-03
  113.50      2.42480E-03
  114.50      2.32580E-03
  115.50      2.27320E-03
  116.50      2.21970E-03
  117.50      1.31150E-03
  118.50      2.08430E-03
  119.50      2.05510E-03
  120.50      1.88320E-03
  121.50      1.36500E-03
  122.50      1.96990E-03
  123.50      2.20890E-03
  124.50      2.13700E-03
  125.50      2.15680E-03
  126.50      2.27290E-03
  127.50      2.39290E-03
  128.50      2.44180E-03
  129.50      2.13240E-03
  130.50      2.22950E-03
  131.50      2.50750E-03
  132.50      2.40390E-03
  133.50      2.36880E-03
  134.50      2.36910E-03
  135.50      2.37880E-03
  136.50      2.26810E-03
  137.50      2.21020E-03
  138.50      2.13120E-03
  139.50      1.54500E-03
  140.50      1.67210E-03
  141.50      2.05770E-03
  142.50      1.89050E-03
  143.50      2.06200E-03
  144.20      2.08240E-03
  144.70      2.07900E-03
  145.50      1.99130E-03
  146.50      1.90440E-03
  147.50      1.97150E-03
  148.50      1.98500E-03
  149.50      1.94570E-03
  150.50      1.82090E-03
  151.20      1.73530E-03
  151.70      1.78020E-03
  152.50      1.77080E-03
  153.50      1.49340E-03
  154.50      1.32160E-03
  155.50      1.33080E-03
  156.50      1.52600E-03
  157.50      1.64140E-03
  158.50      1.67920E-03
  159.50      1.69230E-03
  160.50      1.67820E-03
  161.50      1.60200E-03
  162.50      1.65770E-03
  163.50      1.72550E-03
  164.50      1.75910E-03
  165.50      1.76700E-03
  166.50      1.77630E-03
  167.20      1.64900E-03
  167.70      1.96490E-03
  168.50      1.86520E-03
  169.50      1.79660E-03
  170.50      1.78810E-03
  171.50      1.71260E-03
  172.50      1.64200E-03
  173.50      1.73720E-03
  174.50      1.74260E-03
  175.50      1.74790E-03
  176.50      1.74240E-03
  177.50      1.66200E-03
  178.50      1.72240E-03
  179.50      1.72490E-03
  180.50      1.74160E-03
  181.50      1.65350E-03
  182.50      1.67350E-03
  183.50      1.66840E-03
  184.50      1.55230E-03
  185.50      1.62070E-03
  186.50      1.65210E-03
  187.50      1.65370E-03
  188.50      1.53350E-03
  189.50      1.48040E-03
  190.50      1.57380E-03
  191.50      1.52150E-03
  192.50      1.42410E-03
  193.50      1.55870E-03
  194.50      1.61590E-03
  195.50      1.44220E-03
  196.70      1.56580E-03
  197.60      1.65070E-03
  198.40      1.55360E-03
  199.50      1.54600E-03
  200.50      1.59900E-03
  201.50      1.60660E-03
  202.50      1.63880E-03
  203.50      1.53790E-03
  204.50      1.55310E-03
  205.50      1.35710E-03
  206.50      1.33930E-03
  207.40      1.39770E-03
  207.80      1.33150E-03
  208.50      1.38770E-03
  209.50      1.39100E-03
  210.50      1.51600E-03
  211.50      1.54930E-03
  212.50      1.55070E-03
  213.50      1.53760E-03
  214.50      1.50200E-03
  215.50      1.54220E-03
  216.50      1.50460E-03
  217.50      1.52820E-03
  218.50      1.49670E-03
  219.50      1.53420E-03
  220.50      1.53000E-03
  221.50      1.49510E-03
  222.50      1.49830E-03
  223.50      1.48130E-03
  224.50      1.48360E-03
  225.50      1.44600E-03
  226.50      1.47160E-03
  227.50      1.46580E-03
  228.50      1.44020E-03
  229.50      1.27370E-03
  230.50      1.40040E-03
  231.50      1.39810E-03
  232.50      1.40470E-03
  233.50      1.38960E-03
  234.50      1.39970E-03
  235.50      1.38090E-03
  236.50      1.37240E-03
  237.50      1.34430E-03
  238.50      1.31670E-03
  239.50      1.32540E-03
  240.50      1.33030E-03
  241.50      1.32350E-03
  242.50      1.32780E-03
  243.50      1.30540E-03
  244.50      1.30830E-03
  245.50      1.30570E-03
  246.50      1.29880E-03
  247.50      1.28820E-03
  248.50      1.25790E-03
  249.50      9.71030E-04
  250.50      1.21730E-03
  251.30      1.17580E-03
  251.80      1.20720E-03
  252.50      1.24720E-03
  253.50      1.24970E-03
  254.50      1.21880E-03
  255.50      1.22200E-03
  256.50      1.21370E-03
  257.50      1.21350E-03
  258.50      1.21130E-03
  259.50      1.20300E-03
  260.50      1.20180E-03
  261.50      1.18610E-03
  262.50      1.18870E-03
  263.50      1.18430E-03
  264.50      1.16940E-03
  265.50      1.16900E-03
  266.50      1.13260E-03
  267.50      1.12510E-03
  268.50      1.14330E-03
  269.50      1.10980E-03
  270.50      1.09490E-03
  271.50      1.09880E-03
  272.50      1.10620E-03
  273.50      1.09220E-03
  274.50      1.09540E-03
  275.50      1.09380E-03
  276.50      1.08140E-03
  277.50      1.09730E-03
  278.50      1.08340E-03
  279.50      1.04450E-03
  280.50      1.06070E-03
  281.50      1.07390E-03
  282.50      1.06340E-03
  283.50      1.03540E-03
  284.50      1.05410E-03
  285.50      1.04100E-03
  286.50      1.03680E-03
  287.50      1.03220E-03
  288.50      1.02480E-03
  289.50      1.01870E-03
  291.00      1.00130E-03
  293.00      1.00840E-03
  295.00      9.87980E-04
  297.00      9.82730E-04
  299.00      9.65070E-04
  301.00      9.41630E-04
  303.00      9.39000E-04
  305.00      9.39690E-04
  307.00      9.39720E-04
  309.00      9.10750E-04
  311.00      9.21180E-04
  313.00      9.04270E-04
  315.00      9.01080E-04
  317.00      8.86380E-04
  319.00      8.81230E-04
  321.00      8.73600E-04
  323.00      8.62750E-04
  325.00      8.61850E-04
  327.00      8.46620E-04
  329.00      8.42110E-04
  331.00      8.33560E-04
  333.00      8.21700E-04
  335.00      8.14380E-04
  337.00      8.06220E-04
  339.00      8.06450E-04
  341.00      7.97930E-04
  343.00      7.93140E-04
  345.00      7.81060E-04
  347.00      7.75600E-04
  349.00      7.67970E-04
  351.00      7.61820E-04
  353.00      7.59090E-04
  355.00      7.50870E-04
  357.00      7.46260E-04
  359.00      7.31930E-04
  361.00      7.28400E-04
  363.00      7.22440E-04
  364.00      7.22860E-04
  365.00      7.08300E-04
  367.00      7.06150E-04
  369.00      7.00800E-04
  371.00      6.79420E-04
  373.00      6.73540E-04
  375.00      6.69040E-04
  377.00      6.51300E-04
  379.00      6.74740E-04
  381.00      6.99500E-04
  383.00      6.28790E-04
  385.00      7.17360E-04
  387.00      7.09440E-04
  389.00      6.04240E-04
  391.00      7.33500E-04
  393.00      7.22230E-04
  395.00      7.05000E-04
  397.00      5.80330E-04
  399.00      7.02420E-04
  401.00      7.06680E-04
  403.00      6.75730E-04
  405.00      6.97170E-04
  407.00      6.64510E-04
  409.00      6.20530E-04
  411.00      5.67470E-04
  413.00      6.58160E-04
  415.00      6.59200E-04
  417.00      6.65770E-04
  419.00      6.61690E-04
  421.00      6.59180E-04
  423.00      6.53090E-04
  425.00      6.35890E-04
  427.00      6.26600E-04
  429.00      6.20420E-04
  431.00      6.02400E-04
  433.00      5.57710E-04
  435.00      5.23520E-04
  437.00      5.90030E-04
  439.00      5.92250E-04
  441.00      5.93930E-04
  443.00      5.97790E-04
  445.00      5.90630E-04
  447.00      5.68300E-04
  449.00      5.84020E-04
  451.00      5.80020E-04
  453.00      5.79140E-04
  455.00      5.74050E-04
  457.00      5.72360E-04
  459.00      5.65840E-04
  461.00      5.55270E-04
  463.00      5.47040E-04
  465.00      5.26390E-04
  467.00      5.43230E-04
  469.00      5.41020E-04
  471.00      5.28150E-04
  473.00      5.38730E-04
  475.00      5.34160E-04
  477.00      5.37330E-04
  479.00      5.31990E-04
  481.00      5.23850E-04
  483.00      5.15460E-04
  485.00      4.80980E-04
  487.00      4.36350E-04
  489.00      5.04110E-04
  491.00      5.04360E-04
  493.00      4.91290E-04
  495.00      4.96440E-04
  497.00      4.99100E-04
  499.00      4.94690E-04
  501.00      4.76020E-04
  503.00      4.84380E-04
  505.00      4.79720E-04
  507.00      4.81510E-04
  509.00      4.76420E-04
  511.00      4.71920E-04
  513.00      4.65470E-04
  515.00      4.63460E-04
  517.00      4.62280E-04
  519.00      4.60420E-04
  521.00      4.57500E-04
  523.00      4.54280E-04
  525.00      4.50100E-04
  527.00      4.46080E-04
  529.00      4.45190E-04
  531.00      4.41940E-04
  533.00      4.39250E-04
  535.00      4.35830E-04
  537.00      4.33460E-04
  539.00      4.29920E-04
  541.00      4.25620E-04
  543.00      4.25030E-04
  545.00      4.21870E-04
  547.00      4.18980E-04
  549.00      4.16170E-04
  551.00      4.14200E-04
  553.00      4.10460E-04
  555.00      4.09040E-04
  557.00      4.06160E-04
  559.00      4.03200E-04
  561.00      4.01150E-04
  563.00      3.98750E-04
  565.00      3.95150E-04
  567.00      3.90780E-04
  569.00      3.84400E-04
  571.00      3.84130E-04
  573.00      3.82780E-04
  575.00      3.78940E-04
  577.00      3.78840E-04
  579.00      3.75960E-04
  581.00      3.73440E-04
  583.00      3.69770E-04
  585.00      3.68890E-04
  587.00      3.56240E-04
  589.00      3.61160E-04
  591.00      3.61140E-04
  593.00      3.58910E-04
  595.00      3.56880E-04
  597.00      3.57220E-04
  599.00      3.53270E-04
  601.00      3.52960E-04
  603.00      3.49960E-04
  605.00      3.48440E-04
  607.00      3.47200E-04
  609.00      3.45270E-04
  611.00      3.42990E-04
  613.00      3.41340E-04
  615.00      3.37240E-04
  617.00      3.35970E-04
  619.00      3.35010E-04
  621.00      3.33530E-04
  623.00      3.31750E-04
  625.00      3.28750E-04
  627.00      3.27350E-04
  629.00      3.25830E-04
  631.00      3.23540E-04
  633.00      3.22220E-04
  635.00      3.19680E-04
  637.00      3.18690E-04
  639.00      3.16670E-04
  641.00      3.14920E-04
  643.00      3.13290E-04
  645.00      3.11300E-04
  647.00      3.07880E-04
  649.00      3.06600E-04
  651.00      3.04790E-04
  653.00      3.01600E-04
  655.00      2.89620E-04
  657.00      2.58670E-04
  659.00      2.93780E-04
  661.00      2.96180E-04
  663.00      2.95770E-04
  665.00      2.94030E-04
  667.00      2.89020E-04
  669.00      2.87640E-04
  671.00      2.89200E-04
  673.00      2.86760E-04
  675.00      2.86310E-04
  677.00      2.85090E-04
  679.00      2.81110E-04
  681.00      2.81620E-04
  683.00      2.80000E-04
  685.00      2.78910E-04
  687.00      2.77260E-04
  689.00      2.75210E-04
  691.00      2.73160E-04
  693.00      2.73190E-04
  695.00      2.71760E-04
  697.00      2.70340E-04
  699.00      2.68810E-04
  701.00      2.67260E-04
  703.00      2.65470E-04
  705.00      2.64320E-04
  707.00      2.58920E-04
  709.00      2.61520E-04
  711.00      2.59030E-04
  713.00      2.57870E-04
  715.00      2.57510E-04
  717.00      2.56380E-04
  719.00      2.55250E-04
  721.00      2.54040E-04
  723.00      2.49200E-04
  725.00      2.50780E-04
  727.00      2.50160E-04
  729.00      2.46940E-04
  731.00      2.47540E-04
  733.00      2.46200E-04
  735.00      2.45090E-04
  737.00      2.43930E-04
  739.00      2.42730E-04
  741.00      2.41500E-04
  743.00      2.40290E-04
  745.00      2.39040E-04
  747.00      2.36510E-04
  749.00      2.36050E-04
  751.00      2.35440E-04
  753.00      2.34040E-04
  755.00      2.33290E-04
  757.00      2.32100E-04
  759.00      2.30720E-04
  761.00      2.29220E-04
  763.00      2.28570E-04
  765.00      2.27490E-04
  767.00      2.26530E-04
  769.00      2.25130E-04
  771.00      2.24080E-04
  773.00      2.22690E-04
  775.00      2.22190E-04
  777.00      2.20930E-04
  779.00      2.20140E-04
  781.00      2.19030E-04
  783.00      2.18060E-04
  785.00      2.17040E-04
  787.00      2.15420E-04
  789.00      2.14110E-04
  791.00      2.13590E-04
  793.00      2.12540E-04
  795.00      2.11880E-04
  797.00      2.10830E-04
  799.00      2.09920E-04
  801.00      2.08830E-04
  803.00      2.07790E-04
  805.00      2.07060E-04
  807.00      2.06060E-04
  809.00      2.04980E-04
  811.00      2.02330E-04
  813.00      2.03270E-04
  815.00      2.02250E-04
  817.00      2.01500E-04
  819.00      1.99050E-04
  821.00      1.98270E-04
  823.00      1.96700E-04
  825.00      1.97120E-04
  827.00      1.94270E-04
  829.00      1.95180E-04
  831.00      1.94700E-04
  833.00      1.93650E-04
  835.00      1.92020E-04
  837.00      1.91640E-04
  839.00      1.91390E-04
  841.00      1.90260E-04
  843.00      1.89680E-04
  845.00      1.87760E-04
  847.00      1.88050E-04
  849.00      1.86860E-04
  851.00      1.85620E-04
  853.00      1.85130E-04
  855.00      1.84280E-04
  857.00      1.84020E-04
  859.00      1.80860E-04
  861.00      1.81470E-04
  863.00      1.82330E-04
  865.00      1.79470E-04
  867.00      1.76410E-04
  869.00      1.79730E-04
  871.00      1.80030E-04
  873.00      1.76690E-04
  875.00      1.69630E-04
  877.00      1.73710E-04
  879.00      1.77450E-04
  881.00      1.77800E-04
  883.00      1.75520E-04
  885.00      1.67710E-04
  887.00      1.61310E-04
  889.00      1.71880E-04
  891.00      1.74200E-04
  893.00      1.74140E-04
  895.00      1.73680E-04
  897.00      1.72300E-04
  899.00      1.67690E-04
  901.00      1.54260E-04
  903.00      1.59260E-04
  905.00      1.67780E-04
  907.00      1.67600E-04
  909.00      1.68540E-04
  911.00      1.68730E-04
  913.00      1.68090E-04
  915.00      1.67330E-04
  917.00      1.65870E-04
  919.00      1.64130E-04
  921.00      1.56980E-04
  923.00      1.42310E-04
  925.00      1.55090E-04
  927.00      1.60920E-04
  929.00      1.61890E-04
  931.00      1.61150E-04
  933.00      1.60820E-04
  935.00      1.60460E-04
  937.00      1.60180E-04
  939.00      1.59660E-04
  941.00      1.58780E-04
  943.00      1.58200E-04
  945.00      1.57330E-04
  947.00      1.55840E-04
  949.00      1.55340E-04
  951.00      1.52290E-04
  953.00      1.45360E-04
  955.00      1.32110E-04
  957.00      1.46960E-04
  959.00      1.51480E-04
  961.00      1.51450E-04
  963.00      1.50690E-04
  965.00      1.51630E-04
  967.00      1.51140E-04
  969.00      1.50420E-04
  971.00      1.47670E-04
  973.00      1.49050E-04
  975.00      1.48750E-04
  977.00      1.48230E-04
  979.00      1.47590E-04
  981.00      1.46830E-04
  983.00      1.46500E-04
  985.00      1.45790E-04
  987.00      1.45130E-04
  989.00      1.44190E-04
  991.00      1.42870E-04
  993.00      1.43640E-04
  995.00      1.42970E-04
  997.00      1.41980E-04
  999.00      1.41260E-04
  1002.5      1.33640E-04
  1007.5      1.30430E-04
  1012.5      1.36930E-04
  1017.5      1.37170E-04
  1022.5      1.35820E-04
  1027.5      1.34630E-04
  1032.5      1.32840E-04
  1037.5      1.32210E-04
  1042.5      1.31010E-04
  1047.5      1.29810E-04
  1052.5      1.28560E-04
  1057.5      1.27470E-04
  1062.5      1.26310E-04
  1067.5      1.24990E-04
  1072.5      1.24080E-04
  1077.5      1.22960E-04
  1082.5      1.20560E-04
  1087.5      1.19980E-04
  1092.5      1.09030E-04
  1097.5      1.14800E-04
  1102.5      1.16730E-04
  1107.5      1.16510E-04
  1112.5      1.15630E-04
  1117.5      1.14690E-04
  1122.5      1.13670E-04
  1127.5      1.12710E-04
  1132.5      1.11550E-04
  1137.5      1.10770E-04
  1142.5      1.09770E-04
  1147.5      1.08960E-04
  1152.5      1.08100E-04
  1157.5      1.07070E-04
  1162.5      1.06180E-04
  1167.5      1.05220E-04
  1172.5      1.04600E-04
  1177.5      1.03720E-04
  1182.5      1.02850E-04
  1187.5      1.02050E-04
  1192.5      1.01240E-04
  1197.5      9.90930E-05
  1202.5      9.96260E-05
  1207.5      9.88360E-05
  1212.5      9.80210E-05
  1217.5      9.72710E-05
  1222.5      9.65080E-05
  1227.5      9.57630E-05
  1232.5      9.49770E-05
  1237.5      9.42470E-05
  1242.5      9.35490E-05
  1247.5      9.27510E-05
  1252.5      9.18070E-05
  1257.5      9.13150E-05
  1262.5      9.06380E-05
  1267.5      9.00100E-05
  1272.5      8.91280E-05
  1277.5      8.65610E-05
  1282.5      7.99370E-05
  1287.5      8.63250E-05
  1292.5      8.65270E-05
  1297.5      8.53270E-05
  1302.5      8.53000E-05
  1307.5      8.47840E-05
  1312.5      8.41670E-05
  1317.5      8.35440E-05
  1322.5      8.29380E-05
  1327.5      8.23360E-05
  1332.5      8.16880E-05
  1337.5      8.10370E-05
  1342.5      8.04440E-05
  1347.5      7.99560E-05
  1352.5      7.93030E-05
  1357.5      7.88250E-05
  1362.5      7.81100E-05
  1367.5      7.77130E-05
  1372.5      7.70600E-05
  1377.5      7.66540E-05
  1382.5      7.61180E-05
  1387.5      7.55720E-05
  1392.5      7.49380E-05
  1397.5      7.45050E-05
