 Castelli and Kurucz 2004-2012 Atmosphere
 T     33000.     G    4.50000 [+0.5] N(He)/Ntot=0.07813 VTURB=2.0  L/H=1.25 NO
 Wavelength  Eddington Hnu
   (nm)    (ergs/s/cm2/Hz/sr)
  9.0900      5.73050E-32
  9.3500      3.18380E-31
  9.6100      1.62290E-30
  9.7700      4.26250E-30
  9.9600      1.29180E-29
  10.200      4.96760E-29
  10.380      1.31660E-28
  10.560      3.38590E-28
  10.770      9.83240E-28
  11.040      3.67020E-27
  11.400      1.94670E-26
  11.780      1.02700E-25
  12.130      4.37090E-25
  12.480      1.72660E-24
  12.710      4.10150E-24
  12.840      6.60360E-24
  13.050      1.39760E-23
  13.240      2.70820E-23
  13.390      4.50650E-23
  13.660      1.09850E-22
  13.980      3.03150E-22
  14.330      8.75900E-22
  14.720      2.69830E-21
  15.100      7.67730E-21
  15.520      2.30010E-20
  15.880      5.64120E-20
  16.200      1.21150E-19
  16.600      3.03110E-19
  17.030      7.71470E-19
  17.340      1.48140E-18
  17.680      2.96150E-18
  18.020      5.72990E-18
  18.170      7.68060E-18
  18.610      1.72020E-17
  19.100      4.05520E-17
  19.390      6.59150E-17
  19.840      1.37120E-16
  20.180      2.32260E-16
  20.500      3.75570E-16
  21.050      8.31620E-16
  21.620      1.80110E-15
  21.980      2.91370E-15
  22.300      4.38330E-15
  22.680      7.32020E-15
  23.000      1.18280E-12
  23.400      2.50820E-12
  24.000      4.22130E-12
  24.650      7.50160E-12
  25.240      1.28660E-11
  25.680      1.89770E-11
  26.000      3.38480E-11
  26.400      6.02930E-11
  26.850      9.33420E-11
  27.350      1.32210E-10
  27.850      1.71200E-10
  28.400      3.89280E-10
  29.000      5.83530E-10
  29.600      8.00160E-10
  30.100      1.42800E-09
  30.800      3.89550E-09
  31.800      8.56900E-09
  32.800      1.30060E-08
  33.800      2.51100E-08
  34.800      4.11390E-08
  35.700      9.62450E-08
  36.600      2.18110E-07
  37.500      2.67010E-07
  38.500      4.09040E-07
  39.500      8.55920E-07
  40.500      1.10540E-06
  41.400      1.53120E-06
  42.200      1.84980E-06
  43.000      2.18770E-06
  44.100      2.83090E-06
  45.100      3.17240E-06
  46.000      3.33420E-06
  47.000      4.22960E-06
  48.000      5.23630E-06
  49.000      5.68590E-06
  50.000      7.17050E-06
  50.600      9.95340E-06
  51.200      7.36820E-05
  52.000      7.16040E-05
  53.000      6.68090E-05
  54.000      6.32180E-05
  55.000      7.75960E-05
  56.000      1.08820E-04
  57.000      1.22280E-04
  58.000      1.16420E-04
  59.000      1.27000E-04
  60.000      9.54040E-05
  61.000      1.27730E-04
  62.000      1.62980E-04
  63.000      1.60050E-04
  64.000      1.61850E-04
  65.000      1.58040E-04
  65.800      1.27240E-04
  66.500      1.66230E-04
  67.500      1.99410E-04
  68.500      1.49540E-04
  69.500      2.23310E-04
  70.500      1.70130E-04
  71.600      2.56750E-04
  72.600      2.55090E-04
  73.500      2.60070E-04
  74.500      2.47930E-04
  75.500      2.56260E-04
  76.500      2.66100E-04
  77.500      2.87520E-04
  78.500      3.02390E-04
  79.500      3.14340E-04
  80.500      3.01210E-04
  81.500      3.03870E-04
  82.500      3.35720E-04
  83.500      2.61420E-04
  84.500      3.28180E-04
  85.500      3.28990E-04
  86.500      3.49570E-04
  87.500      3.59430E-04
  88.500      3.75740E-04
  89.500      3.85270E-04
  90.500      3.77480E-04
  91.500      3.94490E-04
  92.500      1.04500E-03
  93.500      1.68900E-03
  94.500      2.21170E-03
  95.500      2.44490E-03
  96.500      2.80360E-03
  97.500      1.02670E-03
  98.500      2.21710E-03
  99.500      2.04900E-03
  100.50      2.21130E-03
  101.50      2.43130E-03
  102.50      1.98350E-03
  103.50      2.43950E-03
  104.50      2.94410E-03
  105.50      2.79720E-03
  106.50      2.38640E-03
  107.50      2.55810E-03
  108.50      2.37130E-03
  109.50      2.57570E-03
  110.50      2.49770E-03
  111.50      2.50770E-03
  112.50      1.98780E-03
  113.50      2.45730E-03
  114.50      2.43300E-03
  115.50      2.32240E-03
  116.50      2.26350E-03
  117.50      1.40550E-03
  118.50      2.11570E-03
  119.50      2.09210E-03
  120.50      2.01510E-03
  121.50      1.64460E-03
  122.50      2.03720E-03
  123.50      2.23290E-03
  124.50      2.16060E-03
  125.50      2.18590E-03
  126.50      2.30530E-03
  127.50      2.44440E-03
  128.50      2.49180E-03
  129.50      2.31100E-03
  130.50      2.34760E-03
  131.50      2.56710E-03
  132.50      2.50350E-03
  133.50      2.45220E-03
  134.50      2.47880E-03
  135.50      2.45520E-03
  136.50      2.38860E-03
  137.50      2.32720E-03
  138.50      2.26360E-03
  139.50      1.73110E-03
  140.50      1.82340E-03
  141.50      2.24640E-03
  142.50      2.02730E-03
  143.50      2.22390E-03
  144.20      2.20290E-03
  144.70      2.20860E-03
  145.50      2.10940E-03
  146.50      2.05660E-03
  147.50      2.13040E-03
  148.50      2.15640E-03
  149.50      2.10530E-03
  150.50      2.02800E-03
  151.20      1.98450E-03
  151.70      2.02900E-03
  152.50      1.97270E-03
  153.50      1.69540E-03
  154.50      1.41570E-03
  155.50      1.44630E-03
  156.50      1.69880E-03
  157.50      1.82300E-03
  158.50      1.86540E-03
  159.50      1.88060E-03
  160.50      1.82150E-03
  161.50      1.74120E-03
  162.50      1.81780E-03
  163.50      1.87240E-03
  164.50      1.90790E-03
  165.50      1.90980E-03
  166.50      1.91170E-03
  167.20      1.75270E-03
  167.70      2.12710E-03
  168.50      2.01780E-03
  169.50      1.95890E-03
  170.50      1.96300E-03
  171.50      1.86560E-03
  172.50      1.80540E-03
  173.50      1.90040E-03
  174.50      1.90800E-03
  175.50      1.90760E-03
  176.50      1.90160E-03
  177.50      1.83010E-03
  178.50      1.89420E-03
  179.50      1.87290E-03
  180.50      1.88420E-03
  181.50      1.83110E-03
  182.50      1.82650E-03
  183.50      1.83910E-03
  184.50      1.74760E-03
  185.50      1.81770E-03
  186.50      1.84230E-03
  187.50      1.81890E-03
  188.50      1.72210E-03
  189.50      1.69480E-03
  190.50      1.77230E-03
  191.50      1.73340E-03
  192.50      1.62490E-03
  193.50      1.76990E-03
  194.50      1.81550E-03
  195.50      1.63260E-03
  196.70      1.75730E-03
  197.60      1.82810E-03
  198.40      1.76040E-03
  199.50      1.73850E-03
  200.50      1.79370E-03
  201.50      1.80440E-03
  202.50      1.82970E-03
  203.50      1.74330E-03
  204.50      1.74480E-03
  205.50      1.43960E-03
  206.50      1.40520E-03
  207.40      1.47770E-03
  207.80      1.44720E-03
  208.50      1.53520E-03
  209.50      1.61310E-03
  210.50      1.70490E-03
  211.50      1.73920E-03
  212.50      1.72680E-03
  213.50      1.72250E-03
  214.50      1.69640E-03
  215.50      1.72520E-03
  216.50      1.66330E-03
  217.50      1.71290E-03
  218.50      1.67200E-03
  219.50      1.72530E-03
  220.50      1.71370E-03
  221.50      1.66140E-03
  222.50      1.68440E-03
  223.50      1.66840E-03
  224.50      1.65800E-03
  225.50      1.61880E-03
  226.50      1.64710E-03
  227.50      1.64700E-03
  228.50      1.61120E-03
  229.50      1.42040E-03
  230.50      1.56050E-03
  231.50      1.56610E-03
  232.50      1.57990E-03
  233.50      1.56420E-03
  234.50      1.56120E-03
  235.50      1.53450E-03
  236.50      1.52030E-03
  237.50      1.49170E-03
  238.50      1.44440E-03
  239.50      1.46610E-03
  240.50      1.47740E-03
  241.50      1.47340E-03
  242.50      1.48050E-03
  243.50      1.46210E-03
  244.50      1.46070E-03
  245.50      1.45400E-03
  246.50      1.44570E-03
  247.50      1.43680E-03
  248.50      1.39160E-03
  249.50      1.02260E-03
  250.50      1.34100E-03
  251.30      1.31340E-03
  251.80      1.34710E-03
  252.50      1.39130E-03
  253.50      1.39560E-03
  254.50      1.37110E-03
  255.50      1.36840E-03
  256.50      1.36140E-03
  257.50      1.35730E-03
  258.50      1.35290E-03
  259.50      1.33830E-03
  260.50      1.34330E-03
  261.50      1.32140E-03
  262.50      1.32690E-03
  263.50      1.32460E-03
  264.50      1.30820E-03
  265.50      1.30630E-03
  266.50      1.27670E-03
  267.50      1.25510E-03
  268.50      1.27920E-03
  269.50      1.25100E-03
  270.50      1.24540E-03
  271.50      1.24020E-03
  272.50      1.24450E-03
  273.50      1.22260E-03
  274.50      1.23660E-03
  275.50      1.23100E-03
  276.50      1.21890E-03
  277.50      1.22980E-03
  278.50      1.21310E-03
  279.50      1.17430E-03
  280.50      1.19380E-03
  281.50      1.20210E-03
  282.50      1.19370E-03
  283.50      1.17050E-03
  284.50      1.18320E-03
  285.50      1.17140E-03
  286.50      1.16000E-03
  287.50      1.15640E-03
  288.50      1.15120E-03
  289.50      1.14530E-03
  291.00      1.12640E-03
  293.00      1.13130E-03
  295.00      1.11190E-03
  297.00      1.10200E-03
  299.00      1.08060E-03
  301.00      1.05900E-03
  303.00      1.04870E-03
  305.00      1.05100E-03
  307.00      1.04810E-03
  309.00      1.02470E-03
  311.00      1.03170E-03
  313.00      1.01440E-03
  315.00      1.01120E-03
  317.00      9.96220E-04
  319.00      9.90880E-04
  321.00      9.75200E-04
  323.00      9.68010E-04
  325.00      9.66410E-04
  327.00      9.46970E-04
  329.00      9.43960E-04
  331.00      9.33220E-04
  333.00      9.20870E-04
  335.00      9.08420E-04
  337.00      9.01670E-04
  339.00      9.02820E-04
  341.00      8.93120E-04
  343.00      8.88740E-04
  345.00      8.73820E-04
  347.00      8.69640E-04
  349.00      8.61670E-04
  351.00      8.54470E-04
  353.00      8.50330E-04
  355.00      8.41150E-04
  357.00      8.34650E-04
  359.00      8.22350E-04
  361.00      8.14520E-04
  363.00      8.09290E-04
  364.00      8.04890E-04
  365.00      7.72250E-04
  367.00      7.68600E-04
  369.00      7.62030E-04
  371.00      7.41750E-04
  373.00      7.37480E-04
  375.00      7.43130E-04
  377.00      7.33990E-04
  379.00      7.66470E-04
  381.00      7.90200E-04
  383.00      7.22130E-04
  385.00      8.02880E-04
  387.00      7.84970E-04
  389.00      6.98220E-04
  391.00      8.07180E-04
  393.00      7.88290E-04
  395.00      7.74820E-04
  397.00      6.69100E-04
  399.00      7.75070E-04
  401.00      7.70900E-04
  403.00      7.46670E-04
  405.00      7.59720E-04
  407.00      7.31970E-04
  409.00      6.96090E-04
  411.00      6.46870E-04
  413.00      7.20530E-04
  415.00      7.19020E-04
  417.00      7.23890E-04
  419.00      7.18230E-04
  421.00      7.11200E-04
  423.00      7.09740E-04
  425.00      6.94520E-04
  427.00      6.85610E-04
  429.00      6.78760E-04
  431.00      6.63520E-04
  433.00      6.28810E-04
  435.00      5.94060E-04
  437.00      6.51510E-04
  439.00      6.48170E-04
  441.00      6.46070E-04
  443.00      6.49460E-04
  445.00      6.42360E-04
  447.00      6.26960E-04
  449.00      6.35850E-04
  451.00      6.25340E-04
  453.00      6.25360E-04
  455.00      6.17020E-04
  457.00      6.19140E-04
  459.00      6.11810E-04
  461.00      6.04320E-04
  463.00      5.95030E-04
  465.00      5.68020E-04
  467.00      5.88720E-04
  469.00      5.83490E-04
  471.00      5.78000E-04
  473.00      5.87210E-04
  475.00      5.82160E-04
  477.00      5.82990E-04
  479.00      5.78030E-04
  481.00      5.71280E-04
  483.00      5.64170E-04
  485.00      5.39250E-04
  487.00      4.93740E-04
  489.00      5.51650E-04
  491.00      5.49310E-04
  493.00      5.38640E-04
  495.00      5.40320E-04
  497.00      5.41980E-04
  499.00      5.37750E-04
  501.00      5.20770E-04
  503.00      5.26360E-04
  505.00      5.22390E-04
  507.00      5.22970E-04
  509.00      5.18420E-04
  511.00      5.14010E-04
  513.00      5.08610E-04
  515.00      5.05690E-04
  517.00      5.02890E-04
  519.00      5.00520E-04
  521.00      4.97530E-04
  523.00      4.94130E-04
  525.00      4.88600E-04
  527.00      4.84830E-04
  529.00      4.84230E-04
  531.00      4.80650E-04
  533.00      4.77700E-04
  535.00      4.74490E-04
  537.00      4.71360E-04
  539.00      4.67680E-04
  541.00      4.60590E-04
  543.00      4.62310E-04
  545.00      4.59040E-04
  547.00      4.55820E-04
  549.00      4.52770E-04
  551.00      4.50000E-04
  553.00      4.46700E-04
  555.00      4.44700E-04
  557.00      4.41360E-04
  559.00      4.37580E-04
  561.00      4.36200E-04
  563.00      4.33450E-04
  565.00      4.30110E-04
  567.00      4.25910E-04
  569.00      4.17070E-04
  571.00      4.12270E-04
  573.00      4.10440E-04
  575.00      4.06780E-04
  577.00      4.06080E-04
  579.00      4.03220E-04
  581.00      3.99790E-04
  583.00      3.96730E-04
  585.00      3.96530E-04
  587.00      3.86060E-04
  589.00      3.90700E-04
  591.00      3.90260E-04
  593.00      3.88380E-04
  595.00      3.86840E-04
  597.00      3.87010E-04
  599.00      3.84130E-04
  601.00      3.83460E-04
  603.00      3.80750E-04
  605.00      3.79120E-04
  607.00      3.77520E-04
  609.00      3.75490E-04
  611.00      3.72870E-04
  613.00      3.70940E-04
  615.00      3.67170E-04
  617.00      3.65500E-04
  619.00      3.64400E-04
  621.00      3.62660E-04
  623.00      3.60420E-04
  625.00      3.57650E-04
  627.00      3.56050E-04
  629.00      3.54210E-04
  631.00      3.51410E-04
  633.00      3.50260E-04
  635.00      3.47710E-04
  637.00      3.46390E-04
  639.00      3.44290E-04
  641.00      3.42030E-04
  643.00      3.40510E-04
  645.00      3.38200E-04
  647.00      3.35090E-04
  649.00      3.33520E-04
  651.00      3.31290E-04
  653.00      3.28620E-04
  655.00      3.20350E-04
  657.00      2.89680E-04
  659.00      3.21760E-04
  661.00      3.22810E-04
  663.00      3.21700E-04
  665.00      3.19720E-04
  667.00      3.14600E-04
  669.00      3.12650E-04
  671.00      3.13920E-04
  673.00      3.11400E-04
  675.00      3.10630E-04
  677.00      3.09600E-04
  679.00      3.06360E-04
  681.00      3.06190E-04
  683.00      3.04460E-04
  685.00      3.02980E-04
  687.00      3.01080E-04
  689.00      2.98390E-04
  691.00      2.96980E-04
  693.00      2.96820E-04
  695.00      2.95200E-04
  697.00      2.93680E-04
  699.00      2.92010E-04
  701.00      2.90160E-04
  703.00      2.88050E-04
  705.00      2.86980E-04
  707.00      2.81810E-04
  709.00      2.84480E-04
  711.00      2.81640E-04
  713.00      2.80360E-04
  715.00      2.80070E-04
  717.00      2.78080E-04
  719.00      2.76960E-04
  721.00      2.75870E-04
  723.00      2.71510E-04
  725.00      2.72470E-04
  727.00      2.71650E-04
  729.00      2.68450E-04
  731.00      2.68710E-04
  733.00      2.67410E-04
  735.00      2.66140E-04
  737.00      2.64820E-04
  739.00      2.63540E-04
  741.00      2.62180E-04
  743.00      2.60910E-04
  745.00      2.59440E-04
  747.00      2.57270E-04
  749.00      2.55840E-04
  751.00      2.55580E-04
  753.00      2.54170E-04
  755.00      2.53210E-04
  757.00      2.51880E-04
  759.00      2.49520E-04
  761.00      2.48780E-04
  763.00      2.47980E-04
  765.00      2.46860E-04
  767.00      2.45850E-04
  769.00      2.43980E-04
  771.00      2.43050E-04
  773.00      2.41350E-04
  775.00      2.41050E-04
  777.00      2.39940E-04
  779.00      2.38890E-04
  781.00      2.37710E-04
  783.00      2.36610E-04
  785.00      2.35270E-04
  787.00      2.33810E-04
  789.00      2.32600E-04
  791.00      2.31910E-04
  793.00      2.30780E-04
  795.00      2.30010E-04
  797.00      2.28780E-04
  799.00      2.27800E-04
  801.00      2.26660E-04
  803.00      2.25420E-04
  805.00      2.24700E-04
  807.00      2.23630E-04
  809.00      2.22470E-04
  811.00      2.20140E-04
  813.00      2.20580E-04
  815.00      2.19410E-04
  817.00      2.18560E-04
  819.00      2.16310E-04
  821.00      2.14040E-04
  823.00      2.12260E-04
  825.00      2.12500E-04
  827.00      2.10120E-04
  829.00      2.10570E-04
  831.00      2.10010E-04
  833.00      2.08550E-04
  835.00      2.06840E-04
  837.00      2.06690E-04
  839.00      2.06410E-04
  841.00      2.05270E-04
  843.00      2.04570E-04
  845.00      2.02780E-04
  847.00      2.02810E-04
  849.00      2.01650E-04
  851.00      1.99840E-04
  853.00      1.99930E-04
  855.00      1.98510E-04
  857.00      1.99060E-04
  859.00      1.95360E-04
  861.00      1.95610E-04
  863.00      1.97550E-04
  865.00      1.94460E-04
  867.00      1.89330E-04
  869.00      1.95020E-04
  871.00      1.95450E-04
  873.00      1.92160E-04
  875.00      1.82230E-04
  877.00      1.88970E-04
  879.00      1.92970E-04
  881.00      1.93020E-04
  883.00      1.91100E-04
  885.00      1.83220E-04
  887.00      1.74690E-04
  889.00      1.87530E-04
  891.00      1.89110E-04
  893.00      1.88640E-04
  895.00      1.87940E-04
  897.00      1.86980E-04
  899.00      1.83280E-04
  901.00      1.68460E-04
  903.00      1.74690E-04
  905.00      1.82850E-04
  907.00      1.81950E-04
  909.00      1.82330E-04
  911.00      1.82470E-04
  913.00      1.81780E-04
  915.00      1.81100E-04
  917.00      1.79570E-04
  919.00      1.78350E-04
  921.00      1.72310E-04
  923.00      1.56330E-04
  925.00      1.70560E-04
  927.00      1.75160E-04
  929.00      1.75230E-04
  931.00      1.74390E-04
  933.00      1.73890E-04
  935.00      1.72560E-04
  937.00      1.72710E-04
  939.00      1.72260E-04
  941.00      1.71230E-04
  943.00      1.70680E-04
  945.00      1.69980E-04
  947.00      1.68680E-04
  949.00      1.68180E-04
  951.00      1.65710E-04
  953.00      1.60060E-04
  955.00      1.45780E-04
  957.00      1.61400E-04
  959.00      1.64540E-04
  961.00      1.63960E-04
  963.00      1.63080E-04
  965.00      1.63620E-04
  967.00      1.63090E-04
  969.00      1.62340E-04
  971.00      1.57930E-04
  973.00      1.60500E-04
  975.00      1.60500E-04
  977.00      1.59860E-04
  979.00      1.59230E-04
  981.00      1.58480E-04
  983.00      1.58000E-04
  985.00      1.57300E-04
  987.00      1.56640E-04
  989.00      1.55700E-04
  991.00      1.54560E-04
  993.00      1.54990E-04
  995.00      1.54380E-04
  997.00      1.53590E-04
  999.00      1.52840E-04
  1002.5      1.46280E-04
  1007.5      1.42970E-04
  1012.5      1.47580E-04
  1017.5      1.47980E-04
  1022.5      1.46480E-04
  1027.5      1.45170E-04
  1032.5      1.43350E-04
  1037.5      1.42580E-04
  1042.5      1.41230E-04
  1047.5      1.39990E-04
  1052.5      1.38650E-04
  1057.5      1.37450E-04
  1062.5      1.36200E-04
  1067.5      1.34830E-04
  1072.5      1.33790E-04
  1077.5      1.32580E-04
  1082.5      1.30190E-04
  1087.5      1.29820E-04
  1092.5      1.19830E-04
  1097.5      1.25250E-04
  1102.5      1.26210E-04
  1107.5      1.25690E-04
  1112.5      1.24660E-04
  1117.5      1.23640E-04
  1122.5      1.22540E-04
  1127.5      1.21510E-04
  1132.5      1.20320E-04
  1137.5      1.19410E-04
  1142.5      1.18380E-04
  1147.5      1.17450E-04
  1152.5      1.16520E-04
  1157.5      1.15440E-04
  1162.5      1.14250E-04
  1167.5      1.13350E-04
  1172.5      1.12730E-04
  1177.5      1.11790E-04
  1182.5      1.10810E-04
  1187.5      1.09960E-04
  1192.5      1.09080E-04
  1197.5      1.07020E-04
  1202.5      1.07360E-04
  1207.5      1.06480E-04
  1212.5      1.05570E-04
  1217.5      1.04810E-04
  1222.5      1.03990E-04
  1227.5      1.03180E-04
  1232.5      1.02330E-04
  1237.5      1.01550E-04
  1242.5      1.00790E-04
  1247.5      9.99650E-05
  1252.5      9.89660E-05
  1257.5      9.83860E-05
  1262.5      9.76710E-05
  1267.5      9.69770E-05
  1272.5      9.61870E-05
  1277.5      9.39370E-05
  1282.5      8.78870E-05
  1287.5      9.35000E-05
  1292.5      9.33670E-05
  1297.5      9.21240E-05
  1302.5      9.18970E-05
  1307.5      9.13210E-05
  1312.5      9.06530E-05
  1317.5      8.99860E-05
  1322.5      8.93280E-05
  1327.5      8.86770E-05
  1332.5      8.79910E-05
  1337.5      8.73130E-05
  1342.5      8.66590E-05
  1347.5      8.61110E-05
  1352.5      8.54290E-05
  1357.5      8.48940E-05
  1362.5      8.41760E-05
  1367.5      8.36930E-05
  1372.5      8.29950E-05
  1377.5      8.25380E-05
  1382.5      8.19600E-05
  1387.5      8.13760E-05
  1392.5      8.07190E-05
  1397.5      8.02330E-05
