 Castelli and Kurucz 2004-2012 Atmosphere
 T     33000.     G    4.00000 [+0.5] N(He)/Ntot=0.07813 VTURB=2.0  L/H=1.25 NO
 Wavelength  Eddington Hnu
   (nm)    (ergs/s/cm2/Hz/sr)
  9.0900      3.30590E-32
  9.3500      1.86230E-31
  9.6100      9.60860E-31
  9.7700      2.55160E-30
  9.9600      7.81110E-30
  10.200      3.04310E-29
  10.380      8.13970E-29
  10.560      2.11320E-28
  10.770      6.20050E-28
  11.040      2.34350E-27
  11.400      1.26210E-26
  11.780      6.75570E-26
  12.130      2.90850E-25
  12.480      1.16050E-24
  12.710      2.77250E-24
  12.840      4.47760E-24
  13.050      9.51840E-24
  13.240      1.85070E-23
  13.390      3.08810E-23
  13.660      7.55680E-23
  13.980      2.09510E-22
  14.330      6.07610E-22
  14.720      1.87380E-21
  15.100      5.35600E-21
  15.520      1.60800E-20
  15.880      3.94740E-20
  16.200      8.48310E-20
  16.600      2.12830E-19
  17.030      5.42430E-19
  17.340      1.04310E-18
  17.680      2.09450E-18
  18.020      4.05590E-18
  18.170      5.46300E-18
  18.610      1.22530E-17
  19.100      2.89550E-17
  19.390      4.71080E-17
  19.840      9.83960E-17
  20.180      1.66760E-16
  20.500      2.70020E-16
  21.050      5.99330E-16
  21.620      1.29780E-15
  21.980      2.10870E-15
  22.300      3.17590E-15
  22.680      5.31330E-15
  23.000      1.53230E-12
  23.400      3.24350E-12
  24.000      5.32220E-12
  24.650      9.26400E-12
  25.240      1.59230E-11
  25.680      2.37930E-11
  26.000      4.57000E-11
  26.400      9.84910E-11
  26.850      1.56650E-10
  27.350      2.16450E-10
  27.850      2.64100E-10
  28.400      5.89560E-10
  29.000      8.74020E-10
  29.600      1.16280E-09
  30.100      2.87610E-09
  30.800      7.49330E-09
  31.800      1.79150E-08
  32.800      2.69020E-08
  33.800      5.56890E-08
  34.800      9.18740E-08
  35.700      2.10150E-07
  36.600      5.29170E-07
  37.500      6.13950E-07
  38.500      9.21700E-07
  39.500      2.14930E-06
  40.500      3.02050E-06
  41.400      3.85660E-06
  42.200      4.68980E-06
  43.000      5.04770E-06
  44.100      6.51850E-06
  45.100      6.91480E-06
  46.000      6.62840E-06
  47.000      8.38870E-06
  48.000      1.04780E-05
  49.000      9.86250E-06
  50.000      1.32640E-05
  50.600      1.59390E-05
  51.200      9.84040E-05
  52.000      9.62100E-05
  53.000      8.92380E-05
  54.000      8.28880E-05
  55.000      9.17130E-05
  56.000      1.40570E-04
  57.000      1.75820E-04
  58.000      1.68380E-04
  59.000      1.79990E-04
  60.000      1.18800E-04
  61.000      1.63750E-04
  62.000      2.30000E-04
  63.000      2.23830E-04
  64.000      2.38060E-04
  65.000      2.19390E-04
  65.800      1.58640E-04
  66.500      2.32060E-04
  67.500      2.96690E-04
  68.500      2.03300E-04
  69.500      3.16420E-04
  70.500      2.16060E-04
  71.600      3.70770E-04
  72.600      3.71580E-04
  73.500      3.79640E-04
  74.500      3.36070E-04
  75.500      3.50560E-04
  76.500      3.49840E-04
  77.500      3.96010E-04
  78.500      3.96870E-04
  79.500      4.36220E-04
  80.500      4.10650E-04
  81.500      4.13680E-04
  82.500      4.62200E-04
  83.500      3.36990E-04
  84.500      4.47870E-04
  85.500      4.46190E-04
  86.500      4.78350E-04
  87.500      4.90480E-04
  88.500      5.09090E-04
  89.500      5.19160E-04
  90.500      5.07450E-04
  91.500      5.34550E-04
  92.500      1.21110E-03
  93.500      1.84110E-03
  94.500      2.11050E-03
  95.500      2.27020E-03
  96.500      2.47970E-03
  97.500      1.08490E-03
  98.500      1.96140E-03
  99.500      1.83730E-03
  100.50      1.95370E-03
  101.50      2.14920E-03
  102.50      1.96650E-03
  103.50      2.21600E-03
  104.50      2.57360E-03
  105.50      2.46390E-03
  106.50      2.18920E-03
  107.50      2.28770E-03
  108.50      2.15570E-03
  109.50      2.29530E-03
  110.50      2.24630E-03
  111.50      2.24330E-03
  112.50      1.84620E-03
  113.50      2.22100E-03
  114.50      2.24110E-03
  115.50      2.11740E-03
  116.50      2.06960E-03
  117.50      1.33750E-03
  118.50      1.93360E-03
  119.50      1.91130E-03
  120.50      1.87910E-03
  121.50      1.65770E-03
  122.50      1.87590E-03
  123.50      2.03280E-03
  124.50      1.97020E-03
  125.50      1.99940E-03
  126.50      2.10690E-03
  127.50      2.23910E-03
  128.50      2.27760E-03
  129.50      2.18010E-03
  130.50      2.18020E-03
  131.50      2.35080E-03
  132.50      2.31350E-03
  133.50      2.26030E-03
  134.50      2.30830E-03
  135.50      2.25940E-03
  136.50      2.22370E-03
  137.50      2.16120E-03
  138.50      2.12490E-03
  139.50      1.69110E-03
  140.50      1.74670E-03
  141.50      2.14600E-03
  142.50      1.92910E-03
  143.50      2.11350E-03
  144.20      2.06990E-03
  144.70      2.08130E-03
  145.50      1.99080E-03
  146.50      1.96460E-03
  147.50      2.03510E-03
  148.50      2.06680E-03
  149.50      2.01920E-03
  150.50      1.98470E-03
  151.20      1.96420E-03
  151.70      2.00340E-03
  152.50      1.93220E-03
  153.50      1.68430E-03
  154.50      1.33580E-03
  155.50      1.38760E-03
  156.50      1.67230E-03
  157.50      1.79560E-03
  158.50      1.83740E-03
  159.50      1.84980E-03
  160.50      1.76740E-03
  161.50      1.69920E-03
  162.50      1.77490E-03
  163.50      1.82480E-03
  164.50      1.85630E-03
  165.50      1.85440E-03
  166.50      1.85610E-03
  167.20      1.69300E-03
  167.70      2.05930E-03
  168.50      1.95940E-03
  169.50      1.91280E-03
  170.50      1.92160E-03
  171.50      1.81500E-03
  172.50      1.78030E-03
  173.50      1.86960E-03
  174.50      1.87680E-03
  175.50      1.87080E-03
  176.50      1.87060E-03
  177.50      1.80840E-03
  178.50      1.86890E-03
  179.50      1.83660E-03
  180.50      1.84670E-03
  181.50      1.81540E-03
  182.50      1.79970E-03
  183.50      1.82090E-03
  184.50      1.76210E-03
  185.50      1.82140E-03
  186.50      1.83740E-03
  187.50      1.80480E-03
  188.50      1.73410E-03
  189.50      1.73060E-03
  190.50      1.78980E-03
  191.50      1.76330E-03
  192.50      1.65960E-03
  193.50      1.79170E-03
  194.50      1.82310E-03
  195.50      1.65690E-03
  196.70      1.77050E-03
  197.60      1.81820E-03
  198.40      1.78110E-03
  199.50      1.75000E-03
  200.50      1.80560E-03
  201.50      1.81420E-03
  202.50      1.83090E-03
  203.50      1.76650E-03
  204.50      1.75810E-03
  205.50      1.41190E-03
  206.50      1.37890E-03
  207.40      1.46950E-03
  207.80      1.46610E-03
  208.50      1.60350E-03
  209.50      1.67580E-03
  210.50      1.70990E-03
  211.50      1.75130E-03
  212.50      1.73330E-03
  213.50      1.73820E-03
  214.50      1.71770E-03
  215.50      1.73640E-03
  216.50      1.67100E-03
  217.50      1.72410E-03
  218.50      1.68870E-03
  219.50      1.73750E-03
  220.50      1.72380E-03
  221.50      1.67480E-03
  222.50      1.69710E-03
  223.50      1.68480E-03
  224.50      1.66900E-03
  225.50      1.63990E-03
  226.50      1.65960E-03
  227.50      1.66380E-03
  228.50      1.62830E-03
  229.50      1.44760E-03
  230.50      1.58190E-03
  231.50      1.58420E-03
  232.50      1.60110E-03
  233.50      1.58690E-03
  234.50      1.57400E-03
  235.50      1.54640E-03
  236.50      1.53030E-03
  237.50      1.50370E-03
  238.50      1.45360E-03
  239.50      1.47840E-03
  240.50      1.48950E-03
  241.50      1.48960E-03
  242.50      1.49790E-03
  243.50      1.48290E-03
  244.50      1.47860E-03
  245.50      1.46990E-03
  246.50      1.46070E-03
  247.50      1.45470E-03
  248.50      1.39880E-03
  249.50      9.91950E-04
  250.50      1.34500E-03
  251.30      1.34390E-03
  251.80      1.37250E-03
  252.50      1.41000E-03
  253.50      1.41560E-03
  254.50      1.39960E-03
  255.50      1.39370E-03
  256.50      1.38830E-03
  257.50      1.38140E-03
  258.50      1.37580E-03
  259.50      1.35650E-03
  260.50      1.36690E-03
  261.50      1.34310E-03
  262.50      1.35000E-03
  263.50      1.35060E-03
  264.50      1.33330E-03
  265.50      1.33160E-03
  266.50      1.31090E-03
  267.50      1.28350E-03
  268.50      1.30650E-03
  269.50      1.28560E-03
  270.50      1.28760E-03
  271.50      1.27660E-03
  272.50      1.27870E-03
  273.50      1.25460E-03
  274.50      1.27250E-03
  275.50      1.26390E-03
  276.50      1.25400E-03
  277.50      1.25880E-03
  278.50      1.24090E-03
  279.50      1.20900E-03
  280.50      1.22810E-03
  281.50      1.23080E-03
  282.50      1.22470E-03
  283.50      1.20860E-03
  284.50      1.21470E-03
  285.50      1.20520E-03
  286.50      1.18980E-03
  287.50      1.18670E-03
  288.50      1.18430E-03
  289.50      1.17970E-03
  291.00      1.16230E-03
  293.00      1.16350E-03
  295.00      1.14730E-03
  297.00      1.13440E-03
  299.00      1.11270E-03
  301.00      1.09440E-03
  303.00      1.07970E-03
  305.00      1.08260E-03
  307.00      1.07600E-03
  309.00      1.06140E-03
  311.00      1.06320E-03
  313.00      1.04810E-03
  315.00      1.04500E-03
  317.00      1.03130E-03
  319.00      1.02590E-03
  321.00      1.00570E-03
  323.00      1.00230E-03
  325.00      1.00000E-03
  327.00      9.78910E-04
  329.00      9.76950E-04
  331.00      9.65600E-04
  333.00      9.54570E-04
  335.00      9.38590E-04
  337.00      9.33770E-04
  339.00      9.34680E-04
  341.00      9.24880E-04
  343.00      9.21090E-04
  345.00      9.05300E-04
  347.00      9.02500E-04
  349.00      8.95220E-04
  351.00      8.88460E-04
  353.00      8.81350E-04
  355.00      8.72960E-04
  357.00      8.65770E-04
  359.00      8.55860E-04
  361.00      8.45370E-04
  363.00      8.40530E-04
  364.00      8.31920E-04
  365.00      7.82600E-04
  367.00      7.78030E-04
  369.00      7.72030E-04
  371.00      7.57900E-04
  373.00      7.59140E-04
  375.00      7.76160E-04
  377.00      7.76800E-04
  379.00      8.02160E-04
  381.00      8.20400E-04
  383.00      7.66910E-04
  385.00      8.25620E-04
  387.00      8.05670E-04
  389.00      7.45880E-04
  391.00      8.19100E-04
  393.00      7.98420E-04
  395.00      7.89790E-04
  397.00      7.14530E-04
  399.00      7.89280E-04
  401.00      7.81400E-04
  403.00      7.63630E-04
  405.00      7.69870E-04
  407.00      7.48270E-04
  409.00      7.22230E-04
  411.00      6.83280E-04
  413.00      7.33550E-04
  415.00      7.31320E-04
  417.00      7.33900E-04
  419.00      7.27540E-04
  421.00      7.18600E-04
  423.00      7.19690E-04
  425.00      7.07200E-04
  427.00      6.99060E-04
  429.00      6.93350E-04
  431.00      6.81070E-04
  433.00      6.58510E-04
  435.00      6.26070E-04
  437.00      6.69230E-04
  439.00      6.62120E-04
  441.00      6.57200E-04
  443.00      6.60330E-04
  445.00      6.53460E-04
  447.00      6.43620E-04
  449.00      6.46790E-04
  451.00      6.33590E-04
  453.00      6.33210E-04
  455.00      6.23790E-04
  457.00      6.27730E-04
  459.00      6.20030E-04
  461.00      6.16190E-04
  463.00      6.07520E-04
  465.00      5.78540E-04
  467.00      5.99580E-04
  469.00      5.91380E-04
  471.00      5.91900E-04
  473.00      5.98990E-04
  475.00      5.94200E-04
  477.00      5.92590E-04
  479.00      5.88060E-04
  481.00      5.82640E-04
  483.00      5.77130E-04
  485.00      5.62230E-04
  487.00      5.21230E-04
  489.00      5.64360E-04
  491.00      5.60550E-04
  493.00      5.52320E-04
  495.00      5.51740E-04
  497.00      5.52120E-04
  499.00      5.48380E-04
  501.00      5.34800E-04
  503.00      5.37610E-04
  505.00      5.33920E-04
  507.00      5.33300E-04
  509.00      5.29380E-04
  511.00      5.25440E-04
  513.00      5.20870E-04
  515.00      5.17600E-04
  517.00      5.14100E-04
  519.00      5.11330E-04
  521.00      5.08330E-04
  523.00      5.05160E-04
  525.00      4.99180E-04
  527.00      4.95790E-04
  529.00      4.95150E-04
  531.00      4.91680E-04
  533.00      4.88520E-04
  535.00      4.85620E-04
  537.00      4.82300E-04
  539.00      4.78790E-04
  541.00      4.70670E-04
  543.00      4.73190E-04
  545.00      4.70080E-04
  547.00      4.66710E-04
  549.00      4.63830E-04
  551.00      4.60550E-04
  553.00      4.57820E-04
  555.00      4.55440E-04
  557.00      4.51910E-04
  559.00      4.47780E-04
  561.00      4.46900E-04
  563.00      4.44080E-04
  565.00      4.41050E-04
  567.00      4.37370E-04
  569.00      4.27120E-04
  571.00      4.16330E-04
  573.00      4.14200E-04
  575.00      4.10980E-04
  577.00      4.09800E-04
  579.00      4.07280E-04
  581.00      4.03500E-04
  583.00      4.02080E-04
  585.00      4.02540E-04
  587.00      3.94610E-04
  589.00      3.99270E-04
  591.00      3.98890E-04
  593.00      3.97850E-04
  595.00      3.97370E-04
  597.00      3.97760E-04
  599.00      3.95830E-04
  601.00      3.94810E-04
  603.00      3.91760E-04
  605.00      3.89710E-04
  607.00      3.87770E-04
  609.00      3.85970E-04
  611.00      3.83100E-04
  613.00      3.81100E-04
  615.00      3.78100E-04
  617.00      3.75760E-04
  619.00      3.74950E-04
  621.00      3.73130E-04
  623.00      3.70060E-04
  625.00      3.68220E-04
  627.00      3.66520E-04
  629.00      3.64570E-04
  631.00      3.61030E-04
  633.00      3.60530E-04
  635.00      3.58020E-04
  637.00      3.56550E-04
  639.00      3.54430E-04
  641.00      3.51300E-04
  643.00      3.50600E-04
  645.00      3.48030E-04
  647.00      3.45400E-04
  649.00      3.43820E-04
  651.00      3.41480E-04
  653.00      3.38530E-04
  655.00      3.34250E-04
  657.00      3.06420E-04
  659.00      3.33300E-04
  661.00      3.33000E-04
  663.00      3.31590E-04
  665.00      3.29590E-04
  667.00      3.24740E-04
  669.00      3.22050E-04
  671.00      3.23470E-04
  673.00      3.20990E-04
  675.00      3.19960E-04
  677.00      3.19040E-04
  679.00      3.16770E-04
  681.00      3.15840E-04
  683.00      3.14140E-04
  685.00      3.12400E-04
  687.00      3.10410E-04
  689.00      3.06870E-04
  691.00      3.06600E-04
  693.00      3.06120E-04
  695.00      3.04450E-04
  697.00      3.02920E-04
  699.00      3.01280E-04
  701.00      2.99270E-04
  703.00      2.97000E-04
  705.00      2.96020E-04
  707.00      2.91260E-04
  709.00      2.93560E-04
  711.00      2.91250E-04
  713.00      2.89930E-04
  715.00      2.89130E-04
  717.00      2.86390E-04
  719.00      2.85620E-04
  721.00      2.84740E-04
  723.00      2.81220E-04
  725.00      2.81430E-04
  727.00      2.80420E-04
  729.00      2.77400E-04
  731.00      2.77310E-04
  733.00      2.76130E-04
  735.00      2.74810E-04
  737.00      2.73370E-04
  739.00      2.72110E-04
  741.00      2.70660E-04
  743.00      2.69430E-04
  745.00      2.67780E-04
  747.00      2.66100E-04
  749.00      2.64080E-04
  751.00      2.63940E-04
  753.00      2.62580E-04
  755.00      2.61470E-04
  757.00      2.60030E-04
  759.00      2.56820E-04
  761.00      2.56980E-04
  763.00      2.56120E-04
  765.00      2.55020E-04
  767.00      2.54000E-04
  769.00      2.51930E-04
  771.00      2.51060E-04
  773.00      2.49360E-04
  775.00      2.48880E-04
  777.00      2.48040E-04
  779.00      2.46750E-04
  781.00      2.45660E-04
  783.00      2.44530E-04
  785.00      2.42800E-04
  787.00      2.41690E-04
  789.00      2.40650E-04
  791.00      2.39840E-04
  793.00      2.38730E-04
  795.00      2.37840E-04
  797.00      2.36450E-04
  799.00      2.35570E-04
  801.00      2.34430E-04
  803.00      2.33100E-04
  805.00      2.32390E-04
  807.00      2.31310E-04
  809.00      2.30110E-04
  811.00      2.28220E-04
  813.00      2.28180E-04
  815.00      2.26930E-04
  817.00      2.25990E-04
  819.00      2.24040E-04
  821.00      2.19520E-04
  823.00      2.17560E-04
  825.00      2.17740E-04
  827.00      2.15920E-04
  829.00      2.15870E-04
  831.00      2.15230E-04
  833.00      2.13560E-04
  835.00      2.12040E-04
  837.00      2.11930E-04
  839.00      2.11610E-04
  841.00      2.10590E-04
  843.00      2.09860E-04
  845.00      2.08410E-04
  847.00      2.08110E-04
  849.00      2.07310E-04
  851.00      2.05020E-04
  853.00      2.05940E-04
  855.00      2.03680E-04
  857.00      2.05310E-04
  859.00      2.01490E-04
  861.00      2.01240E-04
  863.00      2.04150E-04
  865.00      2.01510E-04
  867.00      1.94430E-04
  869.00      2.02100E-04
  871.00      2.02380E-04
  873.00      1.99810E-04
  875.00      1.88270E-04
  877.00      1.97060E-04
  879.00      2.00090E-04
  881.00      1.99700E-04
  883.00      1.98280E-04
  885.00      1.91920E-04
  887.00      1.82100E-04
  889.00      1.95210E-04
  891.00      1.95590E-04
  893.00      1.94800E-04
  895.00      1.94130E-04
  897.00      1.93390E-04
  899.00      1.90780E-04
  901.00      1.76700E-04
  903.00      1.83540E-04
  905.00      1.89740E-04
  907.00      1.88430E-04
  909.00      1.88450E-04
  911.00      1.88100E-04
  913.00      1.87460E-04
  915.00      1.86820E-04
  917.00      1.85600E-04
  919.00      1.84680E-04
  921.00      1.80340E-04
  923.00      1.64980E-04
  925.00      1.78960E-04
  927.00      1.81560E-04
  929.00      1.81160E-04
  931.00      1.80150E-04
  933.00      1.79590E-04
  935.00      1.77420E-04
  937.00      1.77910E-04
  939.00      1.77690E-04
  941.00      1.76570E-04
  943.00      1.76070E-04
  945.00      1.75440E-04
  947.00      1.74350E-04
  949.00      1.73960E-04
  951.00      1.71900E-04
  953.00      1.68150E-04
  955.00      1.54350E-04
  957.00      1.68930E-04
  959.00      1.70400E-04
  961.00      1.69640E-04
  963.00      1.68600E-04
  965.00      1.68840E-04
  967.00      1.68290E-04
  969.00      1.67540E-04
  971.00      1.62220E-04
  973.00      1.65450E-04
  975.00      1.65620E-04
  977.00      1.64680E-04
  979.00      1.64350E-04
  981.00      1.63660E-04
  983.00      1.63040E-04
  985.00      1.62390E-04
  987.00      1.61760E-04
  989.00      1.60870E-04
  991.00      1.59860E-04
  993.00      1.60000E-04
  995.00      1.59410E-04
  997.00      1.58670E-04
  999.00      1.58160E-04
  1002.5      1.52940E-04
  1007.5      1.49670E-04
  1012.5      1.52250E-04
  1017.5      1.52800E-04
  1022.5      1.51270E-04
  1027.5      1.49860E-04
  1032.5      1.48100E-04
  1037.5      1.47240E-04
  1042.5      1.45710E-04
  1047.5      1.44580E-04
  1052.5      1.43210E-04
  1057.5      1.41970E-04
  1062.5      1.40690E-04
  1067.5      1.39330E-04
  1072.5      1.38220E-04
  1077.5      1.36980E-04
  1082.5      1.34600E-04
  1087.5      1.34420E-04
  1092.5      1.25970E-04
  1097.5      1.30560E-04
  1102.5      1.30680E-04
  1107.5      1.29950E-04
  1112.5      1.28840E-04
  1117.5      1.27800E-04
  1122.5      1.26660E-04
  1127.5      1.25600E-04
  1132.5      1.24430E-04
  1137.5      1.23450E-04
  1142.5      1.22420E-04
  1147.5      1.21430E-04
  1152.5      1.20470E-04
  1157.5      1.19350E-04
  1162.5      1.17930E-04
  1167.5      1.17090E-04
  1172.5      1.16560E-04
  1177.5      1.15600E-04
  1182.5      1.14560E-04
  1187.5      1.13700E-04
  1192.5      1.12790E-04
  1197.5      1.10860E-04
  1202.5      1.11030E-04
  1207.5      1.10110E-04
  1212.5      1.09150E-04
  1217.5      1.08410E-04
  1222.5      1.07540E-04
  1227.5      1.06730E-04
  1232.5      1.05860E-04
  1237.5      1.05050E-04
  1242.5      1.04260E-04
  1247.5      1.03430E-04
  1252.5      1.02440E-04
  1257.5      1.01780E-04
  1262.5      1.01060E-04
  1267.5      1.00330E-04
  1272.5      9.95600E-05
  1277.5      9.76810E-05
  1282.5      9.25570E-05
  1287.5      9.71010E-05
  1292.5      9.66140E-05
  1297.5      9.54670E-05
  1302.5      9.51030E-05
  1307.5      9.44920E-05
  1312.5      9.37990E-05
  1317.5      9.31100E-05
  1322.5      9.24320E-05
  1327.5      9.17610E-05
  1332.5      9.10650E-05
  1337.5      9.03890E-05
  1342.5      8.97030E-05
  1347.5      8.91200E-05
  1352.5      8.84380E-05
  1357.5      8.78670E-05
  1362.5      8.71760E-05
  1367.5      8.66250E-05
  1372.5      8.59120E-05
  1377.5      8.54220E-05
  1382.5      8.48270E-05
  1387.5      8.42270E-05
  1392.5      8.35750E-05
  1397.5      8.30560E-05
