 Castelli and Kurucz 2004-2012 Atmosphere
 T     50000.     G    5.00000 [+0.5] N(He)/Ntot=0.07813 VTURB=2.0  L/H=1.25 NO
 Wavelength  Eddington Hnu
   (nm)    (ergs/s/cm2/Hz/sr)
  9.0900      5.52300E-19
  9.3500      1.53290E-18
  9.6100      3.92520E-18
  9.7700      7.08420E-18
  9.9600      1.36120E-17
  10.200      3.00770E-17
  10.380      5.33160E-17
  10.560      9.28040E-17
  10.770      1.73350E-16
  11.040      3.74520E-16
  11.400      9.91980E-16
  11.780      2.58640E-15
  12.130      6.05830E-15
  12.480      1.33300E-14
  12.710      2.21120E-14
  12.840      3.17670E-14
  13.050      4.90210E-14
  13.240      7.15940E-14
  13.390      9.65870E-14
  13.660      1.61250E-13
  13.980      2.90830E-13
  14.330      5.27280E-13
  14.720      9.40590E-13
  15.100      1.80140E-12
  15.520      3.37050E-12
  15.880      5.86090E-12
  16.200      1.41230E-11
  16.600      2.42380E-11
  17.030      3.89660E-11
  17.340      5.48120E-11
  17.680      8.40900E-11
  18.020      1.26210E-10
  18.170      1.37540E-10
  18.610      2.44740E-10
  19.100      3.90000E-10
  19.390      5.87930E-10
  19.840      9.22430E-10
  20.180      1.07890E-09
  20.500      1.59260E-09
  21.050      2.46000E-09
  21.620      3.76340E-09
  21.980      5.05330E-09
  22.300      5.98760E-09
  22.680      7.86230E-09
  23.000      2.34860E-07
  23.400      8.75470E-07
  24.000      1.33410E-06
  24.650      2.92500E-06
  25.240      1.20970E-05
  25.680      4.54130E-05
  26.000      2.97920E-05
  26.400      1.32590E-04
  26.850      1.51980E-04
  27.350      1.90120E-04
  27.850      1.21140E-04
  28.400      2.37060E-04
  29.000      3.94050E-04
  29.600      3.33500E-04
  30.100      2.88960E-04
  30.800      3.31520E-04
  31.800      6.59510E-05
  32.800      9.49760E-05
  33.800      6.88230E-05
  34.800      7.74120E-05
  35.700      2.09950E-04
  36.600      5.46620E-04
  37.500      7.73310E-04
  38.500      6.16190E-04
  39.500      1.22210E-03
  40.500      2.26300E-03
  41.400      2.17120E-03
  42.200      1.91240E-03
  43.000      1.87250E-03
  44.100      2.52470E-03
  45.100      2.61420E-03
  46.000      2.07000E-03
  47.000      2.54250E-03
  48.000      3.02940E-03
  49.000      2.48620E-03
  50.000      4.00000E-03
  50.600      3.27240E-03
  51.200      4.02930E-03
  52.000      3.87060E-03
  53.000      3.69380E-03
  54.000      2.86260E-03
  55.000      2.32290E-03
  56.000      3.25240E-03
  57.000      4.16700E-03
  58.000      4.35180E-03
  59.000      4.38220E-03
  60.000      3.71010E-03
  61.000      2.90050E-03
  62.000      4.01790E-03
  63.000      3.36440E-03
  64.000      4.43600E-03
  65.000      4.14320E-03
  65.800      3.66390E-03
  66.500      4.50480E-03
  67.500      4.58080E-03
  68.500      4.03690E-03
  69.500      4.59570E-03
  70.500      4.02210E-03
  71.600      4.46440E-03
  72.600      4.72970E-03
  73.500      4.67610E-03
  74.500      4.41820E-03
  75.500      4.33400E-03
  76.500      3.74550E-03
  77.500      4.39460E-03
  78.500      3.72600E-03
  79.500      4.31070E-03
  80.500      4.56190E-03
  81.500      4.52340E-03
  82.500      4.58650E-03
  83.500      4.12660E-03
  84.500      4.47400E-03
  85.500      4.17330E-03
  86.500      4.51600E-03
  87.500      4.56520E-03
  88.500      4.43770E-03
  89.500      4.36800E-03
  90.500      4.26750E-03
  91.500      3.13910E-03
  92.500      4.49830E-03
  93.500      5.59080E-03
  94.500      6.23990E-03
  95.500      7.34840E-03
  96.500      7.61790E-03
  97.500      6.20290E-03
  98.500      7.00660E-03
  99.500      6.10740E-03
  100.50      6.24460E-03
  101.50      6.42980E-03
  102.50      6.28580E-03
  103.50      7.08790E-03
  104.50      7.49200E-03
  105.50      7.39860E-03
  106.50      7.02920E-03
  107.50      7.48300E-03
  108.50      6.73390E-03
  109.50      7.26680E-03
  110.50      7.23930E-03
  111.50      7.29200E-03
  112.50      7.18210E-03
  113.50      7.35240E-03
  114.50      7.43640E-03
  115.50      7.16130E-03
  116.50      6.57060E-03
  117.50      6.28330E-03
  118.50      6.78350E-03
  119.50      6.29400E-03
  120.50      6.29050E-03
  121.50      5.44160E-03
  122.50      6.09060E-03
  123.50      5.77850E-03
  124.50      5.59310E-03
  125.50      6.03880E-03
  126.50      6.13310E-03
  127.50      6.17680E-03
  128.50      6.17170E-03
  129.50      6.25290E-03
  130.50      6.08910E-03
  131.50      6.02900E-03
  132.50      5.95840E-03
  133.50      5.88950E-03
  134.50      5.79930E-03
  135.50      5.62470E-03
  136.50      5.36740E-03
  137.50      5.11250E-03
  138.50      5.32940E-03
  139.50      5.24860E-03
  140.50      4.98810E-03
  141.50      5.65950E-03
  142.50      5.35270E-03
  143.50      5.60410E-03
  144.20      5.22410E-03
  144.70      5.27420E-03
  145.50      5.18980E-03
  146.50      5.17210E-03
  147.50      5.25810E-03
  148.50      5.32890E-03
  149.50      5.18910E-03
  150.50      5.09180E-03
  151.20      5.07870E-03
  151.70      4.96460E-03
  152.50      5.07280E-03
  153.50      4.78810E-03
  154.50      4.10270E-03
  155.50      4.23120E-03
  156.50      4.70910E-03
  157.50      4.83210E-03
  158.50      4.74060E-03
  159.50      4.88160E-03
  160.50      4.72700E-03
  161.50      4.66320E-03
  162.50      4.77560E-03
  163.50      4.80020E-03
  164.50      4.58840E-03
  165.50      4.75420E-03
  166.50      4.72310E-03
  167.20      4.56450E-03
  167.70      4.84690E-03
  168.50      4.82620E-03
  169.50      4.85580E-03
  170.50      4.68790E-03
  171.50      4.50940E-03
  172.50      4.49020E-03
  173.50      4.68570E-03
  174.50      4.65660E-03
  175.50      4.62490E-03
  176.50      4.54930E-03
  177.50      4.46940E-03
  178.50      4.50240E-03
  179.50      4.41150E-03
  180.50      4.38740E-03
  181.50      4.27320E-03
  182.50      4.28700E-03
  183.50      4.27540E-03
  184.50      4.30490E-03
  185.50      4.28060E-03
  186.50      4.29640E-03
  187.50      4.22610E-03
  188.50      4.18050E-03
  189.50      4.22570E-03
  190.50      4.19960E-03
  191.50      4.18240E-03
  192.50      4.01240E-03
  193.50      4.12690E-03
  194.50      4.11470E-03
  195.50      4.02290E-03
  196.70      4.03040E-03
  197.60      3.96730E-03
  198.40      4.01400E-03
  199.50      3.95970E-03
  200.50      3.95940E-03
  201.50      3.93340E-03
  202.50      3.91730E-03
  203.50      3.84420E-03
  204.50      3.80770E-03
  205.50      2.85530E-03
  206.50      2.75210E-03
  207.40      2.81990E-03
  207.80      2.88720E-03
  208.50      3.07070E-03
  209.50      3.42540E-03
  210.50      3.57940E-03
  211.50      3.63450E-03
  212.50      3.59050E-03
  213.50      3.60020E-03
  214.50      3.56220E-03
  215.50      3.56260E-03
  216.50      3.38140E-03
  217.50      3.54220E-03
  218.50      3.40770E-03
  219.50      3.51290E-03
  220.50      3.48760E-03
  221.50      3.32070E-03
  222.50      3.45330E-03
  223.50      3.42880E-03
  224.50      3.39910E-03
  225.50      3.25520E-03
  226.50      3.34780E-03
  227.50      3.35900E-03
  228.50      3.28650E-03
  229.50      3.23670E-03
  230.50      3.13730E-03
  231.50      3.19780E-03
  232.50      3.22940E-03
  233.50      3.20670E-03
  234.50      3.15670E-03
  235.50      3.10590E-03
  236.50      3.07910E-03
  237.50      3.03630E-03
  238.50      2.88360E-03
  239.50      2.98570E-03
  240.50      2.94490E-03
  241.50      2.95370E-03
  242.50      2.98340E-03
  243.50      2.94520E-03
  244.50      2.93170E-03
  245.50      2.87930E-03
  246.50      2.88300E-03
  247.50      2.90480E-03
  248.50      2.84740E-03
  249.50      2.66780E-03
  250.50      2.82290E-03
  251.30      2.61180E-03
  251.80      2.73760E-03
  252.50      2.74250E-03
  253.50      2.78160E-03
  254.50      2.78490E-03
  255.50      2.76420E-03
  256.50      2.75430E-03
  257.50      2.72380E-03
  258.50      2.70840E-03
  259.50      2.62020E-03
  260.50      2.68590E-03
  261.50      2.62040E-03
  262.50      2.65660E-03
  263.50      2.64240E-03
  264.50      2.60600E-03
  265.50      2.60440E-03
  266.50      2.59120E-03
  267.50      2.53920E-03
  268.50      2.55100E-03
  269.50      2.51860E-03
  270.50      2.53940E-03
  271.50      2.51910E-03
  272.50      2.49890E-03
  273.50      2.39960E-03
  274.50      2.47570E-03
  275.50      2.44750E-03
  276.50      2.44060E-03
  277.50      2.41780E-03
  278.50      2.37390E-03
  279.50      2.36530E-03
  280.50      2.36700E-03
  281.50      2.35150E-03
  282.50      2.32740E-03
  283.50      2.33430E-03
  284.50      2.32380E-03
  285.50      2.30370E-03
  286.50      2.24510E-03
  287.50      2.22000E-03
  288.50      2.24820E-03
  289.50      2.22870E-03
  291.00      2.22510E-03
  293.00      2.21430E-03
  295.00      2.18730E-03
  297.00      2.15770E-03
  299.00      2.12280E-03
  301.00      2.10050E-03
  303.00      2.06150E-03
  305.00      2.05040E-03
  307.00      2.00350E-03
  309.00      2.01110E-03
  311.00      1.98950E-03
  313.00      1.96730E-03
  315.00      1.95600E-03
  317.00      1.93290E-03
  319.00      1.91660E-03
  321.00      1.85380E-03
  323.00      1.88160E-03
  325.00      1.86280E-03
  327.00      1.82290E-03
  329.00      1.81830E-03
  331.00      1.79710E-03
  333.00      1.77600E-03
  335.00      1.73970E-03
  337.00      1.73430E-03
  339.00      1.71030E-03
  341.00      1.69130E-03
  343.00      1.69270E-03
  345.00      1.65950E-03
  347.00      1.65270E-03
  349.00      1.63690E-03
  351.00      1.62980E-03
  353.00      1.60650E-03
  355.00      1.59430E-03
  357.00      1.57620E-03
  359.00      1.56350E-03
  361.00      1.54740E-03
  363.00      1.52850E-03
  364.00      1.49510E-03
  365.00      1.33740E-03
  367.00      1.32660E-03
  369.00      1.31660E-03
  371.00      1.30980E-03
  373.00      1.32450E-03
  375.00      1.34370E-03
  377.00      1.36360E-03
  379.00      1.39600E-03
  381.00      1.41990E-03
  383.00      1.36220E-03
  385.00      1.41930E-03
  387.00      1.41960E-03
  389.00      1.30620E-03
  391.00      1.40380E-03
  393.00      1.38010E-03
  395.00      1.37480E-03
  397.00      1.24890E-03
  399.00      1.35520E-03
  401.00      1.34830E-03
  403.00      1.31410E-03
  405.00      1.32570E-03
  407.00      1.31320E-03
  409.00      1.26210E-03
  411.00      1.19420E-03
  413.00      1.27590E-03
  415.00      1.27060E-03
  417.00      1.26060E-03
  419.00      1.24360E-03
  421.00      1.21620E-03
  423.00      1.23240E-03
  425.00      1.22150E-03
  427.00      1.21160E-03
  429.00      1.20110E-03
  431.00      1.18530E-03
  433.00      1.13390E-03
  435.00      1.08920E-03
  437.00      1.15070E-03
  439.00      1.13800E-03
  441.00      1.12610E-03
  443.00      1.12650E-03
  445.00      1.11330E-03
  447.00      1.10710E-03
  449.00      1.10140E-03
  451.00      1.08710E-03
  453.00      1.07620E-03
  455.00      1.04610E-03
  457.00      1.06260E-03
  459.00      1.05430E-03
  461.00      1.04930E-03
  463.00      1.03260E-03
  465.00      1.00790E-03
  467.00      1.01950E-03
  469.00      9.77770E-04
  471.00      1.01020E-03
  473.00      1.00500E-03
  475.00      9.98070E-04
  477.00      9.90120E-04
  479.00      9.77610E-04
  481.00      9.74290E-04
  483.00      9.65190E-04
  485.00      9.35840E-04
  487.00      8.81770E-04
  489.00      9.42050E-04
  491.00      9.37200E-04
  493.00      9.31060E-04
  495.00      9.25200E-04
  497.00      9.18250E-04
  499.00      9.12440E-04
  501.00      9.02650E-04
  503.00      8.97880E-04
  505.00      8.90210E-04
  507.00      8.84830E-04
  509.00      8.79320E-04
  511.00      8.71380E-04
  513.00      8.63990E-04
  515.00      8.59270E-04
  517.00      8.55040E-04
  519.00      8.48730E-04
  521.00      8.41100E-04
  523.00      8.36850E-04
  525.00      8.29090E-04
  527.00      8.23200E-04
  529.00      8.19390E-04
  531.00      8.13540E-04
  533.00      8.07670E-04
  535.00      8.02690E-04
  537.00      7.96690E-04
  539.00      7.91300E-04
  541.00      7.66240E-04
  543.00      7.80400E-04
  545.00      7.75510E-04
  547.00      7.69570E-04
  549.00      7.64950E-04
  551.00      7.58660E-04
  553.00      7.54780E-04
  555.00      7.49850E-04
  557.00      7.43240E-04
  559.00      7.36410E-04
  561.00      7.34910E-04
  563.00      7.29990E-04
  565.00      7.25020E-04
  567.00      7.20170E-04
  569.00      7.02850E-04
  571.00      6.53960E-04
  573.00      6.49990E-04
  575.00      6.45700E-04
  577.00      6.42490E-04
  579.00      6.38950E-04
  581.00      6.28760E-04
  583.00      6.33450E-04
  585.00      6.32540E-04
  587.00      6.29620E-04
  589.00      6.31540E-04
  591.00      6.31750E-04
  593.00      6.32470E-04
  595.00      6.34130E-04
  597.00      6.35850E-04
  599.00      6.38100E-04
  601.00      6.37970E-04
  603.00      6.38380E-04
  605.00      6.36500E-04
  607.00      6.33060E-04
  609.00      6.30080E-04
  611.00      6.26060E-04
  613.00      6.22570E-04
  615.00      6.19580E-04
  617.00      6.14290E-04
  619.00      6.12730E-04
  621.00      6.09170E-04
  623.00      6.02820E-04
  625.00      6.01170E-04
  627.00      5.98420E-04
  629.00      5.94940E-04
  631.00      5.87490E-04
  633.00      5.87510E-04
  635.00      5.84520E-04
  637.00      5.81270E-04
  639.00      5.76380E-04
  641.00      5.69170E-04
  643.00      5.70840E-04
  645.00      5.67310E-04
  647.00      5.63900E-04
  649.00      5.61120E-04
  651.00      5.56620E-04
  653.00      5.47250E-04
  655.00      5.42430E-04
  657.00      5.05140E-04
  659.00      5.43210E-04
  661.00      5.42220E-04
  663.00      5.39170E-04
  665.00      5.36090E-04
  667.00      5.30200E-04
  669.00      5.21400E-04
  671.00      5.25860E-04
  673.00      5.23740E-04
  675.00      5.20770E-04
  677.00      5.18100E-04
  679.00      5.15450E-04
  681.00      5.12540E-04
  683.00      5.09740E-04
  685.00      5.06830E-04
  687.00      5.03770E-04
  689.00      4.91970E-04
  691.00      4.97850E-04
  693.00      4.95950E-04
  695.00      4.93210E-04
  697.00      4.90550E-04
  699.00      4.87820E-04
  701.00      4.84850E-04
  703.00      4.81490E-04
  705.00      4.79100E-04
  707.00      4.76510E-04
  709.00      4.74900E-04
  711.00      4.71200E-04
  713.00      4.68780E-04
  715.00      4.67280E-04
  717.00      4.57960E-04
  719.00      4.58180E-04
  721.00      4.59420E-04
  723.00      4.57610E-04
  725.00      4.55290E-04
  727.00      4.52920E-04
  729.00      4.50420E-04
  731.00      4.47580E-04
  733.00      4.45840E-04
  735.00      4.43640E-04
  737.00      4.41030E-04
  739.00      4.38010E-04
  741.00      4.36490E-04
  743.00      4.34590E-04
  745.00      4.31670E-04
  747.00      4.29970E-04
  749.00      4.26970E-04
  751.00      4.25470E-04
  753.00      4.23530E-04
  755.00      4.21340E-04
  757.00      4.18950E-04
  759.00      4.07520E-04
  761.00      4.13860E-04
  763.00      4.12880E-04
  765.00      4.10890E-04
  767.00      4.08470E-04
  769.00      4.05910E-04
  771.00      4.03880E-04
  773.00      4.01690E-04
  775.00      4.00410E-04
  777.00      3.99080E-04
  779.00      3.96760E-04
  781.00      3.95180E-04
  783.00      3.93190E-04
  785.00      3.89990E-04
  787.00      3.89030E-04
  789.00      3.87430E-04
  791.00      3.85750E-04
  793.00      3.83950E-04
  795.00      3.81810E-04
  797.00      3.79590E-04
  799.00      3.78440E-04
  801.00      3.76630E-04
  803.00      3.74440E-04
  805.00      3.73070E-04
  807.00      3.71330E-04
  809.00      3.69580E-04
  811.00      3.67850E-04
  813.00      3.66120E-04
  815.00      3.64410E-04
  817.00      3.62150E-04
  819.00      3.58950E-04
  821.00      3.39960E-04
  823.00      3.35510E-04
  825.00      3.36200E-04
  827.00      3.35460E-04
  829.00      3.34070E-04
  831.00      3.32660E-04
  833.00      3.30600E-04
  835.00      3.29550E-04
  837.00      3.28350E-04
  839.00      3.27030E-04
  841.00      3.25890E-04
  843.00      3.24670E-04
  845.00      3.23460E-04
  847.00      3.22450E-04
  849.00      3.21550E-04
  851.00      3.20280E-04
  853.00      3.19770E-04
  855.00      3.18650E-04
  857.00      3.18010E-04
  859.00      3.17090E-04
  861.00      3.16330E-04
  863.00      3.16310E-04
  865.00      3.15270E-04
  867.00      3.12800E-04
  869.00      3.14480E-04
  871.00      3.14330E-04
  873.00      3.13270E-04
  875.00      3.08810E-04
  877.00      3.11450E-04
  879.00      3.12560E-04
  881.00      3.12430E-04
  883.00      3.11540E-04
  885.00      3.06910E-04
  887.00      3.00980E-04
  889.00      3.07430E-04
  891.00      3.08020E-04
  893.00      3.07080E-04
  895.00      3.06090E-04
  897.00      3.04780E-04
  899.00      3.01720E-04
  901.00      2.90320E-04
  903.00      2.93670E-04
  905.00      2.98820E-04
  907.00      2.98630E-04
  909.00      2.97670E-04
  911.00      2.96100E-04
  913.00      2.95450E-04
  915.00      2.94520E-04
  917.00      2.92650E-04
  919.00      2.90760E-04
  921.00      2.86220E-04
  923.00      2.71430E-04
  925.00      2.82770E-04
  927.00      2.85790E-04
  929.00      2.85490E-04
  931.00      2.84670E-04
  933.00      2.82850E-04
  935.00      2.73770E-04
  937.00      2.79570E-04
  939.00      2.79710E-04
  941.00      2.78700E-04
  943.00      2.77730E-04
  945.00      2.76600E-04
  947.00      2.75550E-04
  949.00      2.73890E-04
  951.00      2.71930E-04
  953.00      2.66400E-04
  955.00      2.51360E-04
  957.00      2.65700E-04
  959.00      2.67920E-04
  961.00      2.67710E-04
  963.00      2.66660E-04
  965.00      2.65790E-04
  967.00      2.64760E-04
  969.00      2.63700E-04
  971.00      2.61150E-04
  973.00      2.61330E-04
  975.00      2.59910E-04
  977.00      2.57460E-04
  979.00      2.58410E-04
  981.00      2.57480E-04
  983.00      2.56270E-04
  985.00      2.55480E-04
  987.00      2.54480E-04
  989.00      2.53480E-04
  991.00      2.52410E-04
  993.00      2.51510E-04
  995.00      2.50530E-04
  997.00      2.49550E-04
  999.00      2.48380E-04
  1002.5      2.41680E-04
  1007.5      2.36880E-04
  1012.5      2.36800E-04
  1017.5      2.39860E-04
  1022.5      2.37590E-04
  1027.5      2.35190E-04
  1032.5      2.32980E-04
  1037.5      2.30970E-04
  1042.5      2.27190E-04
  1047.5      2.26750E-04
  1052.5      2.24640E-04
  1057.5      2.22590E-04
  1062.5      2.20570E-04
  1067.5      2.18570E-04
  1072.5      2.16590E-04
  1077.5      2.14640E-04
  1082.5      2.12410E-04
  1087.5      2.10520E-04
  1092.5      1.99660E-04
  1097.5      2.04640E-04
  1102.5      2.05240E-04
  1107.5      2.03480E-04
  1112.5      2.01700E-04
  1117.5      2.00100E-04
  1122.5      1.98330E-04
  1127.5      1.96590E-04
  1132.5      1.94880E-04
  1137.5      1.93280E-04
  1142.5      1.91640E-04
  1147.5      1.90020E-04
  1152.5      1.88420E-04
  1157.5      1.86710E-04
  1162.5      1.82340E-04
  1167.5      1.81550E-04
  1172.5      1.82130E-04
  1177.5      1.80690E-04
  1182.5      1.79040E-04
  1187.5      1.77700E-04
  1192.5      1.76250E-04
  1197.5      1.74630E-04
  1202.5      1.73430E-04
  1207.5      1.71970E-04
  1212.5      1.70540E-04
  1217.5      1.69260E-04
  1222.5      1.67900E-04
  1227.5      1.66580E-04
  1232.5      1.65250E-04
  1237.5      1.63960E-04
  1242.5      1.62670E-04
  1247.5      1.61400E-04
  1252.5      1.60130E-04
  1257.5      1.58880E-04
  1262.5      1.57660E-04
  1267.5      1.56450E-04
  1272.5      1.55230E-04
  1277.5      1.53170E-04
  1282.5      1.45060E-04
  1287.5      1.51230E-04
  1292.5      1.50570E-04
  1297.5      1.49420E-04
  1302.5      1.48310E-04
  1307.5      1.47200E-04
  1312.5      1.46100E-04
  1317.5      1.45010E-04
  1322.5      1.43950E-04
  1327.5      1.42890E-04
  1332.5      1.41840E-04
  1337.5      1.40790E-04
  1342.5      1.39760E-04
  1347.5      1.38750E-04
  1352.5      1.37750E-04
  1357.5      1.36750E-04
  1362.5      1.35770E-04
  1367.5      1.34790E-04
  1372.5      1.33820E-04
  1377.5      1.32880E-04
  1382.5      1.31940E-04
  1387.5      1.31000E-04
  1392.5      1.30080E-04
  1397.5      1.29170E-04
