 Castelli and Kurucz 2004-2012 Atmosphere
 T     35000.     G    4.50000 [+0.5] N(He)/Ntot=0.07813 VTURB=2.0  L/H=1.25 NO
 Wavelength  Eddington Hnu
   (nm)    (ergs/s/cm2/Hz/sr)
  9.0900      9.75090E-30
  9.3500      4.75660E-29
  9.6100      2.13180E-28
  9.7700      5.22530E-28
  9.9600      1.45480E-27
  10.200      5.04570E-27
  10.380      1.24090E-26
  10.560      2.96760E-26
  10.770      7.93860E-26
  11.040      2.67690E-25
  11.400      1.24800E-24
  11.780      5.78800E-24
  12.130      2.20280E-23
  12.480      7.82370E-23
  12.710      1.73820E-22
  12.840      2.69730E-22
  13.050      5.38560E-22
  13.240      9.91330E-22
  13.390      1.58640E-21
  13.660      3.60660E-21
  13.980      9.21240E-21
  14.330      2.45130E-20
  14.720      6.88860E-20
  15.100      1.81830E-19
  15.520      5.00600E-19
  15.880      1.14500E-18
  16.200      2.31220E-18
  16.600      5.40280E-18
  17.030      1.27790E-17
  17.340      2.33420E-17
  17.680      4.43880E-17
  18.020      8.15990E-17
  18.170      1.07370E-16
  18.610      2.25970E-16
  19.100      4.98830E-16
  19.390      7.81770E-16
  19.840      1.54020E-15
  20.180      2.50020E-15
  20.500      3.89270E-15
  21.050      8.09710E-15
  21.620      1.64310E-14
  21.980      2.56810E-14
  22.300      3.73770E-14
  22.680      5.99320E-14
  23.000      1.49350E-11
  23.400      3.17000E-11
  24.000      4.91780E-11
  24.650      8.01940E-11
  25.240      1.32350E-10
  25.680      1.93800E-10
  26.000      3.37500E-10
  26.400      7.11210E-10
  26.850      1.10690E-09
  27.350      1.47470E-09
  27.850      1.71970E-09
  28.400      3.54230E-09
  29.000      5.07540E-09
  29.600      6.48570E-09
  30.100      1.70100E-08
  30.800      3.71210E-08
  31.800      8.32430E-08
  32.800      1.20700E-07
  33.800      2.38460E-07
  34.800      3.78200E-07
  35.700      8.19800E-07
  36.600      2.00390E-06
  37.500      2.33500E-06
  38.500      3.24990E-06
  39.500      7.33560E-06
  40.500      1.05100E-05
  41.400      1.17470E-05
  42.200      1.40820E-05
  43.000      1.45890E-05
  44.100      1.83400E-05
  45.100      1.94150E-05
  46.000      1.79500E-05
  47.000      2.16750E-05
  48.000      2.67030E-05
  49.000      2.41890E-05
  50.000      3.17720E-05
  50.600      3.49140E-05
  51.200      1.83080E-04
  52.000      1.76980E-04
  53.000      1.63140E-04
  54.000      1.50210E-04
  55.000      1.65320E-04
  56.000      2.41540E-04
  57.000      2.87600E-04
  58.000      2.77760E-04
  59.000      2.94510E-04
  60.000      2.09250E-04
  61.000      2.69780E-04
  62.000      3.62810E-04
  63.000      3.53530E-04
  64.000      3.78750E-04
  65.000      3.65100E-04
  65.800      2.77310E-04
  66.500      3.73570E-04
  67.500      4.53620E-04
  68.500      3.30590E-04
  69.500      4.79830E-04
  70.500      3.50630E-04
  71.600      5.45420E-04
  72.600      5.46660E-04
  73.500      5.58580E-04
  74.500      5.09190E-04
  75.500      5.24980E-04
  76.500      5.21170E-04
  77.500      5.73600E-04
  78.500      5.73820E-04
  79.500      6.21170E-04
  80.500      5.94300E-04
  81.500      6.01050E-04
  82.500      6.55050E-04
  83.500      5.05310E-04
  84.500      6.37960E-04
  85.500      6.34080E-04
  86.500      6.74950E-04
  87.500      6.88710E-04
  88.500      7.08340E-04
  89.500      7.20140E-04
  90.500      7.04870E-04
  91.500      6.67610E-04
  92.500      1.42140E-03
  93.500      2.18660E-03
  94.500      2.68370E-03
  95.500      2.96770E-03
  96.500      3.36100E-03
  97.500      1.59220E-03
  98.500      2.75870E-03
  99.500      2.48060E-03
  100.50      2.59820E-03
  101.50      2.84610E-03
  102.50      2.46520E-03
  103.50      2.94590E-03
  104.50      3.39410E-03
  105.50      3.25380E-03
  106.50      2.88130E-03
  107.50      3.01500E-03
  108.50      2.79690E-03
  109.50      3.00920E-03
  110.50      2.92800E-03
  111.50      2.94130E-03
  112.50      2.47150E-03
  113.50      2.89490E-03
  114.50      2.90700E-03
  115.50      2.73150E-03
  116.50      2.65260E-03
  117.50      1.81520E-03
  118.50      2.49870E-03
  119.50      2.44520E-03
  120.50      2.40680E-03
  121.50      2.01580E-03
  122.50      2.37380E-03
  123.50      2.56480E-03
  124.50      2.50460E-03
  125.50      2.52910E-03
  126.50      2.65610E-03
  127.50      2.81290E-03
  128.50      2.85730E-03
  129.50      2.74050E-03
  130.50      2.73520E-03
  131.50      2.93080E-03
  132.50      2.88260E-03
  133.50      2.82460E-03
  134.50      2.86110E-03
  135.50      2.80530E-03
  136.50      2.75050E-03
  137.50      2.67640E-03
  138.50      2.63180E-03
  139.50      2.19990E-03
  140.50      2.22520E-03
  141.50      2.65540E-03
  142.50      2.37760E-03
  143.50      2.60180E-03
  144.20      2.54160E-03
  144.70      2.55670E-03
  145.50      2.44730E-03
  146.50      2.42170E-03
  147.50      2.48880E-03
  148.50      2.53010E-03
  149.50      2.46750E-03
  150.50      2.42880E-03
  151.20      2.41130E-03
  151.70      2.44680E-03
  152.50      2.36680E-03
  153.50      2.07300E-03
  154.50      1.66790E-03
  155.50      1.72730E-03
  156.50      2.04210E-03
  157.50      2.17410E-03
  158.50      2.21400E-03
  159.50      2.24040E-03
  160.50      2.13920E-03
  161.50      2.05460E-03
  162.50      2.14610E-03
  163.50      2.18770E-03
  164.50      2.21280E-03
  165.50      2.22700E-03
  166.50      2.21690E-03
  167.20      2.03730E-03
  167.70      2.44860E-03
  168.50      2.33860E-03
  169.50      2.28600E-03
  170.50      2.28660E-03
  171.50      2.17540E-03
  172.50      2.11830E-03
  173.50      2.22300E-03
  174.50      2.23320E-03
  175.50      2.21970E-03
  176.50      2.20970E-03
  177.50      2.13960E-03
  178.50      2.20870E-03
  179.50      2.16730E-03
  180.50      2.17210E-03
  181.50      2.14090E-03
  182.50      2.11340E-03
  183.50      2.13700E-03
  184.50      2.07860E-03
  185.50      2.13610E-03
  186.50      2.15410E-03
  187.50      2.10990E-03
  188.50      2.03620E-03
  189.50      2.04060E-03
  190.50      2.09670E-03
  191.50      2.06540E-03
  192.50      1.94400E-03
  193.50      2.09180E-03
  194.50      2.12330E-03
  195.50      1.93860E-03
  196.70      2.06030E-03
  197.60      2.10670E-03
  198.40      2.06980E-03
  199.50      2.03350E-03
  200.50      2.09170E-03
  201.50      2.09630E-03
  202.50      2.10780E-03
  203.50      2.04220E-03
  204.50      2.02970E-03
  205.50      1.59840E-03
  206.50      1.54920E-03
  207.40      1.62530E-03
  207.80      1.62400E-03
  208.50      1.74270E-03
  209.50      1.88240E-03
  210.50      1.96380E-03
  211.50      2.00590E-03
  212.50      1.97770E-03
  213.50      1.98270E-03
  214.50      1.96370E-03
  215.50      1.98060E-03
  216.50      1.89300E-03
  217.50      1.96960E-03
  218.50      1.91130E-03
  219.50      1.97960E-03
  220.50      1.96440E-03
  221.50      1.88960E-03
  222.50      1.93400E-03
  223.50      1.92070E-03
  224.50      1.89830E-03
  225.50      1.84800E-03
  226.50      1.88660E-03
  227.50      1.88950E-03
  228.50      1.84410E-03
  229.50      1.67120E-03
  230.50      1.78110E-03
  231.50      1.79590E-03
  232.50      1.81380E-03
  233.50      1.79950E-03
  234.50      1.78180E-03
  235.50      1.74850E-03
  236.50      1.73000E-03
  237.50      1.69780E-03
  238.50      1.62980E-03
  239.50      1.66760E-03
  240.50      1.68070E-03
  241.50      1.68100E-03
  242.50      1.69060E-03
  243.50      1.67280E-03
  244.50      1.66750E-03
  245.50      1.65630E-03
  246.50      1.64840E-03
  247.50      1.64340E-03
  248.50      1.59220E-03
  249.50      1.19390E-03
  250.50      1.54190E-03
  251.30      1.49970E-03
  251.80      1.53910E-03
  252.50      1.58470E-03
  253.50      1.59130E-03
  254.50      1.57370E-03
  255.50      1.56490E-03
  256.50      1.55730E-03
  257.50      1.54980E-03
  258.50      1.54350E-03
  259.50      1.51980E-03
  260.50      1.53150E-03
  261.50      1.50520E-03
  262.50      1.51320E-03
  263.50      1.51200E-03
  264.50      1.49250E-03
  265.50      1.49090E-03
  266.50      1.46780E-03
  267.50      1.43390E-03
  268.50      1.45980E-03
  269.50      1.43690E-03
  270.50      1.43990E-03
  271.50      1.42650E-03
  272.50      1.42620E-03
  273.50      1.39280E-03
  274.50      1.41960E-03
  275.50      1.40950E-03
  276.50      1.39760E-03
  277.50      1.40260E-03
  278.50      1.38310E-03
  279.50      1.34580E-03
  280.50      1.36640E-03
  281.50      1.37000E-03
  282.50      1.36160E-03
  283.50      1.34470E-03
  284.50      1.35150E-03
  285.50      1.34040E-03
  286.50      1.32210E-03
  287.50      1.31930E-03
  288.50      1.31590E-03
  289.50      1.30870E-03
  291.00      1.28950E-03
  293.00      1.29080E-03
  295.00      1.27180E-03
  297.00      1.25710E-03
  299.00      1.23250E-03
  301.00      1.21230E-03
  303.00      1.19500E-03
  305.00      1.19720E-03
  307.00      1.18970E-03
  309.00      1.17360E-03
  311.00      1.17420E-03
  313.00      1.15690E-03
  315.00      1.15290E-03
  317.00      1.13730E-03
  319.00      1.13070E-03
  321.00      1.10610E-03
  323.00      1.10530E-03
  325.00      1.10160E-03
  327.00      1.07760E-03
  329.00      1.07550E-03
  331.00      1.06260E-03
  333.00      1.05030E-03
  335.00      1.03200E-03
  337.00      1.02670E-03
  339.00      1.02680E-03
  341.00      1.01570E-03
  343.00      1.01110E-03
  345.00      9.92880E-04
  347.00      9.90000E-04
  349.00      9.82000E-04
  351.00      9.74200E-04
  353.00      9.66060E-04
  355.00      9.56310E-04
  357.00      9.48880E-04
  359.00      9.37350E-04
  361.00      9.25890E-04
  363.00      9.19990E-04
  364.00      9.09980E-04
  365.00      8.53690E-04
  367.00      8.48520E-04
  369.00      8.41420E-04
  371.00      8.24310E-04
  373.00      8.26830E-04
  375.00      8.34920E-04
  377.00      8.31380E-04
  379.00      8.63750E-04
  381.00      8.86050E-04
  383.00      8.21500E-04
  385.00      8.95800E-04
  387.00      8.78350E-04
  389.00      7.93400E-04
  391.00      8.95230E-04
  393.00      8.75310E-04
  395.00      8.62170E-04
  397.00      7.59870E-04
  399.00      8.61380E-04
  401.00      8.54390E-04
  403.00      8.30610E-04
  405.00      8.42900E-04
  407.00      8.17990E-04
  409.00      7.81640E-04
  411.00      7.32180E-04
  413.00      8.01530E-04
  415.00      7.99030E-04
  417.00      8.02540E-04
  419.00      7.94440E-04
  421.00      7.83300E-04
  423.00      7.86730E-04
  425.00      7.72350E-04
  427.00      7.63700E-04
  429.00      7.57060E-04
  431.00      7.42640E-04
  433.00      7.08480E-04
  435.00      6.71570E-04
  437.00      7.29150E-04
  439.00      7.19940E-04
  441.00      7.16660E-04
  443.00      7.19740E-04
  445.00      7.12300E-04
  447.00      6.98080E-04
  449.00      7.04280E-04
  451.00      6.90030E-04
  453.00      6.89230E-04
  455.00      6.77080E-04
  457.00      6.83500E-04
  459.00      6.74980E-04
  461.00      6.70170E-04
  463.00      6.59790E-04
  465.00      6.28870E-04
  467.00      6.51650E-04
  469.00      6.40900E-04
  471.00      6.43030E-04
  473.00      6.51100E-04
  475.00      6.45900E-04
  477.00      6.43750E-04
  479.00      6.38660E-04
  481.00      6.32510E-04
  483.00      6.25500E-04
  485.00      6.01760E-04
  487.00      5.54990E-04
  489.00      6.10790E-04
  491.00      6.07720E-04
  493.00      5.97680E-04
  495.00      5.98340E-04
  497.00      5.98640E-04
  499.00      5.94420E-04
  501.00      5.79390E-04
  503.00      5.82380E-04
  505.00      5.78340E-04
  507.00      5.77720E-04
  509.00      5.73350E-04
  511.00      5.68970E-04
  513.00      5.64050E-04
  515.00      5.60320E-04
  517.00      5.56410E-04
  519.00      5.53340E-04
  521.00      5.49990E-04
  523.00      5.46470E-04
  525.00      5.39920E-04
  527.00      5.36200E-04
  529.00      5.35460E-04
  531.00      5.31560E-04
  533.00      5.28070E-04
  535.00      5.24790E-04
  537.00      5.21160E-04
  539.00      5.17360E-04
  541.00      5.06700E-04
  543.00      5.11020E-04
  545.00      5.07640E-04
  547.00      5.03990E-04
  549.00      5.00780E-04
  551.00      4.97140E-04
  553.00      4.94160E-04
  555.00      4.91470E-04
  557.00      4.87710E-04
  559.00      4.83110E-04
  561.00      4.82130E-04
  563.00      4.78970E-04
  565.00      4.75660E-04
  567.00      4.71740E-04
  569.00      4.60700E-04
  571.00      4.48040E-04
  573.00      4.45710E-04
  575.00      4.42330E-04
  577.00      4.40840E-04
  579.00      4.38010E-04
  581.00      4.33570E-04
  583.00      4.31670E-04
  585.00      4.31860E-04
  587.00      4.22600E-04
  589.00      4.27940E-04
  591.00      4.27440E-04
  593.00      4.26230E-04
  595.00      4.25430E-04
  597.00      4.25720E-04
  599.00      4.24260E-04
  601.00      4.23540E-04
  603.00      4.20900E-04
  605.00      4.19340E-04
  607.00      4.17320E-04
  609.00      4.15160E-04
  611.00      4.12120E-04
  613.00      4.09920E-04
  615.00      4.06570E-04
  617.00      4.04210E-04
  619.00      4.03080E-04
  621.00      4.01020E-04
  623.00      3.97980E-04
  625.00      3.95720E-04
  627.00      3.93870E-04
  629.00      3.91710E-04
  631.00      3.88070E-04
  633.00      3.87220E-04
  635.00      3.84580E-04
  637.00      3.82950E-04
  639.00      3.80630E-04
  641.00      3.77360E-04
  643.00      3.76450E-04
  645.00      3.73680E-04
  647.00      3.70840E-04
  649.00      3.69090E-04
  651.00      3.66360E-04
  653.00      3.62960E-04
  655.00      3.55860E-04
  657.00      3.24510E-04
  659.00      3.56940E-04
  661.00      3.57220E-04
  663.00      3.55720E-04
  665.00      3.53600E-04
  667.00      3.47950E-04
  669.00      3.45050E-04
  671.00      3.46820E-04
  673.00      3.44330E-04
  675.00      3.43100E-04
  677.00      3.42090E-04
  679.00      3.39710E-04
  681.00      3.38610E-04
  683.00      3.36770E-04
  685.00      3.34860E-04
  687.00      3.32710E-04
  689.00      3.28690E-04
  691.00      3.28600E-04
  693.00      3.28030E-04
  695.00      3.26210E-04
  697.00      3.24540E-04
  699.00      3.22740E-04
  701.00      3.20550E-04
  703.00      3.18140E-04
  705.00      3.17030E-04
  707.00      3.11940E-04
  709.00      3.14400E-04
  711.00      3.12170E-04
  713.00      3.10720E-04
  715.00      3.09570E-04
  717.00      3.06450E-04
  719.00      3.05540E-04
  721.00      3.04810E-04
  723.00      3.01310E-04
  725.00      3.01310E-04
  727.00      3.00130E-04
  729.00      2.96890E-04
  731.00      2.96780E-04
  733.00      2.95490E-04
  735.00      2.94050E-04
  737.00      2.92490E-04
  739.00      2.91130E-04
  741.00      2.89560E-04
  743.00      2.88230E-04
  745.00      2.86440E-04
  747.00      2.84710E-04
  749.00      2.82350E-04
  751.00      2.82290E-04
  753.00      2.80840E-04
  755.00      2.79620E-04
  757.00      2.78060E-04
  759.00      2.74210E-04
  761.00      2.74770E-04
  763.00      2.73850E-04
  765.00      2.72640E-04
  767.00      2.71510E-04
  769.00      2.69200E-04
  771.00      2.68340E-04
  773.00      2.66380E-04
  775.00      2.66030E-04
  777.00      2.65080E-04
  779.00      2.63690E-04
  781.00      2.62510E-04
  783.00      2.61290E-04
  785.00      2.59450E-04
  787.00      2.58260E-04
  789.00      2.57130E-04
  791.00      2.56260E-04
  793.00      2.55070E-04
  795.00      2.54110E-04
  797.00      2.52630E-04
  799.00      2.51620E-04
  801.00      2.50450E-04
  803.00      2.48970E-04
  805.00      2.48190E-04
  807.00      2.47020E-04
  809.00      2.45790E-04
  811.00      2.43860E-04
  813.00      2.43630E-04
  815.00      2.42330E-04
  817.00      2.41260E-04
  819.00      2.39180E-04
  821.00      2.34180E-04
  823.00      2.31930E-04
  825.00      2.32110E-04
  827.00      2.30370E-04
  829.00      2.30260E-04
  831.00      2.29570E-04
  833.00      2.27740E-04
  835.00      2.26150E-04
  837.00      2.26050E-04
  839.00      2.25660E-04
  841.00      2.24550E-04
  843.00      2.23740E-04
  845.00      2.22150E-04
  847.00      2.21910E-04
  849.00      2.20850E-04
  851.00      2.18840E-04
  853.00      2.19160E-04
  855.00      2.17810E-04
  857.00      2.18100E-04
  859.00      2.14990E-04
  861.00      2.15030E-04
  863.00      2.16580E-04
  865.00      2.13950E-04
  867.00      2.09170E-04
  869.00      2.14220E-04
  871.00      2.14520E-04
  873.00      2.11650E-04
  875.00      2.02420E-04
  877.00      2.08700E-04
  879.00      2.12130E-04
  881.00      2.12060E-04
  883.00      2.10380E-04
  885.00      2.03020E-04
  887.00      1.94520E-04
  889.00      2.06730E-04
  891.00      2.07980E-04
  893.00      2.07310E-04
  895.00      2.06460E-04
  897.00      2.05600E-04
  899.00      2.02150E-04
  901.00      1.87560E-04
  903.00      1.93630E-04
  905.00      2.01300E-04
  907.00      2.00320E-04
  909.00      2.00540E-04
  911.00      2.00370E-04
  913.00      1.99680E-04
  915.00      1.98980E-04
  917.00      1.97460E-04
  919.00      1.96180E-04
  921.00      1.90470E-04
  923.00      1.74470E-04
  925.00      1.88660E-04
  927.00      1.92770E-04
  929.00      1.92690E-04
  931.00      1.91790E-04
  933.00      1.91260E-04
  935.00      1.88370E-04
  937.00      1.89490E-04
  939.00      1.89210E-04
  941.00      1.88030E-04
  943.00      1.87480E-04
  945.00      1.86800E-04
  947.00      1.85550E-04
  949.00      1.84940E-04
  951.00      1.82490E-04
  953.00      1.77100E-04
  955.00      1.62510E-04
  957.00      1.78170E-04
  959.00      1.80930E-04
  961.00      1.80400E-04
  963.00      1.79410E-04
  965.00      1.79680E-04
  967.00      1.79120E-04
  969.00      1.78320E-04
  971.00      1.72930E-04
  973.00      1.76150E-04
  975.00      1.76250E-04
  977.00      1.75310E-04
  979.00      1.74890E-04
  981.00      1.74170E-04
  983.00      1.73480E-04
  985.00      1.72790E-04
  987.00      1.72110E-04
  989.00      1.71180E-04
  991.00      1.70130E-04
  993.00      1.70220E-04
  995.00      1.69590E-04
  997.00      1.68790E-04
  999.00      1.68020E-04
  1002.5      1.61510E-04
  1007.5      1.57990E-04
  1012.5      1.61590E-04
  1017.5      1.62500E-04
  1022.5      1.60860E-04
  1027.5      1.59350E-04
  1032.5      1.57450E-04
  1037.5      1.56540E-04
  1042.5      1.54900E-04
  1047.5      1.53700E-04
  1052.5      1.52240E-04
  1057.5      1.50910E-04
  1062.5      1.49530E-04
  1067.5      1.48070E-04
  1072.5      1.46890E-04
  1077.5      1.45560E-04
  1082.5      1.43050E-04
  1087.5      1.42630E-04
  1092.5      1.32590E-04
  1097.5      1.37910E-04
  1102.5      1.38730E-04
  1107.5      1.38020E-04
  1112.5      1.36860E-04
  1117.5      1.35740E-04
  1122.5      1.34520E-04
  1127.5      1.33390E-04
  1132.5      1.32160E-04
  1137.5      1.31090E-04
  1142.5      1.30000E-04
  1147.5      1.28930E-04
  1152.5      1.27900E-04
  1157.5      1.26730E-04
  1162.5      1.25060E-04
  1167.5      1.24260E-04
  1172.5      1.23730E-04
  1177.5      1.22700E-04
  1182.5      1.21580E-04
  1187.5      1.20670E-04
  1192.5      1.19700E-04
  1197.5      1.17530E-04
  1202.5      1.17830E-04
  1207.5      1.16840E-04
  1212.5      1.15820E-04
  1217.5      1.15030E-04
  1222.5      1.14110E-04
  1227.5      1.13230E-04
  1232.5      1.12310E-04
  1237.5      1.11450E-04
  1242.5      1.10600E-04
  1247.5      1.09720E-04
  1252.5      1.08670E-04
  1257.5      1.07960E-04
  1262.5      1.07190E-04
  1267.5      1.06410E-04
  1272.5      1.05580E-04
  1277.5      1.03300E-04
  1282.5      9.71230E-05
  1287.5      1.02700E-04
  1292.5      1.02450E-04
  1297.5      1.01200E-04
  1302.5      1.00850E-04
  1307.5      1.00190E-04
  1312.5      9.94510E-05
  1317.5      9.87180E-05
  1322.5      9.79960E-05
  1327.5      9.72800E-05
  1332.5      9.65440E-05
  1337.5      9.58260E-05
  1342.5      9.50960E-05
  1347.5      9.44700E-05
  1352.5      9.37520E-05
  1357.5      9.31360E-05
  1362.5      9.24030E-05
  1367.5      9.18140E-05
  1372.5      9.10640E-05
  1377.5      9.05330E-05
  1382.5      8.98970E-05
  1387.5      8.92590E-05
  1392.5      8.85750E-05
  1397.5      8.80150E-05
