 TLUSTY Ostars, Lanz & Hubeny 2003
 T 32500. G 3.25000 Abundance M03
 Frequency   Eddington Hnu
   (Hz)    (ergs/s/cm2/Hz/sr)
 6.67944E+16  1.44023E-55
 6.67573E+16  1.50723E-55
 6.67202E+16  1.60151E-55
 6.66831E+16  1.70168E-55
 6.66461E+16  1.80812E-55
 6.66091E+16  1.92122E-55
 6.65721E+16  2.04140E-55
 6.65351E+16  2.16909E-55
 6.64982E+16  2.30476E-55
 6.64612E+16  2.44893E-55
 6.64243E+16  2.60211E-55
 6.63874E+16  2.76487E-55
 6.63506E+16  2.93782E-55
 6.63137E+16  3.12158E-55
 6.62769E+16  3.31684E-55
 6.62401E+16  3.52431E-55
 6.62033E+16  3.74476E-55
 6.61665E+16  3.97899E-55
 6.61298E+16  4.22788E-55
 6.60930E+16  4.49234E-55
 6.60563E+16  4.77334E-55
 6.60196E+16  5.07191E-55
 6.59830E+16  5.38916E-55
 6.59463E+16  5.72626E-55
 6.59097E+16  6.08444E-55
 6.58731E+16  6.46503E-55
 6.58365E+16  6.86942E-55
 6.57999E+16  7.29910E-55
 6.57634E+16  7.75567E-55
 6.57269E+16  8.24079E-55
 6.56904E+16  8.75626E-55
 6.56539E+16  9.30397E-55
 6.56174E+16  9.88593E-55
 6.55810E+16  1.05043E-54
 6.55445E+16  1.11614E-54
 6.55081E+16  1.18595E-54
 6.54718E+16  1.26013E-54
 6.54354E+16  1.33895E-54
 6.53991E+16  1.42271E-54
 6.53627E+16  1.51170E-54
 6.53264E+16  1.60626E-54
 6.52901E+16  1.70673E-54
 6.52539E+16  1.81349E-54
 6.52176E+16  1.92692E-54
 6.51814E+16  2.04745E-54
 6.51452E+16  2.17552E-54
 6.51090E+16  2.31160E-54
 6.50729E+16  2.45619E-54
 6.50367E+16  2.60983E-54
 6.50006E+16  2.77307E-54
 6.49645E+16  2.94653E-54
 6.49284E+16  3.13084E-54
 6.48924E+16  3.32668E-54
 6.48563E+16  3.53476E-54
 6.48203E+16  3.75586E-54
 6.47843E+16  3.99079E-54
 6.47483E+16  4.24042E-54
 6.47124E+16  4.50566E-54
 6.46764E+16  4.78749E-54
 6.46405E+16  5.08696E-54
 6.46046E+16  5.40515E-54
 6.45687E+16  5.74324E-54
 6.45329E+16  6.10249E-54
 6.44970E+16  6.48420E-54
 6.44612E+16  6.88979E-54
 6.44254E+16  7.32075E-54
 6.43896E+16  7.77867E-54
 6.43539E+16  8.26523E-54
 6.43181E+16  8.78223E-54
 6.42824E+16  9.32820E-54
 6.42467E+16  9.89091E-54
 6.42110E+16  1.04881E-53
 6.41753E+16  1.11214E-53
 6.41397E+16  1.17929E-53
 6.41041E+16  1.25049E-53
 6.40685E+16  1.32600E-53
 6.40329E+16  1.40606E-53
 6.39973E+16  1.49095E-53
 6.39618E+16  1.58098E-53
 6.39263E+16  1.67643E-53
 6.38908E+16  1.77766E-53
 6.38553E+16  1.88499E-53
 6.38198E+16  1.99880E-53
 6.37844E+16  2.11949E-53
 6.37489E+16  2.24746E-53
 6.37135E+16  2.38316E-53
 6.36781E+16  2.52705E-53
 6.36428E+16  2.67963E-53
 6.36074E+16  2.84143E-53
 6.35721E+16  3.01299E-53
 6.35368E+16  3.19491E-53
 6.35015E+16  3.38782E-53
 6.34662E+16  3.59237E-53
 6.34310E+16  3.80927E-53
 6.33958E+16  4.03927E-53
 6.33605E+16  4.28316E-53
 6.33254E+16  4.54178E-53
 6.32902E+16  4.81600E-53
 6.32550E+16  5.10679E-53
 6.32199E+16  5.41513E-53
 6.31848E+16  5.74209E-53
 6.31497E+16  6.08879E-53
 6.31146E+16  6.45643E-53
 6.30796E+16  6.84626E-53
 6.30445E+16  7.25963E-53
 6.30095E+16  7.69796E-53
 6.29745E+16  8.16276E-53
 6.29395E+16  8.65562E-53
 6.29046E+16  9.17823E-53
 6.28697E+16  9.73241E-53
 6.28347E+16  1.03200E-52
 6.27998E+16  1.09432E-52
 6.27650E+16  1.16039E-52
 6.27301E+16  1.23045E-52
 6.26953E+16  1.30475E-52
 6.26604E+16  1.38352E-52
 6.26256E+16  1.46706E-52
 6.25909E+16  1.55564E-52
 6.25561E+16  1.64957E-52
 6.25213E+16  1.74917E-52
 6.24866E+16  1.85478E-52
 6.24519E+16  1.96677E-52
 6.24172E+16  2.08552E-52
 6.23826E+16  2.21144E-52
 6.23479E+16  2.34497E-52
 6.23133E+16  2.48656E-52
 6.22787E+16  2.63669E-52
 6.22441E+16  2.79589E-52
 6.22095E+16  2.96471E-52
 6.21750E+16  3.14371E-52
 6.21404E+16  3.33353E-52
 6.21059E+16  3.53480E-52
 6.20714E+16  3.74823E-52
 6.20370E+16  3.97454E-52
 6.20025E+16  4.21452E-52
 6.19681E+16  4.46899E-52
 6.19337E+16  4.73882E-52
 6.18993E+16  5.02495E-52
 6.18649E+16  5.32835E-52
 6.18305E+16  5.65007E-52
 6.17962E+16  5.99188E-52
 6.17619E+16  6.34445E-52
 6.17276E+16  6.71405E-52
 6.16933E+16  7.10518E-52
 6.16590E+16  7.51910E-52
 6.16248E+16  7.95713E-52
 6.15905E+16  8.42067E-52
 6.15563E+16  8.91122E-52
 6.15221E+16  9.43035E-52
 6.14880E+16  9.97972E-52
 6.14538E+16  1.05611E-51
 6.14197E+16  1.11763E-51
 6.13856E+16  1.18274E-51
 6.13515E+16  1.25164E-51
 6.13174E+16  1.32456E-51
 6.12834E+16  1.40172E-51
 6.12493E+16  1.48338E-51
 6.12153E+16  1.56979E-51
 6.11813E+16  1.66124E-51
 6.11473E+16  1.75802E-51
 6.11134E+16  1.86043E-51
 6.10794E+16  1.96881E-51
 6.10455E+16  2.08351E-51
 6.10116E+16  2.20488E-51
 6.09777E+16  2.33333E-51
 6.09438E+16  2.46926E-51
 6.09100E+16  2.61311E-51
 6.08762E+16  2.76534E-51
 6.08423E+16  2.92643E-51
 6.08086E+16  3.09691E-51
 6.07748E+16  3.27732E-51
 6.07410E+16  3.46825E-51
 6.07073E+16  3.67029E-51
 6.06736E+16  3.88411E-51
 6.06399E+16  4.11038E-51
 6.06062E+16  4.34983E-51
 6.05725E+16  4.60323E-51
 6.05389E+16  4.87139E-51
 6.05053E+16  5.15518E-51
 6.04717E+16  5.45549E-51
 6.04381E+16  5.77331E-51
 6.04045E+16  6.10963E-51
 6.03710E+16  6.46555E-51
 6.03374E+16  6.84221E-51
 6.03039E+16  7.24080E-51
 6.02704E+16  7.66262E-51
 6.02370E+16  8.10901E-51
 6.02035E+16  8.58140E-51
 6.01701E+16  9.08132E-51
 6.01366E+16  9.61035E-51
 6.01032E+16  1.01702E-50
 6.00699E+16  1.07627E-50
 6.00365E+16  1.13897E-50
 6.00032E+16  1.20532E-50
 5.99698E+16  1.27553E-50
 5.99365E+16  1.34984E-50
 5.99032E+16  1.42848E-50
 5.98700E+16  1.51169E-50
 5.98367E+16  1.59976E-50
 5.98035E+16  1.69295E-50
 5.97703E+16  1.79158E-50
 5.97371E+16  1.89594E-50
 5.97039E+16  2.00639E-50
 5.96707E+16  2.12328E-50
 5.96376E+16  2.24697E-50
 5.96045E+16  2.37787E-50
 5.95714E+16  2.51639E-50
 5.95383E+16  2.66299E-50
 5.95052E+16  2.81812E-50
 5.94722E+16  2.98229E-50
 5.94391E+16  3.15602E-50
 5.94061E+16  3.33988E-50
 5.93731E+16  3.53445E-50
 5.93402E+16  3.74035E-50
 5.93072E+16  3.95824E-50
 5.92743E+16  4.18747E-50
 5.92413E+16  4.42258E-50
 5.92084E+16  4.67099E-50
 5.91755E+16  4.93335E-50
 5.91427E+16  5.21044E-50
 5.91098E+16  5.50310E-50
 5.90770E+16  5.81219E-50
 5.90442E+16  6.13865E-50
 5.90114E+16  6.48345E-50
 5.89786E+16  6.84760E-50
 5.89459E+16  7.23222E-50
 5.89131E+16  7.63843E-50
 5.88804E+16  8.06747E-50
 5.88477E+16  8.52060E-50
 5.88150E+16  8.99918E-50
 5.87824E+16  9.50464E-50
 5.87497E+16  1.00385E-49
 5.87171E+16  1.06023E-49
 5.86845E+16  1.11978E-49
 5.86519E+16  1.18268E-49
 5.86193E+16  1.24911E-49
 5.85867E+16  1.31927E-49
 5.85542E+16  1.39337E-49
 5.85217E+16  1.47163E-49
 5.84892E+16  1.55429E-49
 5.84567E+16  1.64159E-49
 5.84242E+16  1.73379E-49
 5.83918E+16  1.83117E-49
 5.83594E+16  1.93403E-49
 5.83269E+16  2.04266E-49
 5.82945E+16  2.15739E-49
 5.82622E+16  2.27856E-49
 5.82298E+16  2.40655E-49
 5.81975E+16  2.54172E-49
 5.81651E+16  2.68448E-49
 5.81328E+16  2.83526E-49
 5.81006E+16  2.99451E-49
 5.80683E+16  3.16270E-49
 5.80360E+16  3.34034E-49
 5.80038E+16  3.52796E-49
 5.79716E+16  3.72612E-49
 5.79394E+16  3.93541E-49
 5.79072E+16  4.15645E-49
 5.78750E+16  4.38991E-49
 5.78429E+16  4.63648E-49
 5.78108E+16  4.89690E-49
 5.77787E+16  5.17194E-49
 5.77466E+16  5.46244E-49
 5.77145E+16  5.76925E-49
 5.76825E+16  6.09330E-49
 5.76504E+16  6.43554E-49
 5.76184E+16  6.79701E-49
 5.75864E+16  7.17878E-49
 5.75544E+16  7.58200E-49
 5.75224E+16  8.00786E-49
 5.74905E+16  8.45764E-49
 5.74586E+16  8.93269E-49
 5.74267E+16  9.43442E-49
 5.73948E+16  9.96433E-49
 5.73629E+16  1.05240E-48
 5.73310E+16  1.11151E-48
 5.72992E+16  1.17394E-48
 5.72674E+16  1.23988E-48
 5.72356E+16  1.30952E-48
 5.72038E+16  1.38307E-48
 5.71720E+16  1.46076E-48
 5.71402E+16  1.54280E-48
 5.71085E+16  1.62946E-48
 5.70768E+16  1.72098E-48
 5.70451E+16  1.81765E-48
 5.70134E+16  1.91974E-48
 5.69817E+16  2.02757E-48
 5.69501E+16  2.14145E-48
 5.69185E+16  2.26173E-48
 5.68869E+16  2.38876E-48
 5.68553E+16  2.52294E-48
 5.68237E+16  2.66464E-48
 5.67921E+16  2.81431E-48
 5.67606E+16  2.97001E-48
 5.67291E+16  3.13033E-48
 5.66975E+16  3.29968E-48
 5.66661E+16  3.47818E-48
 5.66346E+16  3.66634E-48
 5.66031E+16  3.86469E-48
 5.65717E+16  4.07376E-48
 5.65403E+16  4.29414E-48
 5.65089E+16  4.52645E-48
 5.64775E+16  4.77132E-48
 5.64461E+16  5.02944E-48
 5.64148E+16  5.30152E-48
 5.63834E+16  5.58832E-48
 5.63521E+16  5.89064E-48
 5.63208E+16  6.20931E-48
 5.62895E+16  6.54522E-48
 5.62583E+16  6.89931E-48
 5.62270E+16  7.27255E-48
 5.61958E+16  7.66598E-48
 5.61646E+16  8.08069E-48
 5.61334E+16  8.51784E-48
 5.61022E+16  8.97864E-48
 5.60711E+16  9.46437E-48
 5.60399E+16  9.97638E-48
 5.60088E+16  1.05161E-47
 5.59777E+16  1.10850E-47
 5.59466E+16  1.16847E-47
 5.59155E+16  1.23168E-47
 5.58845E+16  1.29831E-47
 5.58534E+16  1.36854E-47
 5.58224E+16  1.44258E-47
 5.57914E+16  1.52062E-47
 5.57604E+16  1.60288E-47
 5.57295E+16  1.68960E-47
 5.56985E+16  1.78100E-47
 5.56676E+16  1.87735E-47
 5.56367E+16  1.97891E-47
 5.56058E+16  2.08597E-47
 5.55749E+16  2.19881E-47
 5.55440E+16  2.31776E-47
 5.55132E+16  2.44315E-47
 5.54823E+16  2.57532E-47
 5.54515E+16  2.71464E-47
 5.54207E+16  2.86150E-47
 5.53899E+16  3.01630E-47
 5.53592E+16  3.17947E-47
 5.53284E+16  3.35148E-47
 5.52977E+16  3.53279E-47
 5.52670E+16  3.72390E-47
 5.52363E+16  3.92536E-47
 5.52056E+16  4.13771E-47
 5.51749E+16  4.36156E-47
 5.51443E+16  4.59751E-47
 5.51137E+16  4.84623E-47
 5.50831E+16  5.10840E-47
 5.50525E+16  5.38475E-47
 5.50219E+16  5.67606E-47
 5.49913E+16  5.98312E-47
 5.49608E+16  6.30680E-47
 5.49303E+16  6.64798E-47
 5.48998E+16  7.00762E-47
 5.48693E+16  7.38672E-47
 5.48388E+16  7.78633E-47
 5.48083E+16  8.20756E-47
 5.47779E+16  8.65157E-47
 5.47475E+16  9.11960E-47
 5.47171E+16  9.61296E-47
 5.46867E+16  1.01330E-46
 5.46563E+16  1.06812E-46
 5.46259E+16  1.12590E-46
 5.45956E+16  1.18681E-46
 5.45653E+16  1.25101E-46
 5.45350E+16  1.31869E-46
 5.45047E+16  1.39003E-46
 5.44744E+16  1.46523E-46
 5.44442E+16  1.54449E-46
 5.44139E+16  1.62805E-46
 5.43837E+16  1.71612E-46
 5.43535E+16  1.80896E-46
 5.43233E+16  1.90682E-46
 5.42931E+16  2.00998E-46
 5.42630E+16  2.11779E-46
 5.42328E+16  2.22793E-46
 5.42027E+16  2.34391E-46
 5.41726E+16  2.46592E-46
 5.41425E+16  2.59428E-46
 5.41125E+16  2.72933E-46
 5.40824E+16  2.87140E-46
 5.40524E+16  3.02087E-46
 5.40224E+16  3.17812E-46
 5.39923E+16  3.34356E-46
 5.39624E+16  3.51761E-46
 5.39324E+16  3.70072E-46
 5.39024E+16  3.89336E-46
 5.38725E+16  4.09603E-46
 5.38426E+16  4.30924E-46
 5.38127E+16  4.53356E-46
 5.37828E+16  4.76955E-46
 5.37529E+16  5.01783E-46
 5.37231E+16  5.27903E-46
 5.36932E+16  5.55383E-46
 5.36634E+16  5.84294E-46
 5.36336E+16  6.14709E-46
 5.36038E+16  6.46708E-46
 5.35740E+16  6.80372E-46
 5.35443E+16  7.15788E-46
 5.35145E+16  7.53049E-46
 5.34848E+16  7.92248E-46
 5.34551E+16  8.33489E-46
 5.34254E+16  8.76876E-46
 5.33958E+16  9.22521E-46
 5.33661E+16  9.70543E-46
 5.33365E+16  1.02106E-45
 5.33068E+16  1.07422E-45
 5.32772E+16  1.13013E-45
 5.32476E+16  1.18896E-45
 5.32181E+16  1.25085E-45
 5.31885E+16  1.31597E-45
 5.31590E+16  1.38447E-45
 5.31294E+16  1.45654E-45
 5.30999E+16  1.53236E-45
 5.30704E+16  1.61212E-45
 5.30410E+16  1.69604E-45
 5.30115E+16  1.78433E-45
 5.29821E+16  1.87721E-45
 5.29526E+16  1.97493E-45
 5.29232E+16  2.07774E-45
 5.28938E+16  2.18589E-45
 5.28645E+16  2.29968E-45
 5.28351E+16  2.41939E-45
 5.28058E+16  2.54533E-45
 5.27764E+16  2.67782E-45
 5.27471E+16  2.81722E-45
 5.27178E+16  2.96387E-45
 5.26885E+16  3.11815E-45
 5.26593E+16  3.28046E-45
 5.26300E+16  3.45123E-45
 5.26008E+16  3.63088E-45
 5.25716E+16  3.81989E-45
 5.25424E+16  4.01873E-45
 5.25132E+16  4.22792E-45
 5.24840E+16  4.44801E-45
 5.24549E+16  4.67955E-45
 5.24258E+16  4.92314E-45
 5.23966E+16  5.17941E-45
 5.23675E+16  5.44903E-45
 5.23385E+16  5.73267E-45
 5.23094E+16  6.03109E-45
 5.22803E+16  6.34504E-45
 5.22513E+16  6.67532E-45
 5.22223E+16  7.02281E-45
 5.21933E+16  7.38838E-45
 5.21643E+16  7.77298E-45
 5.21353E+16  8.17760E-45
 5.21064E+16  8.60328E-45
 5.20774E+16  9.05112E-45
 5.20485E+16  9.52228E-45
 5.20196E+16  1.00180E-44
 5.19907E+16  1.05394E-44
 5.19618E+16  1.10881E-44
 5.19330E+16  1.16653E-44
 5.19041E+16  1.22725E-44
 5.18753E+16  1.29113E-44
 5.18465E+16  1.35834E-44
 5.18177E+16  1.42905E-44
 5.17889E+16  1.50344E-44
 5.17601E+16  1.58113E-44
 5.17314E+16  1.66022E-44
 5.17027E+16  1.74329E-44
 5.16739E+16  1.83051E-44
 5.16452E+16  1.92209E-44
 5.16166E+16  2.01826E-44
 5.15879E+16  2.11923E-44
 5.15592E+16  2.22526E-44
 5.15306E+16  2.33660E-44
 5.15020E+16  2.45350E-44
 5.14734E+16  2.57625E-44
 5.14448E+16  2.70515E-44
 5.14162E+16  2.84049E-44
 5.13877E+16  2.98260E-44
 5.13591E+16  3.13183E-44
 5.13306E+16  3.28852E-44
 5.13021E+16  3.45305E-44
 5.12736E+16  3.62581E-44
 5.12451E+16  3.80722E-44
 5.12167E+16  3.99770E-44
 5.11882E+16  4.19771E-44
 5.11598E+16  4.40773E-44
 5.11314E+16  4.62825E-44
 5.11030E+16  4.85981E-44
 5.10746E+16  5.10296E-44
 5.10462E+16  5.35827E-44
 5.10179E+16  5.62635E-44
 5.09895E+16  5.90785E-44
 5.09612E+16  6.20343E-44
 5.09329E+16  6.51379E-44
 5.09046E+16  6.83969E-44
 5.08764E+16  7.18189E-44
 5.08481E+16  7.54121E-44
 5.08199E+16  7.91851E-44
 5.07916E+16  8.31469E-44
 5.07634E+16  8.73069E-44
 5.07352E+16  9.16750E-44
 5.07071E+16  9.62616E-44
 5.06789E+16  1.01078E-43
 5.06507E+16  1.06135E-43
 5.06226E+16  1.11445E-43
 5.05945E+16  1.17021E-43
 5.05664E+16  1.22875E-43
 5.05383E+16  1.29023E-43
 5.05102E+16  1.35478E-43
 5.04822E+16  1.42257E-43
 5.04542E+16  1.49374E-43
 5.04261E+16  1.56847E-43
 5.03981E+16  1.64695E-43
 5.03701E+16  1.72935E-43
 5.03422E+16  1.81587E-43
 5.03142E+16  1.90672E-43
 5.02863E+16  2.00212E-43
 5.02583E+16  2.10229E-43
 5.02304E+16  2.20747E-43
 5.02025E+16  2.31791E-43
 5.01746E+16  2.43388E-43
 5.01468E+16  2.55565E-43
 5.01189E+16  2.68351E-43
 5.00911E+16  2.81777E-43
 5.00633E+16  2.95875E-43
 5.00354E+16  3.10678E-43
 5.00077E+16  3.26222E-43
 4.99799E+16  3.42544E-43
 4.99521E+16  3.59682E-43
 4.99244E+16  3.77677E-43
 4.98967E+16  3.96573E-43
 4.98689E+16  4.16414E-43
 4.98412E+16  4.37248E-43
 4.98136E+16  4.59124E-43
 4.97859E+16  4.82095E-43
 4.97582E+16  5.06215E-43
 4.97306E+16  5.31542E-43
 4.97030E+16  5.58136E-43
 4.96754E+16  5.86060E-43
 4.96478E+16  6.15382E-43
 4.96202E+16  6.46170E-43
 4.95927E+16  6.78499E-43
 4.95651E+16  7.12446E-43
 4.95376E+16  7.48091E-43
 4.95101E+16  7.85519E-43
 4.94826E+16  8.24820E-43
 4.94551E+16  8.66087E-43
 4.94276E+16  9.09419E-43
 4.94002E+16  9.54918E-43
 4.93727E+16  1.00269E-42
 4.93453E+16  1.05286E-42
 4.93179E+16  1.10554E-42
 4.92905E+16  1.16085E-42
 4.92631E+16  1.21884E-42
 4.92358E+16  1.27768E-42
 4.92084E+16  1.33904E-42
 4.91811E+16  1.40336E-42
 4.91538E+16  1.47076E-42
 4.91265E+16  1.54140E-42
 4.90992E+16  1.61544E-42
 4.90719E+16  1.69303E-42
 4.90447E+16  1.77435E-42
 4.90174E+16  1.85957E-42
 4.89902E+16  1.94888E-42
 4.89630E+16  2.04249E-42
 4.89358E+16  2.14059E-42
 4.89086E+16  2.24340E-42
 4.88815E+16  2.35116E-42
 4.88543E+16  2.46408E-42
 4.88272E+16  2.58243E-42
 4.88001E+16  2.70647E-42
 4.87730E+16  2.83646E-42
 4.87459E+16  2.97270E-42
 4.87188E+16  3.11548E-42
 4.86918E+16  3.26511E-42
 4.86647E+16  3.42194E-42
 4.86377E+16  3.58630E-42
 4.86107E+16  3.75855E-42
 4.85837E+16  3.93907E-42
 4.85567E+16  4.12827E-42
 4.85297E+16  4.32655E-42
 4.85028E+16  4.53435E-42
 4.84758E+16  4.75214E-42
 4.84489E+16  4.98039E-42
 4.84220E+16  5.21960E-42
 4.83951E+16  5.47029E-42
 4.83682E+16  5.73304E-42
 4.83414E+16  6.00839E-42
 4.83145E+16  6.29698E-42
 4.82877E+16  6.59943E-42
 4.82609E+16  6.91640E-42
 4.82341E+16  7.24860E-42
 4.82073E+16  7.59675E-42
 4.81805E+16  7.96162E-42
 4.81537E+16  8.34402E-42
 4.81270E+16  8.74479E-42
 4.81003E+16  9.16480E-42
 4.80735E+16  9.60499E-42
 4.80468E+16  1.00663E-41
 4.80202E+16  1.05498E-41
 4.79935E+16  1.10565E-41
 4.79668E+16  1.15876E-41
 4.79402E+16  1.21441E-41
 4.79136E+16  1.27274E-41
 4.78870E+16  1.33387E-41
 4.78604E+16  1.39794E-41
 4.78338E+16  1.46508E-41
 4.78072E+16  1.53545E-41
 4.77807E+16  1.60920E-41
 4.77541E+16  1.68649E-41
 4.77276E+16  1.76749E-41
 4.77011E+16  1.85238E-41
 4.76746E+16  1.94135E-41
 4.76481E+16  2.03460E-41
 4.76217E+16  2.13232E-41
 4.75952E+16  2.23474E-41
 4.75688E+16  2.34207E-41
 4.75424E+16  2.45456E-41
 4.75159E+16  2.57246E-41
 4.74896E+16  2.69601E-41
 4.74632E+16  2.82550E-41
 4.74368E+16  2.96121E-41
 4.74105E+16  3.10344E-41
 4.73841E+16  3.25250E-41
 4.73578E+16  3.40872E-41
 4.73315E+16  3.57244E-41
 4.73052E+16  3.74403E-41
 4.72790E+16  3.92385E-41
 4.72527E+16  4.11232E-41
 4.72265E+16  4.30983E-41
 4.72002E+16  4.51684E-41
 4.71740E+16  4.73378E-41
 4.71478E+16  4.96115E-41
 4.71216E+16  5.19943E-41
 4.70955E+16  5.44916E-41
 4.70693E+16  5.71089E-41
 4.70432E+16  5.98518E-41
 4.70170E+16  6.27265E-41
 4.69909E+16  6.57393E-41
 4.69648E+16  6.88968E-41
 4.69387E+16  7.22059E-41
 4.69127E+16  7.56740E-41
 4.68866E+16  7.93087E-41
 4.68606E+16  8.31179E-41
 4.68345E+16  8.71101E-41
 4.68085E+16  9.12940E-41
 4.67825E+16  9.56789E-41
 4.67566E+16  1.00261E-40
 4.67306E+16  1.04896E-40
 4.67046E+16  1.09727E-40
 4.66787E+16  1.14781E-40
 4.66528E+16  1.20067E-40
 4.66269E+16  1.25597E-40
 4.66010E+16  1.31382E-40
 4.65751E+16  1.37433E-40
 4.65492E+16  1.43762E-40
 4.65234E+16  1.50383E-40
 4.64975E+16  1.57309E-40
 4.64717E+16  1.64555E-40
 4.64459E+16  1.72133E-40
 4.64201E+16  1.80061E-40
 4.63943E+16  1.88354E-40
 4.63685E+16  1.97029E-40
 4.63428E+16  2.06103E-40
 4.63170E+16  2.15596E-40
 4.62913E+16  2.25525E-40
 4.62656E+16  2.35912E-40
 4.62399E+16  2.46777E-40
 4.62142E+16  2.58143E-40
 4.61886E+16  2.70032E-40
 4.61629E+16  2.82468E-40
 4.61373E+16  2.95478E-40
 4.61116E+16  3.09086E-40
 4.60860E+16  3.23322E-40
 4.60604E+16  3.38213E-40
 4.60349E+16  3.53789E-40
 4.60093E+16  3.70084E-40
 4.59837E+16  3.87128E-40
 4.59582E+16  4.04958E-40
 4.59327E+16  4.23609E-40
 4.59072E+16  4.43118E-40
 4.58817E+16  4.63527E-40
 4.58562E+16  4.84875E-40
 4.58307E+16  5.07207E-40
 4.58053E+16  5.30566E-40
 4.57798E+16  5.55002E-40
 4.57544E+16  5.80564E-40
 4.57290E+16  6.07302E-40
 4.57036E+16  6.35272E-40
 4.56782E+16  6.64530E-40
 4.56528E+16  6.95136E-40
 4.56275E+16  7.27151E-40
 4.56021E+16  7.60641E-40
 4.55768E+16  7.95673E-40
 4.55515E+16  8.32319E-40
 4.55262E+16  8.70652E-40
 4.55009E+16  9.10751E-40
 4.54756E+16  9.52697E-40
 4.54504E+16  9.96575E-40
 4.54251E+16  1.04247E-39
 4.53999E+16  1.09049E-39
 4.53747E+16  1.14071E-39
 4.53495E+16  1.19325E-39
 4.53243E+16  1.24820E-39
 4.52991E+16  1.30569E-39
 4.52740E+16  1.36582E-39
 4.52488E+16  1.42873E-39
 4.52237E+16  1.49453E-39
 4.51986E+16  1.56336E-39
 4.51735E+16  1.63537E-39
 4.51484E+16  1.71068E-39
 4.51233E+16  1.78947E-39
 4.50983E+16  1.87189E-39
 4.50732E+16  1.95810E-39
 4.50482E+16  2.04828E-39
 4.50232E+16  2.14262E-39
 4.49981E+16  2.24130E-39
 4.49732E+16  2.34452E-39
 4.49482E+16  2.45250E-39
 4.49232E+16  2.56546E-39
 4.48983E+16  2.68361E-39
 4.48733E+16  2.80721E-39
 4.48484E+16  2.93650E-39
 4.48235E+16  3.07174E-39
 4.47986E+16  3.21322E-39
 4.47737E+16  3.36120E-39
 4.47489E+16  3.51601E-39
 4.47240E+16  3.67794E-39
 4.46992E+16  3.84733E-39
 4.46743E+16  4.02453E-39
 4.46495E+16  4.20988E-39
 4.46247E+16  4.40377E-39
 4.45999E+16  4.60659E-39
 4.45752E+16  4.81875E-39
 4.45504E+16  5.04069E-39
 4.45257E+16  5.27284E-39
 4.45009E+16  5.51569E-39
 4.44762E+16  5.76972E-39
 4.44515E+16  6.03545E-39
 4.44268E+16  6.31342E-39
 4.44022E+16  6.60419E-39
 4.43775E+16  6.90836E-39
 4.43528E+16  7.22653E-39
 4.43282E+16  7.55936E-39
 4.43036E+16  7.90751E-39
 4.42790E+16  8.27170E-39
 4.42544E+16  8.65223E-39
 4.42298E+16  9.03638E-39
 4.42053E+16  9.43488E-39
 4.41807E+16  9.85096E-39
 4.41562E+16  1.02854E-38
 4.41316E+16  1.07390E-38
 4.41071E+16  1.12126E-38
 4.40826E+16  1.17070E-38
 4.40581E+16  1.22233E-38
 4.40337E+16  1.27624E-38
 4.40092E+16  1.33252E-38
 4.39848E+16  1.39128E-38
 4.39604E+16  1.45264E-38
 4.39359E+16  1.51670E-38
 4.39115E+16  1.58358E-38
 4.38871E+16  1.65342E-38
 4.38628E+16  1.72634E-38
 4.38384E+16  1.80247E-38
 4.38141E+16  1.88195E-38
 4.37897E+16  1.96495E-38
 4.37654E+16  2.05160E-38
 4.37411E+16  2.14208E-38
 4.37168E+16  2.23654E-38
