 TLUSTY Ostars, Lanz & Hubeny 2003
 T 35000. G 4.25000 Abundance M03
 Frequency   Eddington Hnu
   (Hz)    (ergs/s/cm2/Hz/sr)
 6.67944E+16  1.71140E-52
 6.67573E+16  1.78903E-52
 6.67202E+16  1.89814E-52
 6.66831E+16  2.01389E-52
 6.66461E+16  2.13671E-52
 6.66091E+16  2.26702E-52
 6.65721E+16  2.40527E-52
 6.65351E+16  2.55195E-52
 6.64982E+16  2.70758E-52
 6.64612E+16  2.87270E-52
 6.64243E+16  3.04789E-52
 6.63874E+16  3.23377E-52
 6.63506E+16  3.43098E-52
 6.63137E+16  3.64022E-52
 6.62769E+16  3.86221E-52
 6.62401E+16  4.09775E-52
 6.62033E+16  4.34765E-52
 6.61665E+16  4.61279E-52
 6.61298E+16  4.89410E-52
 6.60930E+16  5.19256E-52
 6.60563E+16  5.50923E-52
 6.60196E+16  5.84521E-52
 6.59830E+16  6.20168E-52
 6.59463E+16  6.57988E-52
 6.59097E+16  6.98115E-52
 6.58731E+16  7.40690E-52
 6.58365E+16  7.85860E-52
 6.57999E+16  8.33786E-52
 6.57634E+16  8.84634E-52
 6.57269E+16  9.38583E-52
 6.56904E+16  9.95822E-52
 6.56539E+16  1.05655E-51
 6.56174E+16  1.12099E-51
 6.55810E+16  1.18935E-51
 6.55445E+16  1.26188E-51
 6.55081E+16  1.33884E-51
 6.54718E+16  1.42048E-51
 6.54354E+16  1.50711E-51
 6.53991E+16  1.59902E-51
 6.53627E+16  1.69654E-51
 6.53264E+16  1.80000E-51
 6.52901E+16  1.90977E-51
 6.52539E+16  2.02624E-51
 6.52176E+16  2.14981E-51
 6.51814E+16  2.28091E-51
 6.51452E+16  2.42002E-51
 6.51090E+16  2.56760E-51
 6.50729E+16  2.72418E-51
 6.50367E+16  2.89032E-51
 6.50006E+16  3.06658E-51
 6.49645E+16  3.25360E-51
 6.49284E+16  3.45201E-51
 6.48924E+16  3.66253E-51
 6.48563E+16  3.88589E-51
 6.48203E+16  4.12287E-51
 6.47843E+16  4.37430E-51
 6.47483E+16  4.64107E-51
 6.47124E+16  4.92410E-51
 6.46764E+16  5.22440E-51
 6.46405E+16  5.54301E-51
 6.46046E+16  5.88104E-51
 6.45687E+16  6.23970E-51
 6.45329E+16  6.62022E-51
 6.44970E+16  7.02396E-51
 6.44612E+16  7.45231E-51
 6.44254E+16  7.90679E-51
 6.43896E+16  8.38898E-51
 6.43539E+16  8.90058E-51
 6.43181E+16  9.44337E-51
 6.42824E+16  1.00149E-50
 6.42467E+16  1.06007E-50
 6.42110E+16  1.12211E-50
 6.41753E+16  1.18779E-50
 6.41397E+16  1.25730E-50
 6.41041E+16  1.33089E-50
 6.40685E+16  1.40878E-50
 6.40329E+16  1.49123E-50
 6.39973E+16  1.57850E-50
 6.39618E+16  1.67089E-50
 6.39263E+16  1.76868E-50
 6.38908E+16  1.87219E-50
 6.38553E+16  1.98176E-50
 6.38198E+16  2.09775E-50
 6.37844E+16  2.22052E-50
 6.37489E+16  2.35048E-50
 6.37135E+16  2.48805E-50
 6.36781E+16  2.63366E-50
 6.36428E+16  2.78780E-50
 6.36074E+16  2.95096E-50
 6.35721E+16  3.12367E-50
 6.35368E+16  3.30648E-50
 6.35015E+16  3.50000E-50
 6.34662E+16  3.70484E-50
 6.34310E+16  3.92167E-50
 6.33958E+16  4.15119E-50
 6.33605E+16  4.39414E-50
 6.33254E+16  4.65131E-50
 6.32902E+16  4.92354E-50
 6.32550E+16  5.21169E-50
 6.32199E+16  5.51671E-50
 6.31848E+16  5.83958E-50
 6.31497E+16  6.18135E-50
 6.31146E+16  6.54312E-50
 6.30796E+16  6.92607E-50
 6.30445E+16  7.33142E-50
 6.30095E+16  7.76050E-50
 6.29745E+16  8.21469E-50
 6.29395E+16  8.69547E-50
 6.29046E+16  9.20438E-50
 6.28697E+16  9.74307E-50
 6.28347E+16  1.03133E-49
 6.27998E+16  1.09169E-49
 6.27650E+16  1.15558E-49
 6.27301E+16  1.22321E-49
 6.26953E+16  1.29480E-49
 6.26604E+16  1.37058E-49
 6.26256E+16  1.45080E-49
 6.25909E+16  1.53571E-49
 6.25561E+16  1.62559E-49
 6.25213E+16  1.72073E-49
 6.24866E+16  1.82143E-49
 6.24519E+16  1.92803E-49
 6.24172E+16  2.04087E-49
 6.23826E+16  2.16032E-49
 6.23479E+16  2.28675E-49
 6.23133E+16  2.42059E-49
 6.22787E+16  2.56226E-49
 6.22441E+16  2.71222E-49
 6.22095E+16  2.87095E-49
 6.21750E+16  3.03898E-49
 6.21404E+16  3.21684E-49
 6.21059E+16  3.40510E-49
 6.20714E+16  3.60439E-49
 6.20370E+16  3.81534E-49
 6.20025E+16  4.03864E-49
 6.19681E+16  4.27501E-49
 6.19337E+16  4.52521E-49
 6.18993E+16  4.79005E-49
 6.18649E+16  5.07039E-49
 6.18305E+16  5.36714E-49
 6.17962E+16  5.68182E-49
 6.17619E+16  6.00439E-49
 6.17276E+16  6.34099E-49
 6.16933E+16  6.69646E-49
 6.16590E+16  7.07186E-49
 6.16248E+16  7.46831E-49
 6.15905E+16  7.88698E-49
 6.15563E+16  8.32912E-49
 6.15221E+16  8.79604E-49
 6.14880E+16  9.28914E-49
 6.14538E+16  9.80989E-49
 6.14197E+16  1.03598E-48
 6.13856E+16  1.09406E-48
 6.13515E+16  1.15539E-48
 6.13174E+16  1.22016E-48
 6.12834E+16  1.28856E-48
 6.12493E+16  1.36080E-48
 6.12153E+16  1.43709E-48
 6.11813E+16  1.51765E-48
 6.11473E+16  1.60273E-48
 6.11134E+16  1.69257E-48
 6.10794E+16  1.78746E-48
 6.10455E+16  1.88766E-48
 6.10116E+16  1.99348E-48
 6.09777E+16  2.10524E-48
 6.09438E+16  2.22326E-48
 6.09100E+16  2.34789E-48
 6.08762E+16  2.47951E-48
 6.08423E+16  2.61851E-48
 6.08086E+16  2.76530E-48
 6.07748E+16  2.92033E-48
 6.07410E+16  3.08404E-48
 6.07073E+16  3.25693E-48
 6.06736E+16  3.43951E-48
 6.06399E+16  3.63232E-48
 6.06062E+16  3.83595E-48
 6.05725E+16  4.05099E-48
 6.05389E+16  4.27809E-48
 6.05053E+16  4.51792E-48
 6.04717E+16  4.77119E-48
 6.04381E+16  5.03866E-48
 6.04045E+16  5.32112E-48
 6.03710E+16  5.61942E-48
 6.03374E+16  5.93444E-48
 6.03039E+16  6.26712E-48
 6.02704E+16  6.61845E-48
 6.02370E+16  6.98948E-48
 6.02035E+16  7.38131E-48
 6.01701E+16  7.79510E-48
 6.01366E+16  8.23209E-48
 6.01032E+16  8.69357E-48
 6.00699E+16  9.18093E-48
 6.00365E+16  9.69561E-48
 6.00032E+16  1.02391E-47
 5.99698E+16  1.08131E-47
 5.99365E+16  1.14193E-47
 5.99032E+16  1.20595E-47
 5.98700E+16  1.27355E-47
 5.98367E+16  1.34495E-47
 5.98035E+16  1.42034E-47
 5.97703E+16  1.49997E-47
 5.97371E+16  1.58406E-47
 5.97039E+16  1.67286E-47
 5.96707E+16  1.76664E-47
 5.96376E+16  1.86567E-47
 5.96045E+16  1.97026E-47
 5.95714E+16  2.08071E-47
 5.95383E+16  2.19736E-47
 5.95052E+16  2.32054E-47
 5.94722E+16  2.45063E-47
 5.94391E+16  2.58801E-47
 5.94061E+16  2.73309E-47
 5.93731E+16  2.88631E-47
 5.93402E+16  3.04811E-47
 5.93072E+16  3.21899E-47
 5.92743E+16  3.39802E-47
 5.92413E+16  3.58016E-47
 5.92084E+16  3.77204E-47
 5.91755E+16  3.97419E-47
 5.91427E+16  4.18718E-47
 5.91098E+16  4.41158E-47
 5.90770E+16  4.64801E-47
 5.90442E+16  4.89712E-47
 5.90114E+16  5.15957E-47
 5.89786E+16  5.43608E-47
 5.89459E+16  5.72742E-47
 5.89131E+16  6.03437E-47
 5.88804E+16  6.35777E-47
 5.88477E+16  6.69850E-47
 5.88150E+16  7.05750E-47
 5.87824E+16  7.43573E-47
 5.87497E+16  7.83423E-47
 5.87171E+16  8.25409E-47
 5.86845E+16  8.69646E-47
 5.86519E+16  9.16252E-47
 5.86193E+16  9.65357E-47
 5.85867E+16  1.01709E-46
 5.85542E+16  1.07160E-46
 5.85217E+16  1.12903E-46
 5.84892E+16  1.18954E-46
 5.84567E+16  1.25329E-46
 5.84242E+16  1.32046E-46
 5.83918E+16  1.39123E-46
 5.83594E+16  1.46579E-46
 5.83269E+16  1.54434E-46
 5.82945E+16  1.62711E-46
 5.82622E+16  1.71431E-46
 5.82298E+16  1.80619E-46
 5.81975E+16  1.90299E-46
 5.81651E+16  2.00497E-46
 5.81328E+16  2.11243E-46
 5.81006E+16  2.22564E-46
 5.80683E+16  2.34492E-46
 5.80360E+16  2.47059E-46
 5.80038E+16  2.60299E-46
 5.79716E+16  2.74250E-46
 5.79394E+16  2.88948E-46
 5.79072E+16  3.04433E-46
 5.78750E+16  3.20749E-46
 5.78429E+16  3.37939E-46
 5.78108E+16  3.56050E-46
 5.77787E+16  3.75132E-46
 5.77466E+16  3.95236E-46
 5.77145E+16  4.16418E-46
 5.76825E+16  4.38735E-46
 5.76504E+16  4.62248E-46
 5.76184E+16  4.87021E-46
 5.75864E+16  5.13122E-46
 5.75544E+16  5.40622E-46
 5.75224E+16  5.69596E-46
 5.74905E+16  6.00122E-46
 5.74586E+16  6.32285E-46
 5.74267E+16  6.66171E-46
 5.73948E+16  7.01873E-46
 5.73629E+16  7.39488E-46
 5.73310E+16  7.79120E-46
 5.72992E+16  8.20875E-46
 5.72674E+16  8.64869E-46
 5.72356E+16  9.11219E-46
 5.72038E+16  9.60055E-46
 5.71720E+16  1.01151E-45
 5.71402E+16  1.06572E-45
 5.71085E+16  1.12283E-45
 5.70768E+16  1.18301E-45
 5.70451E+16  1.24641E-45
 5.70134E+16  1.31321E-45
 5.69817E+16  1.38359E-45
 5.69501E+16  1.45774E-45
 5.69185E+16  1.53586E-45
 5.68869E+16  1.61817E-45
 5.68553E+16  1.70490E-45
 5.68237E+16  1.79627E-45
 5.67921E+16  1.89253E-45
 5.67606E+16  1.99200E-45
 5.67291E+16  2.09364E-45
 5.66975E+16  2.20070E-45
 5.66661E+16  2.31323E-45
 5.66346E+16  2.43151E-45
 5.66031E+16  2.55584E-45
 5.65717E+16  2.68653E-45
 5.65403E+16  2.82390E-45
 5.65089E+16  2.96830E-45
 5.64775E+16  3.12007E-45
 5.64461E+16  3.27961E-45
 5.64148E+16  3.44731E-45
 5.63834E+16  3.62358E-45
 5.63521E+16  3.80887E-45
 5.63208E+16  4.00363E-45
 5.62895E+16  4.20835E-45
 5.62583E+16  4.42353E-45
 5.62270E+16  4.64972E-45
 5.61958E+16  4.88748E-45
 5.61646E+16  5.13739E-45
 5.61334E+16  5.40008E-45
 5.61022E+16  5.67620E-45
 5.60711E+16  5.96645E-45
 5.60399E+16  6.27153E-45
 5.60088E+16  6.59221E-45
 5.59777E+16  6.92930E-45
 5.59466E+16  7.28361E-45
 5.59155E+16  7.65605E-45
 5.58845E+16  8.04752E-45
 5.58534E+16  8.45902E-45
 5.58224E+16  8.89156E-45
 5.57914E+16  9.34621E-45
 5.57604E+16  9.82411E-45
 5.57295E+16  1.03265E-44
 5.56985E+16  1.08545E-44
 5.56676E+16  1.14095E-44
 5.56367E+16  1.19929E-44
 5.56058E+16  1.26061E-44
 5.55749E+16  1.32507E-44
 5.55440E+16  1.39283E-44
 5.55132E+16  1.46405E-44
 5.54823E+16  1.53891E-44
 5.54515E+16  1.61760E-44
 5.54207E+16  1.70031E-44
 5.53899E+16  1.78725E-44
 5.53592E+16  1.87864E-44
 5.53284E+16  1.97470E-44
 5.52977E+16  2.07568E-44
 5.52670E+16  2.18181E-44
 5.52363E+16  2.29338E-44
 5.52056E+16  2.41064E-44
 5.51749E+16  2.53391E-44
 5.51443E+16  2.66347E-44
 5.51137E+16  2.79967E-44
 5.50831E+16  2.94282E-44
 5.50525E+16  3.09330E-44
 5.50219E+16  3.25147E-44
 5.49913E+16  3.41773E-44
 5.49608E+16  3.59249E-44
 5.49303E+16  3.77618E-44
 5.48998E+16  3.96927E-44
 5.48693E+16  4.17223E-44
 5.48388E+16  4.38557E-44
 5.48083E+16  4.60982E-44
 5.47779E+16  4.84553E-44
 5.47475E+16  5.09330E-44
 5.47171E+16  5.35374E-44
 5.46867E+16  5.62749E-44
 5.46563E+16  5.91524E-44
 5.46259E+16  6.21771E-44
 5.45956E+16  6.53564E-44
 5.45653E+16  6.86983E-44
 5.45350E+16  7.22110E-44
 5.45047E+16  7.59034E-44
 5.44744E+16  7.97846E-44
 5.44442E+16  8.38643E-44
 5.44139E+16  8.81525E-44
 5.43837E+16  9.26600E-44
 5.43535E+16  9.73980E-44
 5.43233E+16  1.02378E-43
 5.42931E+16  1.07613E-43
 5.42630E+16  1.13053E-43
 5.42328E+16  1.18556E-43
 5.42027E+16  1.24329E-43
 5.41726E+16  1.30383E-43
 5.41425E+16  1.36732E-43
 5.41125E+16  1.43390E-43
 5.40824E+16  1.50372E-43
 5.40524E+16  1.57694E-43
 5.40224E+16  1.65373E-43
 5.39923E+16  1.73426E-43
 5.39624E+16  1.81870E-43
 5.39324E+16  1.90726E-43
 5.39024E+16  2.00014E-43
 5.38725E+16  2.09753E-43
 5.38426E+16  2.19967E-43
 5.38127E+16  2.30678E-43
 5.37828E+16  2.41911E-43
 5.37529E+16  2.53690E-43
 5.37231E+16  2.66043E-43
 5.36932E+16  2.78998E-43
 5.36634E+16  2.92584E-43
 5.36336E+16  3.06831E-43
 5.36038E+16  3.21772E-43
 5.35740E+16  3.37440E-43
 5.35443E+16  3.53871E-43
 5.35145E+16  3.71103E-43
 5.34848E+16  3.89173E-43
 5.34551E+16  4.08124E-43
 5.34254E+16  4.27997E-43
 5.33958E+16  4.48838E-43
 5.33661E+16  4.70693E-43
 5.33365E+16  4.93613E-43
 5.33068E+16  5.17649E-43
 5.32772E+16  5.42856E-43
 5.32476E+16  5.69290E-43
 5.32181E+16  5.97011E-43
 5.31885E+16  6.26082E-43
 5.31590E+16  6.56568E-43
 5.31294E+16  6.88539E-43
 5.30999E+16  7.22067E-43
 5.30704E+16  7.57227E-43
 5.30410E+16  7.94099E-43
 5.30115E+16  8.32767E-43
 5.29821E+16  8.73318E-43
 5.29526E+16  9.15844E-43
 5.29232E+16  9.60440E-43
 5.28938E+16  1.00721E-42
 5.28645E+16  1.05625E-42
 5.28351E+16  1.10769E-42
 5.28058E+16  1.16162E-42
 5.27764E+16  1.21819E-42
 5.27471E+16  1.27751E-42
 5.27178E+16  1.33971E-42
 5.26885E+16  1.40495E-42
 5.26593E+16  1.47336E-42
 5.26300E+16  1.54511E-42
 5.26008E+16  1.62034E-42
 5.25716E+16  1.69924E-42
 5.25424E+16  1.78199E-42
 5.25132E+16  1.86876E-42
 5.24840E+16  1.95976E-42
 5.24549E+16  2.05519E-42
 5.24258E+16  2.15526E-42
 5.23966E+16  2.26021E-42
 5.23675E+16  2.37027E-42
 5.23385E+16  2.48569E-42
 5.23094E+16  2.60672E-42
 5.22803E+16  2.73366E-42
 5.22513E+16  2.86677E-42
 5.22223E+16  3.00636E-42
 5.21933E+16  3.15275E-42
 5.21643E+16  3.30627E-42
 5.21353E+16  3.46727E-42
 5.21064E+16  3.63611E-42
 5.20774E+16  3.81316E-42
 5.20485E+16  3.99884E-42
 5.20196E+16  4.19356E-42
 5.19907E+16  4.39776E-42
 5.19618E+16  4.61191E-42
 5.19330E+16  4.83648E-42
 5.19041E+16  5.07199E-42
 5.18753E+16  5.31896E-42
 5.18465E+16  5.57796E-42
 5.18177E+16  5.84958E-42
 5.17889E+16  6.13442E-42
 5.17601E+16  6.43013E-42
 5.17314E+16  6.72790E-42
 5.17027E+16  7.03929E-42
 5.16739E+16  7.36509E-42
 5.16452E+16  7.70596E-42
 5.16166E+16  8.06262E-42
 5.15879E+16  8.43578E-42
 5.15592E+16  8.82621E-42
 5.15306E+16  9.23471E-42
 5.15020E+16  9.66212E-42
 5.14734E+16  1.01093E-41
 5.14448E+16  1.05772E-41
 5.14162E+16  1.10667E-41
 5.13877E+16  1.15789E-41
 5.13591E+16  1.21148E-41
 5.13306E+16  1.26755E-41
 5.13021E+16  1.32622E-41
 5.12736E+16  1.38760E-41
 5.12451E+16  1.45182E-41
 5.12167E+16  1.51902E-41
 5.11882E+16  1.58932E-41
 5.11598E+16  1.66288E-41
 5.11314E+16  1.73984E-41
 5.11030E+16  1.82037E-41
 5.10746E+16  1.90462E-41
 5.10462E+16  1.99277E-41
 5.10179E+16  2.08500E-41
 5.09895E+16  2.18150E-41
 5.09612E+16  2.28247E-41
 5.09329E+16  2.38811E-41
 5.09046E+16  2.49864E-41
 5.08764E+16  2.61428E-41
 5.08481E+16  2.73528E-41
 5.08199E+16  2.86187E-41
 5.07916E+16  2.99433E-41
 5.07634E+16  3.13291E-41
 5.07352E+16  3.27791E-41
 5.07071E+16  3.42962E-41
 5.06789E+16  3.58836E-41
 5.06507E+16  3.75444E-41
 5.06226E+16  3.92820E-41
 5.05945E+16  4.11001E-41
 5.05664E+16  4.30023E-41
 5.05383E+16  4.49926E-41
 5.05102E+16  4.70750E-41
 5.04822E+16  4.92537E-41
 5.04542E+16  5.15333E-41
 5.04261E+16  5.39184E-41
 5.03981E+16  5.64139E-41
 5.03701E+16  5.90249E-41
 5.03422E+16  6.17567E-41
 5.03142E+16  6.46150E-41
 5.02863E+16  6.76056E-41
 5.02583E+16  7.07346E-41
 5.02304E+16  7.40084E-41
 5.02025E+16  7.74337E-41
 5.01746E+16  8.10175E-41
 5.01468E+16  8.47672E-41
 5.01189E+16  8.86905E-41
 5.00911E+16  9.27953E-41
 5.00633E+16  9.70902E-41
 5.00354E+16  1.01584E-40
 5.00077E+16  1.06285E-40
 4.99799E+16  1.11205E-40
 4.99521E+16  1.16351E-40
 4.99244E+16  1.21736E-40
 4.98967E+16  1.27371E-40
 4.98689E+16  1.33266E-40
 4.98412E+16  1.39434E-40
 4.98136E+16  1.45887E-40
 4.97859E+16  1.52639E-40
 4.97582E+16  1.59704E-40
 4.97306E+16  1.67095E-40
 4.97030E+16  1.74829E-40
 4.96754E+16  1.82920E-40
 4.96478E+16  1.91387E-40
 4.96202E+16  2.00244E-40
 4.95927E+16  2.09512E-40
 4.95651E+16  2.19209E-40
 4.95376E+16  2.29355E-40
 4.95101E+16  2.39970E-40
 4.94826E+16  2.51076E-40
 4.94551E+16  2.62697E-40
 4.94276E+16  2.74855E-40
 4.94002E+16  2.87576E-40
 4.93727E+16  3.00886E-40
 4.93453E+16  3.14812E-40
 4.93179E+16  3.29382E-40
 4.92905E+16  3.44627E-40
 4.92631E+16  3.60535E-40
 4.92358E+16  3.76483E-40
 4.92084E+16  3.93016E-40
 4.91811E+16  4.10275E-40
 4.91538E+16  4.28292E-40
 4.91265E+16  4.47100E-40
 4.90992E+16  4.66735E-40
 4.90719E+16  4.87231E-40
 4.90447E+16  5.08628E-40
 4.90174E+16  5.30964E-40
 4.89902E+16  5.54281E-40
 4.89630E+16  5.78622E-40
 4.89358E+16  6.04031E-40
 4.89086E+16  6.30557E-40
 4.88815E+16  6.58248E-40
 4.88543E+16  6.87154E-40
 4.88272E+16  7.17330E-40
 4.88001E+16  7.48832E-40
 4.87730E+16  7.81716E-40
 4.87459E+16  8.16045E-40
 4.87188E+16  8.51881E-40
 4.86918E+16  8.89291E-40
 4.86647E+16  9.28344E-40
 4.86377E+16  9.69112E-40
 4.86107E+16  1.01167E-39
 4.85837E+16  1.05610E-39
 4.85567E+16  1.10247E-39
 4.85297E+16  1.15089E-39
 4.85028E+16  1.20143E-39
 4.84758E+16  1.25419E-39
 4.84489E+16  1.30927E-39
 4.84220E+16  1.36676E-39
 4.83951E+16  1.42678E-39
 4.83682E+16  1.48944E-39
 4.83414E+16  1.55485E-39
 4.83145E+16  1.62313E-39
 4.82877E+16  1.69441E-39
 4.82609E+16  1.76882E-39
 4.82341E+16  1.84649E-39
 4.82073E+16  1.92758E-39
 4.81805E+16  2.01223E-39
 4.81537E+16  2.10060E-39
 4.81270E+16  2.19284E-39
 4.81003E+16  2.28914E-39
 4.80735E+16  2.38967E-39
 4.80468E+16  2.49461E-39
 4.80202E+16  2.60416E-39
 4.79935E+16  2.71852E-39
 4.79668E+16  2.83790E-39
 4.79402E+16  2.96252E-39
 4.79136E+16  3.09262E-39
 4.78870E+16  3.22843E-39
 4.78604E+16  3.37021E-39
 4.78338E+16  3.51821E-39
 4.78072E+16  3.67271E-39
 4.77807E+16  3.83399E-39
 4.77541E+16  4.00236E-39
 4.77276E+16  4.17812E-39
 4.77011E+16  4.36160E-39
 4.76746E+16  4.55314E-39
 4.76481E+16  4.75309E-39
 4.76217E+16  4.96182E-39
 4.75952E+16  5.17972E-39
 4.75688E+16  5.40718E-39
 4.75424E+16  5.64463E-39
 4.75159E+16  5.89252E-39
 4.74896E+16  6.15128E-39
 4.74632E+16  6.42141E-39
 4.74368E+16  6.70341E-39
 4.74105E+16  6.99778E-39
 4.73841E+16  7.30509E-39
 4.73578E+16  7.62589E-39
 4.73315E+16  7.96077E-39
 4.73052E+16  8.31037E-39
 4.72790E+16  8.67531E-39
 4.72527E+16  9.05628E-39
 4.72265E+16  9.45399E-39
 4.72002E+16  9.86915E-39
 4.71740E+16  1.03026E-38
 4.71478E+16  1.07550E-38
 4.71216E+16  1.12273E-38
 4.70955E+16  1.17203E-38
 4.70693E+16  1.22350E-38
 4.70432E+16  1.27723E-38
 4.70170E+16  1.33332E-38
 4.69909E+16  1.39187E-38
 4.69648E+16  1.45300E-38
 4.69387E+16  1.51680E-38
 4.69127E+16  1.58341E-38
 4.68866E+16  1.65295E-38
 4.68606E+16  1.72554E-38
 4.68345E+16  1.80131E-38
 4.68085E+16  1.88042E-38
 4.67825E+16  1.96299E-38
 4.67566E+16  2.04882E-38
 4.67306E+16  2.13453E-38
 4.67046E+16  2.22334E-38
 4.66787E+16  2.31583E-38
 4.66528E+16  2.41218E-38
 4.66269E+16  2.51253E-38
 4.66010E+16  2.61705E-38
 4.65751E+16  2.72593E-38
 4.65492E+16  2.83933E-38
 4.65234E+16  2.95746E-38
 4.64975E+16  3.08049E-38
 4.64717E+16  3.20865E-38
 4.64459E+16  3.34214E-38
 4.64201E+16  3.48118E-38
 4.63943E+16  3.62600E-38
 4.63685E+16  3.77685E-38
 4.63428E+16  3.93398E-38
 4.63170E+16  4.09764E-38
 4.62913E+16  4.26811E-38
 4.62656E+16  4.44567E-38
 4.62399E+16  4.63062E-38
 4.62142E+16  4.82327E-38
 4.61886E+16  5.02393E-38
 4.61629E+16  5.23293E-38
 4.61373E+16  5.45064E-38
 4.61116E+16  5.67739E-38
 4.60860E+16  5.91359E-38
 4.60604E+16  6.15961E-38
 4.60349E+16  6.41586E-38
 4.60093E+16  6.68277E-38
 4.59837E+16  6.96079E-38
 4.59582E+16  7.25038E-38
 4.59327E+16  7.55201E-38
 4.59072E+16  7.86619E-38
 4.58817E+16  8.19344E-38
 4.58562E+16  8.53431E-38
 4.58307E+16  8.88935E-38
 4.58053E+16  9.25917E-38
 4.57798E+16  9.64437E-38
 4.57544E+16  1.00456E-37
 4.57290E+16  1.04635E-37
 4.57036E+16  1.08988E-37
 4.56782E+16  1.13522E-37
 4.56528E+16  1.18245E-37
 4.56275E+16  1.23164E-37
 4.56021E+16  1.28288E-37
 4.55768E+16  1.33625E-37
 4.55515E+16  1.39185E-37
 4.55262E+16  1.44975E-37
 4.55009E+16  1.51006E-37
 4.54756E+16  1.57288E-37
 4.54504E+16  1.63832E-37
 4.54251E+16  1.70648E-37
 4.53999E+16  1.77747E-37
 4.53747E+16  1.85142E-37
 4.53495E+16  1.92844E-37
 4.53243E+16  2.00867E-37
 4.52991E+16  2.09223E-37
 4.52740E+16  2.17928E-37
 4.52488E+16  2.26994E-37
 4.52237E+16  2.36437E-37
 4.51986E+16  2.46274E-37
 4.51735E+16  2.56519E-37
 4.51484E+16  2.67191E-37
 4.51233E+16  2.78307E-37
 4.50983E+16  2.89885E-37
 4.50732E+16  3.01945E-37
 4.50482E+16  3.14506E-37
 4.50232E+16  3.27591E-37
 4.49981E+16  3.41219E-37
 4.49732E+16  3.55414E-37
 4.49482E+16  3.70201E-37
 4.49232E+16  3.85602E-37
 4.48983E+16  4.01644E-37
 4.48733E+16  4.18353E-37
 4.48484E+16  4.35757E-37
 4.48235E+16  4.53886E-37
 4.47986E+16  4.72768E-37
 4.47737E+16  4.92437E-37
 4.47489E+16  5.12923E-37
 4.47240E+16  5.34262E-37
 4.46992E+16  5.56488E-37
 4.46743E+16  5.79640E-37
 4.46495E+16  6.03754E-37
 4.46247E+16  6.28872E-37
 4.45999E+16  6.55034E-37
 4.45752E+16  6.82285E-37
 4.45504E+16  7.10669E-37
 4.45257E+16  7.40235E-37
 4.45009E+16  7.71030E-37
 4.44762E+16  8.03107E-37
 4.44515E+16  8.36518E-37
 4.44268E+16  8.71319E-37
 4.44022E+16  9.07568E-37
 4.43775E+16  9.45325E-37
 4.43528E+16  9.84652E-37
 4.43282E+16  1.02562E-36
 4.43036E+16  1.06828E-36
 4.42790E+16  1.11273E-36
 4.42544E+16  1.15892E-36
 4.42298E+16  1.20497E-36
 4.42053E+16  1.25239E-36
 4.41807E+16  1.30169E-36
 4.41562E+16  1.35292E-36
 4.41316E+16  1.40618E-36
 4.41071E+16  1.46152E-36
 4.40826E+16  1.51905E-36
 4.40581E+16  1.57884E-36
 4.40337E+16  1.64098E-36
 4.40092E+16  1.70557E-36
 4.39848E+16  1.77270E-36
 4.39604E+16  1.84248E-36
 4.39359E+16  1.91500E-36
 4.39115E+16  1.99037E-36
 4.38871E+16  2.06872E-36
 4.38628E+16  2.15014E-36
 4.38384E+16  2.23477E-36
 4.38141E+16  2.32273E-36
 4.37897E+16  2.41416E-36
 4.37654E+16  2.50918E-36
 4.37411E+16  2.60794E-36
 4.37168E+16  2.71059E-36
