 Castelli and Kurucz 2004-2012 Atmosphere
 T     40000.     G    4.50000 [+0.2] N(He)/Ntot=0.07828 VTURB=2.0  L/H=1.25 NO
 Wavelength  Eddington Hnu
   (nm)    (ergs/s/cm2/Hz/sr)
  9.0900      2.91380E-25
  9.3500      1.10230E-24
  9.6100      3.84260E-24
  9.7700      8.17510E-24
  9.9600      1.91800E-23
  10.200      5.39020E-23
  10.380      1.13620E-22
  10.560      2.33690E-22
  10.770      5.26290E-22
  11.040      1.43050E-21
  11.400      5.05440E-21
  11.780      1.77020E-20
  12.130      5.26880E-20
  12.480      1.47820E-19
  12.710      2.82950E-19
  12.840      4.04440E-19
  13.050      7.09350E-19
  13.240      1.16340E-18
  13.390      1.70720E-18
  13.660      3.31930E-18
  13.980      7.16840E-18
  14.330      1.59240E-17
  14.720      3.66240E-17
  15.100      8.28290E-17
  15.520      1.91160E-16
  15.880      3.79820E-16
  16.200      6.83120E-16
  16.600      1.39860E-15
  17.030      2.87960E-15
  17.340      4.77090E-15
  17.680      8.22680E-15
  18.020      1.38150E-14
  18.170      1.71590E-14
  18.610      3.27830E-14
  19.100      6.47040E-14
  19.390      9.57530E-14
  19.840      1.71150E-13
  20.180      2.59270E-13
  20.500      3.82990E-13
  21.050      7.24320E-13
  21.620      1.34610E-12
  21.980      1.98560E-12
  22.300      2.74740E-12
  22.680      4.03810E-12
  23.000      2.41790E-09
  23.400      7.15480E-09
  24.000      1.02530E-08
  24.650      1.57060E-08
  25.240      2.84260E-08
  25.680      4.06950E-08
  26.000      5.31120E-08
  26.400      1.69450E-07
  26.850      2.43460E-07
  27.350      3.12570E-07
  27.850      2.54810E-07
  28.400      6.05940E-07
  29.000      9.31800E-07
  29.600      8.49540E-07
  30.100      1.83870E-06
  30.800      9.61940E-06
  31.800      4.32430E-06
  32.800      8.15800E-06
  33.800      8.49030E-06
  34.800      1.07880E-05
  35.700      2.97370E-05
  36.600      7.13250E-05
  37.500      1.00380E-04
  38.500      9.89520E-05
  39.500      1.85880E-04
  40.500      3.16690E-04
  41.400      3.01450E-04
  42.200      3.03040E-04
  43.000      2.88660E-04
  44.100      3.66350E-04
  45.100      3.94290E-04
  46.000      3.29520E-04
  47.000      3.76780E-04
  48.000      4.61600E-04
  49.000      3.32130E-04
  50.000      5.13990E-04
  50.600      3.97330E-04
  51.200      7.89130E-04
  52.000      7.48210E-04
  53.000      6.90980E-04
  54.000      6.11250E-04
  55.000      5.57860E-04
  56.000      8.00600E-04
  57.000      9.80160E-04
  58.000      9.68370E-04
  59.000      1.00640E-03
  60.000      7.92040E-04
  61.000      8.08990E-04
  62.000      1.10630E-03
  63.000      1.05260E-03
  64.000      1.20440E-03
  65.000      1.14660E-03
  65.800      9.78670E-04
  66.500      1.21150E-03
  67.500      1.34060E-03
  68.500      1.11960E-03
  69.500      1.36150E-03
  70.500      1.10660E-03
  71.600      1.45590E-03
  72.600      1.49080E-03
  73.500      1.52590E-03
  74.500      1.44040E-03
  75.500      1.45060E-03
  76.500      1.33770E-03
  77.500      1.49180E-03
  78.500      1.35360E-03
  79.500      1.53110E-03
  80.500      1.54960E-03
  81.500      1.57610E-03
  82.500      1.62210E-03
  83.500      1.37610E-03
  84.500      1.61150E-03
  85.500      1.56890E-03
  86.500      1.66690E-03
  87.500      1.68910E-03
  88.500      1.68720E-03
  89.500      1.69740E-03
  90.500      1.67100E-03
  91.500      1.35720E-03
  92.500      2.34750E-03
  93.500      3.28510E-03
  94.500      3.78590E-03
  95.500      4.25320E-03
  96.500      4.65850E-03
  97.500      3.32390E-03
  98.500      4.20350E-03
  99.500      3.78120E-03
  100.50      3.83920E-03
  101.50      4.07560E-03
  102.50      3.72040E-03
  103.50      4.31290E-03
  104.50      4.58550E-03
  105.50      4.50660E-03
  106.50      4.28450E-03
  107.50      4.37320E-03
  108.50      4.10310E-03
  109.50      4.31750E-03
  110.50      4.24220E-03
  111.50      4.23410E-03
  112.50      4.01290E-03
  113.50      4.24820E-03
  114.50      4.28830E-03
  115.50      4.04270E-03
  116.50      3.90070E-03
  117.50      3.28430E-03
  118.50      3.77700E-03
  119.50      3.64790E-03
  120.50      3.63750E-03
  121.50      3.13370E-03
  122.50      3.52800E-03
  123.50      3.62410E-03
  124.50      3.58100E-03
  125.50      3.64260E-03
  126.50      3.73810E-03
  127.50      3.84400E-03
  128.50      3.85410E-03
  129.50      3.84270E-03
  130.50      3.76280E-03
  131.50      3.84530E-03
  132.50      3.81550E-03
  133.50      3.77800E-03
  134.50      3.79290E-03
  135.50      3.67510E-03
  136.50      3.59480E-03
  137.50      3.49620E-03
  138.50      3.51330E-03
  139.50      3.35360E-03
  140.50      3.23620E-03
  141.50      3.58350E-03
  142.50      3.29280E-03
  143.50      3.49620E-03
  144.20      3.37810E-03
  144.70      3.40290E-03
  145.50      3.30610E-03
  146.50      3.32830E-03
  147.50      3.34710E-03
  148.50      3.40500E-03
  149.50      3.33650E-03
  150.50      3.35730E-03
  151.20      3.35840E-03
  151.70      3.32710E-03
  152.50      3.30220E-03
  153.50      3.03790E-03
  154.50      2.50840E-03
  155.50      2.61030E-03
  156.50      2.93670E-03
  157.50      3.06200E-03
  158.50      3.05200E-03
  159.50      3.08930E-03
  160.50      2.94580E-03
  161.50      2.87900E-03
  162.50      2.94810E-03
  163.50      2.96340E-03
  164.50      2.90800E-03
  165.50      3.00900E-03
  166.50      2.97860E-03
  167.20      2.81470E-03
  167.70      3.13510E-03
  168.50      3.07320E-03
  169.50      3.04750E-03
  170.50      3.00380E-03
  171.50      2.89320E-03
  172.50      2.87240E-03
  173.50      2.98200E-03
  174.50      2.97780E-03
  175.50      2.93760E-03
  176.50      2.92380E-03
  177.50      2.87620E-03
  178.50      2.91940E-03
  179.50      2.85770E-03
  180.50      2.85240E-03
  181.50      2.82930E-03
  182.50      2.79490E-03
  183.50      2.81170E-03
  184.50      2.80830E-03
  185.50      2.80940E-03
  186.50      2.80630E-03
  187.50      2.75200E-03
  188.50      2.72590E-03
  189.50      2.76830E-03
  190.50      2.76430E-03
  191.50      2.74590E-03
  192.50      2.63530E-03
  193.50      2.73040E-03
  194.50      2.72510E-03
  195.50      2.62140E-03
  196.70      2.67120E-03
  197.60      2.66000E-03
  198.40      2.66440E-03
  199.50      2.63450E-03
  200.50      2.64790E-03
  201.50      2.63000E-03
  202.50      2.61490E-03
  203.50      2.58560E-03
  204.50      2.55660E-03
  205.50      1.91680E-03
  206.50      1.85340E-03
  207.40      1.92410E-03
  207.80      1.97560E-03
  208.50      2.15340E-03
  209.50      2.40100E-03
  210.50      2.44910E-03
  211.50      2.47620E-03
  212.50      2.44100E-03
  213.50      2.44660E-03
  214.50      2.43030E-03
  215.50      2.44810E-03
  216.50      2.32720E-03
  217.50      2.43450E-03
  218.50      2.34360E-03
  219.50      2.42180E-03
  220.50      2.40500E-03
  221.50      2.30270E-03
  222.50      2.37270E-03
  223.50      2.36170E-03
  224.50      2.33740E-03
  225.50      2.25800E-03
  226.50      2.31400E-03
  227.50      2.31210E-03
  228.50      2.27220E-03
  229.50      2.19790E-03
  230.50      2.18640E-03
  231.50      2.21980E-03
  232.50      2.23110E-03
  233.50      2.21870E-03
  234.50      2.19130E-03
  235.50      2.16440E-03
  236.50      2.14640E-03
  237.50      2.11640E-03
  238.50      2.02220E-03
  239.50      2.07840E-03
  240.50      2.07790E-03
  241.50      2.07450E-03
  242.50      2.08360E-03
  243.50      2.06380E-03
  244.50      2.05430E-03
  245.50      2.03340E-03
  246.50      2.02800E-03
  247.50      2.02890E-03
  248.50      1.99220E-03
  249.50      1.71070E-03
  250.50      1.96130E-03
  251.30      1.84810E-03
  251.80      1.92090E-03
  252.50      1.94480E-03
  253.50      1.95390E-03
  254.50      1.94640E-03
  255.50      1.93130E-03
  256.50      1.92230E-03
  257.50      1.90880E-03
  258.50      1.89980E-03
  259.50      1.86000E-03
  260.50      1.88000E-03
  261.50      1.85190E-03
  262.50      1.85980E-03
  263.50      1.85380E-03
  264.50      1.83310E-03
  265.50      1.83060E-03
  266.50      1.81650E-03
  267.50      1.78220E-03
  268.50      1.79270E-03
  269.50      1.77840E-03
  270.50      1.78400E-03
  271.50      1.76700E-03
  272.50      1.75890E-03
  273.50      1.70150E-03
  274.50      1.74590E-03
  275.50      1.73160E-03
  276.50      1.72160E-03
  277.50      1.71330E-03
  278.50      1.69280E-03
  279.50      1.67240E-03
  280.50      1.68000E-03
  281.50      1.67390E-03
  282.50      1.66200E-03
  283.50      1.65620E-03
  284.50      1.65240E-03
  285.50      1.64180E-03
  286.50      1.62310E-03
  287.50      1.61600E-03
  288.50      1.61290E-03
  289.50      1.60330E-03
  291.00      1.58840E-03
  293.00      1.57740E-03
  295.00      1.55960E-03
  297.00      1.53910E-03
  299.00      1.51390E-03
  301.00      1.49850E-03
  303.00      1.47340E-03
  305.00      1.46770E-03
  307.00      1.45080E-03
  309.00      1.44340E-03
  311.00      1.43160E-03
  313.00      1.41560E-03
  315.00      1.40680E-03
  317.00      1.39050E-03
  319.00      1.37940E-03
  321.00      1.34200E-03
  323.00      1.35260E-03
  325.00      1.34170E-03
  327.00      1.31470E-03
  329.00      1.31130E-03
  331.00      1.29690E-03
  333.00      1.28390E-03
  335.00      1.26220E-03
  337.00      1.25690E-03
  339.00      1.24800E-03
  341.00      1.23510E-03
  343.00      1.22890E-03
  345.00      1.20870E-03
  347.00      1.20500E-03
  349.00      1.19490E-03
  351.00      1.18580E-03
  353.00      1.17200E-03
  355.00      1.16150E-03
  357.00      1.15230E-03
  359.00      1.14120E-03
  361.00      1.12790E-03
  363.00      1.11810E-03
  364.00      1.09410E-03
  365.00      9.93450E-04
  367.00      9.86230E-04
  369.00      9.80370E-04
  371.00      9.75710E-04
  373.00      9.87890E-04
  375.00      1.00410E-03
  377.00      1.01450E-03
  379.00      1.03990E-03
  381.00      1.05790E-03
  383.00      1.00570E-03
  385.00      1.05990E-03
  387.00      1.05400E-03
  389.00      9.71350E-04
  391.00      1.05130E-03
  393.00      1.03090E-03
  395.00      1.02570E-03
  397.00      9.32140E-04
  399.00      1.01540E-03
  401.00      1.00710E-03
  403.00      9.81350E-04
  405.00      9.93940E-04
  407.00      9.79100E-04
  409.00      9.44960E-04
  411.00      8.93880E-04
  413.00      9.54480E-04
  415.00      9.49050E-04
  417.00      9.45580E-04
  419.00      9.34230E-04
  421.00      9.16120E-04
  423.00      9.25040E-04
  425.00      9.15660E-04
  427.00      9.08350E-04
  429.00      9.01160E-04
  431.00      8.89870E-04
  433.00      8.55650E-04
  435.00      8.19920E-04
  437.00      8.68770E-04
  439.00      8.56780E-04
  441.00      8.51300E-04
  443.00      8.50070E-04
  445.00      8.42510E-04
  447.00      8.30040E-04
  449.00      8.30980E-04
  451.00      8.18420E-04
  453.00      8.13230E-04
  455.00      7.94300E-04
  457.00      8.04370E-04
  459.00      7.96970E-04
  461.00      7.93070E-04
  463.00      7.82210E-04
  465.00      7.58380E-04
  467.00      7.72350E-04
  469.00      7.44990E-04
  471.00      7.63200E-04
  473.00      7.62580E-04
  475.00      7.57180E-04
  477.00      7.51520E-04
  479.00      7.45570E-04
  481.00      7.40240E-04
  483.00      7.33920E-04
  485.00      7.12850E-04
  487.00      6.70050E-04
  489.00      7.16800E-04
  491.00      7.12670E-04
  493.00      7.04420E-04
  495.00      7.02990E-04
  497.00      6.98900E-04
  499.00      6.94300E-04
  501.00      6.85360E-04
  503.00      6.83080E-04
  505.00      6.78150E-04
  507.00      6.74660E-04
  509.00      6.70130E-04
  511.00      6.65520E-04
  513.00      6.60550E-04
  515.00      6.56010E-04
  517.00      6.51640E-04
  519.00      6.47240E-04
  521.00      6.42750E-04
  523.00      6.38720E-04
  525.00      6.32860E-04
  527.00      6.28350E-04
  529.00      6.25810E-04
  531.00      6.21540E-04
  533.00      6.17250E-04
  535.00      6.13370E-04
  537.00      6.09210E-04
  539.00      6.05090E-04
  541.00      5.89460E-04
  543.00      5.97230E-04
  545.00      5.93380E-04
  547.00      5.89250E-04
  549.00      5.85610E-04
  551.00      5.81000E-04
  553.00      5.78040E-04
  555.00      5.74340E-04
  557.00      5.70070E-04
  559.00      5.64740E-04
  561.00      5.63370E-04
  563.00      5.59730E-04
  565.00      5.56150E-04
  567.00      5.52550E-04
  569.00      5.39820E-04
  571.00      5.08170E-04
  573.00      5.05230E-04
  575.00      5.02170E-04
  577.00      4.99600E-04
  579.00      4.97030E-04
  581.00      4.92200E-04
  583.00      4.92940E-04
  585.00      4.92940E-04
  587.00      4.87660E-04
  589.00      4.92250E-04
  591.00      4.92480E-04
  593.00      4.93020E-04
  595.00      4.94140E-04
  597.00      4.95300E-04
  599.00      4.96480E-04
  601.00      4.95430E-04
  603.00      4.93220E-04
  605.00      4.91510E-04
  607.00      4.88340E-04
  609.00      4.86240E-04
  611.00      4.82660E-04
  613.00      4.79920E-04
  615.00      4.77680E-04
  617.00      4.73320E-04
  619.00      4.72430E-04
  621.00      4.69940E-04
  623.00      4.65020E-04
  625.00      4.63950E-04
  627.00      4.61700E-04
  629.00      4.59050E-04
  631.00      4.53430E-04
  633.00      4.53570E-04
  635.00      4.51090E-04
  637.00      4.48630E-04
  639.00      4.45750E-04
  641.00      4.39910E-04
  643.00      4.41020E-04
  645.00      4.38100E-04
  647.00      4.35520E-04
  649.00      4.33370E-04
  651.00      4.30420E-04
  653.00      4.23800E-04
  655.00      4.20270E-04
  657.00      3.91170E-04
  659.00      4.20520E-04
  661.00      4.19270E-04
  663.00      4.17000E-04
  665.00      4.14680E-04
  667.00      4.09500E-04
  669.00      4.03430E-04
  671.00      4.07080E-04
  673.00      4.05050E-04
  675.00      4.02860E-04
  677.00      4.01140E-04
  679.00      3.99140E-04
  681.00      3.96990E-04
  683.00      3.94860E-04
  685.00      3.92660E-04
  687.00      3.90400E-04
  689.00      3.82880E-04
  691.00      3.86100E-04
  693.00      3.84450E-04
  695.00      3.82390E-04
  697.00      3.80400E-04
  699.00      3.78360E-04
  701.00      3.76110E-04
  703.00      3.73630E-04
  705.00      3.72060E-04
  707.00      3.67960E-04
  709.00      3.68600E-04
  711.00      3.66560E-04
  713.00      3.64660E-04
  715.00      3.62920E-04
  717.00      3.57370E-04
  719.00      3.57110E-04
  721.00      3.57350E-04
  723.00      3.55420E-04
  725.00      3.53680E-04
  727.00      3.51910E-04
  729.00      3.49250E-04
  731.00      3.48040E-04
  733.00      3.46600E-04
  735.00      3.44860E-04
  737.00      3.42960E-04
  739.00      3.41320E-04
  741.00      3.39530E-04
  743.00      3.38010E-04
  745.00      3.35930E-04
  747.00      3.34510E-04
  749.00      3.32030E-04
  751.00      3.31160E-04
  753.00      3.29670E-04
  755.00      3.27980E-04
  757.00      3.26310E-04
  759.00      3.19390E-04
  761.00      3.22640E-04
  763.00      3.21550E-04
  765.00      3.20060E-04
  767.00      3.18580E-04
  769.00      3.16390E-04
  771.00      3.15200E-04
  773.00      3.13230E-04
  775.00      3.12200E-04
  777.00      3.11050E-04
  779.00      3.09390E-04
  781.00      3.08060E-04
  783.00      3.06560E-04
  785.00      3.04430E-04
  787.00      3.03430E-04
  789.00      3.02180E-04
  791.00      3.00910E-04
  793.00      2.99530E-04
  795.00      2.98120E-04
  797.00      2.96390E-04
  799.00      2.95320E-04
  801.00      2.93960E-04
  803.00      2.92350E-04
  805.00      2.91260E-04
  807.00      2.89910E-04
  809.00      2.88580E-04
  811.00      2.87190E-04
  813.00      2.85930E-04
  815.00      2.84600E-04
  817.00      2.83020E-04
  819.00      2.80710E-04
  821.00      2.68970E-04
  823.00      2.65970E-04
  825.00      2.66310E-04
  827.00      2.65390E-04
  829.00      2.64420E-04
  831.00      2.63380E-04
  833.00      2.61730E-04
  835.00      2.60650E-04
  837.00      2.59940E-04
  839.00      2.59060E-04
  841.00      2.58120E-04
  843.00      2.57210E-04
  845.00      2.56130E-04
  847.00      2.55440E-04
  849.00      2.54700E-04
  851.00      2.53330E-04
  853.00      2.53290E-04
  855.00      2.52140E-04
  857.00      2.52110E-04
  859.00      2.50440E-04
  861.00      2.49990E-04
  863.00      2.50720E-04
  865.00      2.49280E-04
  867.00      2.45890E-04
  869.00      2.49050E-04
  871.00      2.49160E-04
  873.00      2.47610E-04
  875.00      2.40970E-04
  877.00      2.45530E-04
  879.00      2.47370E-04
  881.00      2.47070E-04
  883.00      2.46130E-04
  885.00      2.40750E-04
  887.00      2.33370E-04
  889.00      2.42330E-04
  891.00      2.42800E-04
  893.00      2.41760E-04
  895.00      2.41000E-04
  897.00      2.40030E-04
  899.00      2.37380E-04
  901.00      2.25380E-04
  903.00      2.30040E-04
  905.00      2.35430E-04
  907.00      2.34830E-04
  909.00      2.34410E-04
  911.00      2.33130E-04
  913.00      2.32760E-04
  915.00      2.31920E-04
  917.00      2.30620E-04
  919.00      2.29210E-04
  921.00      2.25080E-04
  923.00      2.11210E-04
  925.00      2.22820E-04
  927.00      2.25360E-04
  929.00      2.25100E-04
  931.00      2.24160E-04
  933.00      2.23190E-04
  935.00      2.17600E-04
  937.00      2.20430E-04
  939.00      2.20650E-04
  941.00      2.19590E-04
  943.00      2.18860E-04
  945.00      2.18080E-04
  947.00      2.16990E-04
  949.00      2.16210E-04
  951.00      2.14140E-04
  953.00      2.09860E-04
  955.00      1.96770E-04
  957.00      2.09870E-04
  959.00      2.11470E-04
  961.00      2.11080E-04
  963.00      2.10120E-04
  965.00      2.09630E-04
  967.00      2.08860E-04
  969.00      2.08020E-04
  971.00      2.04740E-04
  973.00      2.06020E-04
  975.00      2.05300E-04
  977.00      2.03480E-04
  979.00      2.04000E-04
  981.00      2.03210E-04
  983.00      2.02330E-04
  985.00      2.01640E-04
  987.00      2.00880E-04
  989.00      2.00070E-04
  991.00      1.99230E-04
  993.00      1.98580E-04
  995.00      1.97830E-04
  997.00      1.97060E-04
  999.00      1.96300E-04
  1002.5      1.90870E-04
  1007.5      1.87160E-04
  1012.5      1.87880E-04
  1017.5      1.89580E-04
  1022.5      1.87780E-04
  1027.5      1.85960E-04
  1032.5      1.84010E-04
  1037.5      1.82660E-04
  1042.5      1.80100E-04
  1047.5      1.79360E-04
  1052.5      1.77730E-04
  1057.5      1.76130E-04
  1062.5      1.74560E-04
  1067.5      1.72950E-04
  1072.5      1.71460E-04
  1077.5      1.69950E-04
  1082.5      1.67620E-04
  1087.5      1.66800E-04
  1092.5      1.58080E-04
  1097.5      1.62300E-04
  1102.5      1.62480E-04
  1107.5      1.61240E-04
  1112.5      1.59860E-04
  1117.5      1.58590E-04
  1122.5      1.57200E-04
  1127.5      1.55870E-04
  1132.5      1.54540E-04
  1137.5      1.53260E-04
  1142.5      1.51990E-04
  1147.5      1.50730E-04
  1152.5      1.49480E-04
  1157.5      1.48180E-04
  1162.5      1.45460E-04
  1167.5      1.44710E-04
  1172.5      1.44610E-04
  1177.5      1.43450E-04
  1182.5      1.42220E-04
  1187.5      1.41110E-04
  1192.5      1.39980E-04
  1197.5      1.38240E-04
  1202.5      1.37770E-04
  1207.5      1.36650E-04
  1212.5      1.35520E-04
  1217.5      1.34520E-04
  1222.5      1.33450E-04
  1227.5      1.32420E-04
  1232.5      1.31380E-04
  1237.5      1.30360E-04
  1242.5      1.29360E-04
  1247.5      1.28360E-04
  1252.5      1.27300E-04
  1257.5      1.26370E-04
  1262.5      1.25430E-04
  1267.5      1.24480E-04
  1272.5      1.23530E-04
  1277.5      1.21630E-04
  1282.5      1.15810E-04
  1287.5      1.20490E-04
  1292.5      1.19880E-04
  1297.5      1.18800E-04
  1302.5      1.18090E-04
  1307.5      1.17240E-04
  1312.5      1.16370E-04
  1317.5      1.15520E-04
  1322.5      1.14680E-04
  1327.5      1.13850E-04
  1332.5      1.13020E-04
  1337.5      1.12200E-04
  1342.5      1.11380E-04
  1347.5      1.10590E-04
  1352.5      1.09800E-04
  1357.5      1.09030E-04
  1362.5      1.08250E-04
  1367.5      1.07490E-04
  1372.5      1.06710E-04
  1377.5      1.05980E-04
  1382.5      1.05240E-04
  1387.5      1.04510E-04
  1392.5      1.03770E-04
  1397.5      1.03060E-04
