 Castelli and Kurucz 2004-2012 Atmosphere
 T     40000.     G    5.00000 [+0.2] N(He)/Ntot=0.07828 VTURB=2.0  L/H=1.25 NO
 Wavelength  Eddington Hnu
   (nm)    (ergs/s/cm2/Hz/sr)
  9.0900      8.16150E-25
  9.3500      3.01820E-24
  9.6100      1.03320E-23
  9.7700      2.17050E-23
  9.9600      5.03260E-23
  10.200      1.39570E-22
  10.380      2.91560E-22
  10.560      5.94830E-22
  10.770      1.32820E-21
  11.040      3.57510E-21
  11.400      1.24900E-20
  11.780      4.32970E-20
  12.130      1.27680E-19
  12.480      3.55100E-19
  12.710      6.75820E-19
  12.840      9.62830E-19
  13.050      1.67980E-18
  13.240      2.74190E-18
  13.390      4.00580E-18
  13.660      7.73480E-18
  13.980      1.65180E-17
  14.330      3.62930E-17
  14.720      8.25440E-17
  15.100      1.83300E-16
  15.520      4.16130E-16
  15.880      8.14250E-16
  16.200      1.44040E-15
  16.600      2.89390E-15
  17.030      5.85320E-15
  17.340      9.57980E-15
  17.680      1.62400E-14
  18.020      2.68620E-14
  18.170      3.33120E-14
  18.610      6.21790E-14
  19.100      1.20250E-13
  19.390      1.75670E-13
  19.840      3.08740E-13
  20.180      4.62850E-13
  20.500      6.73700E-13
  21.050      1.24970E-12
  21.620      2.27910E-12
  21.980      3.32340E-12
  22.300      4.56030E-12
  22.680      6.63010E-12
  23.000      2.56020E-09
  23.400      7.64150E-09
  24.000      1.11050E-08
  24.650      1.63820E-08
  25.240      2.73720E-08
  25.680      3.83250E-08
  26.000      5.00600E-08
  26.400      1.16100E-07
  26.850      1.73640E-07
  27.350      2.16360E-07
  27.850      2.07380E-07
  28.400      4.22590E-07
  29.000      5.87720E-07
  29.600      6.20950E-07
  30.100      1.27900E-06
  30.800      7.54270E-06
  31.800      4.43360E-06
  32.800      7.71370E-06
  33.800      8.89790E-06
  34.800      1.15870E-05
  35.700      2.92410E-05
  36.600      6.41340E-05
  37.500      8.64390E-05
  38.500      9.01090E-05
  39.500      1.56560E-04
  40.500      2.38220E-04
  41.400      2.25720E-04
  42.200      2.30420E-04
  43.000      2.19460E-04
  44.100      2.65460E-04
  45.100      2.86580E-04
  46.000      2.46050E-04
  47.000      2.71890E-04
  48.000      3.23660E-04
  49.000      2.55890E-04
  50.000      3.45090E-04
  50.600      3.03670E-04
  51.200      7.35660E-04
  52.000      6.96970E-04
  53.000      6.45000E-04
  54.000      5.82390E-04
  55.000      5.76230E-04
  56.000      7.97790E-04
  57.000      9.06190E-04
  58.000      8.88040E-04
  59.000      9.26470E-04
  60.000      7.54480E-04
  61.000      8.15360E-04
  62.000      1.04720E-03
  63.000      1.01300E-03
  64.000      1.11230E-03
  65.000      1.07240E-03
  65.800      9.30080E-04
  66.500      1.11670E-03
  67.500      1.23790E-03
  68.500      1.03990E-03
  69.500      1.26070E-03
  70.500      1.05390E-03
  71.600      1.35360E-03
  72.600      1.37450E-03
  73.500      1.41040E-03
  74.500      1.33770E-03
  75.500      1.35040E-03
  76.500      1.29490E-03
  77.500      1.39160E-03
  78.500      1.33530E-03
  79.500      1.44220E-03
  80.500      1.44160E-03
  81.500      1.46630E-03
  82.500      1.51390E-03
  83.500      1.30400E-03
  84.500      1.50610E-03
  85.500      1.48430E-03
  86.500      1.55790E-03
  87.500      1.57490E-03
  88.500      1.58050E-03
  89.500      1.59360E-03
  90.500      1.56940E-03
  91.500      1.27300E-03
  92.500      2.18870E-03
  93.500      3.12500E-03
  94.500      3.90640E-03
  95.500      4.43700E-03
  96.500      5.14390E-03
  97.500      3.30600E-03
  98.500      4.62920E-03
  99.500      4.12270E-03
  100.50      4.24740E-03
  101.50      4.49890E-03
  102.50      3.76310E-03
  103.50      4.68740E-03
  104.50      5.08280E-03
  105.50      4.97390E-03
  106.50      4.61720E-03
  107.50      4.75420E-03
  108.50      4.36510E-03
  109.50      4.70450E-03
  110.50      4.57410E-03
  111.50      4.58920E-03
  112.50      4.25020E-03
  113.50      4.56560E-03
  114.50      4.57500E-03
  115.50      4.30370E-03
  116.50      4.13720E-03
  117.50      3.39310E-03
  118.50      3.99100E-03
  119.50      3.87440E-03
  120.50      3.83470E-03
  121.50      3.10560E-03
  122.50      3.70860E-03
  123.50      3.87710E-03
  124.50      3.84380E-03
  125.50      3.88550E-03
  126.50      3.98940E-03
  127.50      4.10770E-03
  128.50      4.12990E-03
  129.50      4.06170E-03
  130.50      4.00800E-03
  131.50      4.12730E-03
  132.50      4.07860E-03
  133.50      4.03690E-03
  134.50      4.04210E-03
  135.50      3.93880E-03
  136.50      3.85600E-03
  137.50      3.76520E-03
  138.50      3.74400E-03
  139.50      3.51910E-03
  140.50      3.42550E-03
  141.50      3.78050E-03
  142.50      3.45330E-03
  143.50      3.68040E-03
  144.20      3.58070E-03
  144.70      3.59960E-03
  145.50      3.48760E-03
  146.50      3.50240E-03
  147.50      3.51130E-03
  148.50      3.57430E-03
  149.50      3.49910E-03
  150.50      3.51340E-03
  151.20      3.50900E-03
  151.70      3.49060E-03
  152.50      3.44000E-03
  153.50      3.14260E-03
  154.50      2.63140E-03
  155.50      2.72210E-03
  156.50      3.03140E-03
  157.50      3.15470E-03
  158.50      3.15650E-03
  159.50      3.19480E-03
  160.50      3.04280E-03
  161.50      2.95990E-03
  162.50      3.03750E-03
  163.50      3.03680E-03
  164.50      2.99320E-03
  165.50      3.10340E-03
  166.50      3.06870E-03
  167.20      2.89340E-03
  167.70      3.24320E-03
  168.50      3.16700E-03
  169.50      3.12850E-03
  170.50      3.09090E-03
  171.50      2.99190E-03
  172.50      2.93970E-03
  173.50      3.05160E-03
  174.50      3.05070E-03
  175.50      3.00770E-03
  176.50      2.99200E-03
  177.50      2.93680E-03
  178.50      2.98710E-03
  179.50      2.92450E-03
  180.50      2.91770E-03
  181.50      2.89570E-03
  182.50      2.85400E-03
  183.50      2.87460E-03
  184.50      2.85540E-03
  185.50      2.86360E-03
  186.50      2.86160E-03
  187.50      2.80420E-03
  188.50      2.76910E-03
  189.50      2.80550E-03
  190.50      2.80970E-03
  191.50      2.78430E-03
  192.50      2.66430E-03
  193.50      2.77250E-03
  194.50      2.77420E-03
  195.50      2.64890E-03
  196.70      2.71440E-03
  197.60      2.71210E-03
  198.40      2.70670E-03
  199.50      2.67020E-03
  200.50      2.69450E-03
  201.50      2.67750E-03
  202.50      2.66160E-03
  203.50      2.62870E-03
  204.50      2.60180E-03
  205.50      1.95920E-03
  206.50      1.88370E-03
  207.40      1.92890E-03
  207.80      1.96030E-03
  208.50      2.08180E-03
  209.50      2.31200E-03
  210.50      2.47300E-03
  211.50      2.51750E-03
  212.50      2.47740E-03
  213.50      2.48210E-03
  214.50      2.46550E-03
  215.50      2.47810E-03
  216.50      2.35570E-03
  217.50      2.46930E-03
  218.50      2.36440E-03
  219.50      2.45560E-03
  220.50      2.44040E-03
  221.50      2.31810E-03
  222.50      2.40680E-03
  223.50      2.39640E-03
  224.50      2.36650E-03
  225.50      2.26680E-03
  226.50      2.34580E-03
  227.50      2.34320E-03
  228.50      2.29880E-03
  229.50      2.21090E-03
  230.50      2.19230E-03
  231.50      2.24630E-03
  232.50      2.25690E-03
  233.50      2.24440E-03
  234.50      2.21860E-03
  235.50      2.18910E-03
  236.50      2.17110E-03
  237.50      2.13900E-03
  238.50      2.02810E-03
  239.50      2.09780E-03
  240.50      2.10320E-03
  241.50      2.09960E-03
  242.50      2.10680E-03
  243.50      2.08650E-03
  244.50      2.07670E-03
  245.50      2.05680E-03
  246.50      2.05170E-03
  247.50      2.04810E-03
  248.50      2.01380E-03
  249.50      1.73410E-03
  250.50      1.97340E-03
  251.30      1.84010E-03
  251.80      1.93060E-03
  252.50      1.96460E-03
  253.50      1.97150E-03
  254.50      1.96080E-03
  255.50      1.94500E-03
  256.50      1.93530E-03
  257.50      1.92320E-03
  258.50      1.91370E-03
  259.50      1.87890E-03
  260.50      1.89330E-03
  261.50      1.86750E-03
  262.50      1.87260E-03
  263.50      1.86600E-03
  264.50      1.84630E-03
  265.50      1.84250E-03
  266.50      1.82600E-03
  267.50      1.78980E-03
  268.50      1.80300E-03
  269.50      1.78680E-03
  270.50      1.79140E-03
  271.50      1.77390E-03
  272.50      1.76370E-03
  273.50      1.69940E-03
  274.50      1.75270E-03
  275.50      1.73950E-03
  276.50      1.72720E-03
  277.50      1.72200E-03
  278.50      1.70330E-03
  279.50      1.67530E-03
  280.50      1.68540E-03
  281.50      1.68180E-03
  282.50      1.66940E-03
  283.50      1.66110E-03
  284.50      1.65890E-03
  285.50      1.64810E-03
  286.50      1.62940E-03
  287.50      1.62430E-03
  288.50      1.61890E-03
  289.50      1.60750E-03
  291.00      1.59120E-03
  293.00      1.58150E-03
  295.00      1.56140E-03
  297.00      1.54210E-03
  299.00      1.51650E-03
  301.00      1.49960E-03
  303.00      1.47530E-03
  305.00      1.46960E-03
  307.00      1.45560E-03
  309.00      1.44390E-03
  311.00      1.43310E-03
  313.00      1.41590E-03
  315.00      1.40660E-03
  317.00      1.39020E-03
  319.00      1.37760E-03
  321.00      1.34020E-03
  323.00      1.35160E-03
  325.00      1.34110E-03
  327.00      1.31420E-03
  329.00      1.31050E-03
  331.00      1.29590E-03
  333.00      1.28240E-03
  335.00      1.26130E-03
  337.00      1.25510E-03
  339.00      1.24750E-03
  341.00      1.23480E-03
  343.00      1.22640E-03
  345.00      1.20630E-03
  347.00      1.20280E-03
  349.00      1.19320E-03
  351.00      1.18340E-03
  353.00      1.17030E-03
  355.00      1.15900E-03
  357.00      1.15040E-03
  359.00      1.13790E-03
  361.00      1.12480E-03
  363.00      1.11510E-03
  364.00      1.09440E-03
  365.00      1.00350E-03
  367.00      9.96350E-04
  369.00      9.88580E-04
  371.00      9.77350E-04
  373.00      9.85340E-04
  375.00      9.92620E-04
  377.00      9.95440E-04
  379.00      1.02220E-03
  381.00      1.04700E-03
  383.00      9.85400E-04
  385.00      1.05340E-03
  387.00      1.05020E-03
  389.00      9.45730E-04
  391.00      1.05200E-03
  393.00      1.03800E-03
  395.00      1.02490E-03
  397.00      9.06370E-04
  399.00      1.01500E-03
  401.00      1.01010E-03
  403.00      9.80400E-04
  405.00      9.98890E-04
  407.00      9.80270E-04
  409.00      9.33650E-04
  411.00      8.75210E-04
  413.00      9.55510E-04
  415.00      9.51580E-04
  417.00      9.50470E-04
  419.00      9.36920E-04
  421.00      9.19790E-04
  423.00      9.30030E-04
  425.00      9.19220E-04
  427.00      9.11040E-04
  429.00      9.03430E-04
  431.00      8.90090E-04
  433.00      8.43460E-04
  435.00      8.03670E-04
  437.00      8.69920E-04
  439.00      8.56920E-04
  441.00      8.54660E-04
  443.00      8.53530E-04
  445.00      8.45930E-04
  447.00      8.27450E-04
  449.00      8.33710E-04
  451.00      8.20890E-04
  453.00      8.15520E-04
  455.00      7.95100E-04
  457.00      8.07570E-04
  459.00      7.99350E-04
  461.00      7.94880E-04
  463.00      7.83300E-04
  465.00      7.57180E-04
  467.00      7.73270E-04
  469.00      7.46720E-04
  471.00      7.62770E-04
  473.00      7.65150E-04
  475.00      7.59510E-04
  477.00      7.54070E-04
  479.00      7.48160E-04
  481.00      7.42240E-04
  483.00      7.34040E-04
  485.00      7.03170E-04
  487.00      6.56630E-04
  489.00      7.16130E-04
  491.00      7.13590E-04
  493.00      7.03060E-04
  495.00      7.03970E-04
  497.00      7.00680E-04
  499.00      6.95870E-04
  501.00      6.85110E-04
  503.00      6.84160E-04
  505.00      6.79080E-04
  507.00      6.76090E-04
  509.00      6.71390E-04
  511.00      6.66620E-04
  513.00      6.61730E-04
  515.00      6.57080E-04
  517.00      6.52440E-04
  519.00      6.48070E-04
  521.00      6.43690E-04
  523.00      6.39540E-04
  525.00      6.33520E-04
  527.00      6.29020E-04
  529.00      6.26470E-04
  531.00      6.22130E-04
  533.00      6.17850E-04
  535.00      6.13860E-04
  537.00      6.09670E-04
  539.00      6.05490E-04
  541.00      5.88030E-04
  543.00      5.97260E-04
  545.00      5.93640E-04
  547.00      5.89550E-04
  549.00      5.85770E-04
  551.00      5.81250E-04
  553.00      5.78100E-04
  555.00      5.74420E-04
  557.00      5.70300E-04
  559.00      5.64970E-04
  561.00      5.63320E-04
  563.00      5.59680E-04
  565.00      5.56040E-04
  567.00      5.52350E-04
  569.00      5.40150E-04
  571.00      5.12950E-04
  573.00      5.09980E-04
  575.00      5.06830E-04
  577.00      5.04160E-04
  579.00      5.01260E-04
  581.00      4.96300E-04
  583.00      4.95450E-04
  585.00      4.94600E-04
  587.00      4.86820E-04
  589.00      4.91870E-04
  591.00      4.91450E-04
  593.00      4.90990E-04
  595.00      4.90890E-04
  597.00      4.91180E-04
  599.00      4.91470E-04
  601.00      4.91230E-04
  603.00      4.90280E-04
  605.00      4.89720E-04
  607.00      4.87160E-04
  609.00      4.84710E-04
  611.00      4.81830E-04
  613.00      4.79380E-04
  615.00      4.76430E-04
  617.00      4.72980E-04
  619.00      4.71340E-04
  621.00      4.68780E-04
  623.00      4.64850E-04
  625.00      4.62850E-04
  627.00      4.60550E-04
  629.00      4.57870E-04
  631.00      4.53340E-04
  633.00      4.52370E-04
  635.00      4.49790E-04
  637.00      4.47400E-04
  639.00      4.44530E-04
  641.00      4.39910E-04
  643.00      4.39740E-04
  645.00      4.36810E-04
  647.00      4.34150E-04
  649.00      4.31980E-04
  651.00      4.28650E-04
  653.00      4.23010E-04
  655.00      4.14970E-04
  657.00      3.83490E-04
  659.00      4.17710E-04
  661.00      4.17640E-04
  663.00      4.15590E-04
  665.00      4.13270E-04
  667.00      4.07160E-04
  669.00      4.02420E-04
  671.00      4.05480E-04
  673.00      4.03490E-04
  675.00      4.01360E-04
  677.00      3.99710E-04
  679.00      3.97640E-04
  681.00      3.95560E-04
  683.00      3.93400E-04
  685.00      3.91200E-04
  687.00      3.88880E-04
  689.00      3.82220E-04
  691.00      3.84370E-04
  693.00      3.82970E-04
  695.00      3.80910E-04
  697.00      3.78910E-04
  699.00      3.76850E-04
  701.00      3.74580E-04
  703.00      3.72040E-04
  705.00      3.70510E-04
  707.00      3.65750E-04
  709.00      3.67080E-04
  711.00      3.65060E-04
  713.00      3.63160E-04
  715.00      3.61380E-04
  717.00      3.56220E-04
  719.00      3.55500E-04
  721.00      3.55800E-04
  723.00      3.53710E-04
  725.00      3.52110E-04
  727.00      3.50360E-04
  729.00      3.47320E-04
  731.00      3.46540E-04
  733.00      3.45030E-04
  735.00      3.43280E-04
  737.00      3.41430E-04
  739.00      3.39810E-04
  741.00      3.38000E-04
  743.00      3.36430E-04
  745.00      3.34420E-04
  747.00      3.32920E-04
  749.00      3.30320E-04
  751.00      3.29610E-04
  753.00      3.28080E-04
  755.00      3.26450E-04
  757.00      3.24720E-04
  759.00      3.17920E-04
  761.00      3.20890E-04
  763.00      3.19950E-04
  765.00      3.18460E-04
  767.00      3.16990E-04
  769.00      3.14690E-04
  771.00      3.13580E-04
  773.00      3.11500E-04
  775.00      3.10710E-04
  777.00      3.09450E-04
  779.00      3.07860E-04
  781.00      3.06460E-04
  783.00      3.04980E-04
  785.00      3.02990E-04
  787.00      3.01850E-04
  789.00      3.00570E-04
  791.00      2.99320E-04
  793.00      2.97940E-04
  795.00      2.96560E-04
  797.00      2.94900E-04
  799.00      2.93730E-04
  801.00      2.92390E-04
  803.00      2.90780E-04
  805.00      2.89690E-04
  807.00      2.88340E-04
  809.00      2.87000E-04
  811.00      2.85550E-04
  813.00      2.84360E-04
  815.00      2.83030E-04
  817.00      2.81500E-04
  819.00      2.79290E-04
  821.00      2.69570E-04
  823.00      2.66440E-04
  825.00      2.66720E-04
  827.00      2.65860E-04
  829.00      2.65000E-04
  831.00      2.63980E-04
  833.00      2.62260E-04
  835.00      2.61010E-04
  837.00      2.60390E-04
  839.00      2.59510E-04
  841.00      2.58420E-04
  843.00      2.57400E-04
  845.00      2.56050E-04
  847.00      2.55390E-04
  849.00      2.54430E-04
  851.00      2.52950E-04
  853.00      2.52640E-04
  855.00      2.51680E-04
  857.00      2.51100E-04
  859.00      2.49400E-04
  861.00      2.49130E-04
  863.00      2.49220E-04
  865.00      2.47600E-04
  867.00      2.45270E-04
  869.00      2.47050E-04
  871.00      2.46960E-04
  873.00      2.44990E-04
  875.00      2.40190E-04
  877.00      2.42770E-04
  879.00      2.44640E-04
  881.00      2.44500E-04
  883.00      2.43270E-04
  885.00      2.37710E-04
  887.00      2.32240E-04
  889.00      2.39560E-04
  891.00      2.40700E-04
  893.00      2.40160E-04
  895.00      2.39390E-04
  897.00      2.38220E-04
  899.00      2.34610E-04
  901.00      2.23230E-04
  903.00      2.26970E-04
  905.00      2.33110E-04
  907.00      2.32780E-04
  909.00      2.32780E-04
  911.00      2.32070E-04
  913.00      2.31480E-04
  915.00      2.30570E-04
  917.00      2.28930E-04
  919.00      2.27270E-04
  921.00      2.21650E-04
  923.00      2.08350E-04
  925.00      2.19360E-04
  927.00      2.23330E-04
  929.00      2.23410E-04
  931.00      2.22680E-04
  933.00      2.21780E-04
  935.00      2.16250E-04
  937.00      2.19600E-04
  939.00      2.19480E-04
  941.00      2.18440E-04
  943.00      2.17680E-04
  945.00      2.16890E-04
  947.00      2.15550E-04
  949.00      2.14550E-04
  951.00      2.11940E-04
  953.00      2.06100E-04
  955.00      1.93180E-04
  957.00      2.06580E-04
  959.00      2.09600E-04
  961.00      2.09450E-04
  963.00      2.08700E-04
  965.00      2.08500E-04
  967.00      2.07740E-04
  969.00      2.06880E-04
  971.00      2.03300E-04
  973.00      2.04840E-04
  975.00      2.04240E-04
  977.00      2.02930E-04
  979.00      2.02870E-04
  981.00      2.02100E-04
  983.00      2.01240E-04
  985.00      2.00510E-04
  987.00      1.99760E-04
  989.00      1.98900E-04
  991.00      1.98030E-04
  993.00      1.97460E-04
  995.00      1.96720E-04
  997.00      1.95880E-04
  999.00      1.94690E-04
  1002.5      1.88040E-04
  1007.5      1.84280E-04
  1012.5      1.86680E-04
  1017.5      1.88470E-04
  1022.5      1.86670E-04
  1027.5      1.84890E-04
  1032.5      1.82820E-04
  1037.5      1.81580E-04
  1042.5      1.79310E-04
  1047.5      1.78290E-04
  1052.5      1.76650E-04
  1057.5      1.75060E-04
  1062.5      1.73490E-04
  1067.5      1.71860E-04
  1072.5      1.70400E-04
  1077.5      1.68880E-04
  1082.5      1.66420E-04
  1087.5      1.65410E-04
  1092.5      1.55140E-04
  1097.5      1.60080E-04
  1102.5      1.61190E-04
  1107.5      1.60150E-04
  1112.5      1.58820E-04
  1117.5      1.57530E-04
  1122.5      1.56140E-04
  1127.5      1.54820E-04
  1132.5      1.53480E-04
  1137.5      1.52210E-04
  1142.5      1.50950E-04
  1147.5      1.49680E-04
  1152.5      1.48450E-04
  1157.5      1.47150E-04
  1162.5      1.44440E-04
  1167.5      1.43840E-04
  1172.5      1.43600E-04
  1177.5      1.42430E-04
  1182.5      1.41210E-04
  1187.5      1.40110E-04
  1192.5      1.38980E-04
  1197.5      1.36980E-04
  1202.5      1.36780E-04
  1207.5      1.35660E-04
  1212.5      1.34530E-04
  1217.5      1.33540E-04
  1222.5      1.32490E-04
  1227.5      1.31450E-04
  1232.5      1.30410E-04
  1237.5      1.29400E-04
  1242.5      1.28400E-04
  1247.5      1.27410E-04
  1252.5      1.26310E-04
  1257.5      1.25430E-04
  1262.5      1.24490E-04
  1267.5      1.23550E-04
  1272.5      1.22560E-04
  1277.5      1.20130E-04
  1282.5      1.13450E-04
  1287.5      1.19180E-04
  1292.5      1.18970E-04
  1297.5      1.17780E-04
  1302.5      1.17180E-04
  1307.5      1.16340E-04
  1312.5      1.15480E-04
  1317.5      1.14630E-04
  1322.5      1.13800E-04
  1327.5      1.12970E-04
  1332.5      1.12140E-04
  1337.5      1.11330E-04
  1342.5      1.10500E-04
  1347.5      1.09730E-04
  1352.5      1.08940E-04
  1357.5      1.08170E-04
  1362.5      1.07390E-04
  1367.5      1.06640E-04
  1372.5      1.05850E-04
  1377.5      1.05140E-04
  1382.5      1.04410E-04
  1387.5      1.03680E-04
  1392.5      1.02940E-04
  1397.5      1.02240E-04
