 Castelli and Kurucz 2004-2012 Atmosphere
 T     44000.     G    4.50000 [+0.2] N(He)/Ntot=0.07828 VTURB=2.0  L/H=1.25 NO
 Wavelength  Eddington Hnu
   (nm)    (ergs/s/cm2/Hz/sr)
  9.0900      3.27380E-22
  9.3500      1.06680E-21
  9.6100      3.20950E-21
  9.7700      6.30910E-21
  9.9600      1.34430E-20
  10.200      3.36200E-20
  10.380      6.51290E-20
  10.560      1.23420E-19
  10.770      2.53410E-19
  11.040      6.14330E-19
  11.400      1.87650E-18
  11.780      5.66250E-18
  12.130      1.48370E-17
  12.480      3.67260E-17
  12.710      6.49490E-17
  12.840      8.91600E-17
  13.050      1.45430E-16
  13.240      2.23790E-16
  13.390      3.13200E-16
  13.660      5.56510E-16
  13.980      1.09180E-15
  14.330      2.16700E-15
  14.720      4.35850E-15
  15.100      8.95890E-15
  15.520      1.83340E-14
  15.880      3.30970E-14
  16.200      5.87350E-14
  16.600      1.08550E-13
  17.030      1.96680E-13
  17.340      2.98680E-13
  17.680      4.79250E-13
  18.020      7.46150E-13
  18.170      8.74740E-13
  18.610      1.54680E-12
  19.100      2.71900E-12
  19.390      3.86580E-12
  19.840      6.28630E-12
  20.180      8.64090E-12
  20.500      1.22910E-11
  21.050      2.09000E-11
  21.620      3.48370E-11
  21.980      4.85460E-11
  22.300      6.28010E-11
  22.680      8.66080E-11
  23.000      2.32450E-08
  23.400      8.07950E-08
  24.000      1.13990E-07
  24.650      2.02920E-07
  25.240      5.39770E-07
  25.680      1.37200E-06
  26.000      1.55070E-06
  26.400      1.28870E-05
  26.850      1.58080E-05
  27.350      2.07810E-05
  27.850      1.20470E-05
  28.400      2.97130E-05
  29.000      5.41340E-05
  29.600      4.16870E-05
  30.100      3.83430E-05
  30.800      7.79800E-05
  31.800      1.98790E-05
  32.800      3.32210E-05
  33.800      2.53550E-05
  34.800      2.95080E-05
  35.700      8.70880E-05
  36.600      2.15300E-04
  37.500      3.04690E-04
  38.500      2.64260E-04
  39.500      5.07520E-04
  40.500      8.88580E-04
  41.400      8.73800E-04
  42.200      8.21130E-04
  43.000      7.98810E-04
  44.100      1.05020E-03
  45.100      1.11960E-03
  46.000      9.27300E-04
  47.000      1.08840E-03
  48.000      1.32300E-03
  49.000      9.92440E-04
  50.000      1.60990E-03
  50.600      1.21790E-03
  51.200      1.72810E-03
  52.000      1.63940E-03
  53.000      1.54270E-03
  54.000      1.28390E-03
  55.000      1.07490E-03
  56.000      1.52640E-03
  57.000      1.93660E-03
  58.000      1.95760E-03
  59.000      2.01040E-03
  60.000      1.66920E-03
  61.000      1.45610E-03
  62.000      2.03070E-03
  63.000      1.84500E-03
  64.000      2.23230E-03
  65.000      2.10530E-03
  65.800      1.84800E-03
  66.500      2.26270E-03
  67.500      2.38170E-03
  68.500      2.09300E-03
  69.500      2.40860E-03
  70.500      2.06530E-03
  71.600      2.47130E-03
  72.600      2.56420E-03
  73.500      2.57960E-03
  74.500      2.46850E-03
  75.500      2.45750E-03
  76.500      2.18000E-03
  77.500      2.49050E-03
  78.500      2.14840E-03
  79.500      2.48200E-03
  80.500      2.57630E-03
  81.500      2.59300E-03
  82.500      2.63680E-03
  83.500      2.33340E-03
  84.500      2.60830E-03
  85.500      2.48560E-03
  86.500      2.66260E-03
  87.500      2.69780E-03
  88.500      2.66030E-03
  89.500      2.65720E-03
  90.500      2.60950E-03
  91.500      2.01540E-03
  92.500      3.18580E-03
  93.500      4.16910E-03
  94.500      4.62020E-03
  95.500      5.26110E-03
  96.500      5.54920E-03
  97.500      4.42130E-03
  98.500      5.12980E-03
  99.500      4.61120E-03
  100.50      4.69370E-03
  101.50      4.89490E-03
  102.50      4.66240E-03
  103.50      5.26170E-03
  104.50      5.47740E-03
  105.50      5.42250E-03
  106.50      5.21890E-03
  107.50      5.37710E-03
  108.50      5.05990E-03
  109.50      5.27820E-03
  110.50      5.23970E-03
  111.50      5.22990E-03
  112.50      5.09510E-03
  113.50      5.26590E-03
  114.50      5.31990E-03
  115.50      5.09310E-03
  116.50      4.86100E-03
  117.50      4.40500E-03
  118.50      4.82010E-03
  119.50      4.60150E-03
  120.50      4.60770E-03
  121.50      4.04700E-03
  122.50      4.48070E-03
  123.50      4.41170E-03
  124.50      4.32430E-03
  125.50      4.49190E-03
  126.50      4.56840E-03
  127.50      4.63170E-03
  128.50      4.62400E-03
  129.50      4.66690E-03
  130.50      4.53870E-03
  131.50      4.55160E-03
  132.50      4.51910E-03
  133.50      4.48630E-03
  134.50      4.46950E-03
  135.50      4.32790E-03
  136.50      4.19230E-03
  137.50      4.05280E-03
  138.50      4.14120E-03
  139.50      4.04620E-03
  140.50      3.87570E-03
  141.50      4.28410E-03
  142.50      4.02050E-03
  143.50      4.21200E-03
  144.20      4.02240E-03
  144.70      4.05340E-03
  145.50      3.97110E-03
  146.50      3.99140E-03
  147.50      4.01440E-03
  148.50      4.07540E-03
  149.50      3.99720E-03
  150.50      3.99050E-03
  151.20      3.99840E-03
  151.70      3.91750E-03
  152.50      3.95420E-03
  153.50      3.70930E-03
  154.50      3.13140E-03
  155.50      3.24470E-03
  156.50      3.60520E-03
  157.50      3.71820E-03
  158.50      3.67240E-03
  159.50      3.72560E-03
  160.50      3.59030E-03
  161.50      3.52850E-03
  162.50      3.58960E-03
  163.50      3.61230E-03
  164.50      3.49140E-03
  165.50      3.62460E-03
  166.50      3.59890E-03
  167.20      3.44570E-03
  167.70      3.70800E-03
  168.50      3.67330E-03
  169.50      3.67140E-03
  170.50      3.58730E-03
  171.50      3.45140E-03
  172.50      3.45630E-03
  173.50      3.57960E-03
  174.50      3.56050E-03
  175.50      3.52100E-03
  176.50      3.49440E-03
  177.50      3.45160E-03
  178.50      3.48040E-03
  179.50      3.41240E-03
  180.50      3.39870E-03
  181.50      3.35760E-03
  182.50      3.33820E-03
  183.50      3.33650E-03
  184.50      3.34070E-03
  185.50      3.32290E-03
  186.50      3.31910E-03
  187.50      3.26700E-03
  188.50      3.23950E-03
  189.50      3.27940E-03
  190.50      3.26150E-03
  191.50      3.24330E-03
  192.50      3.12850E-03
  193.50      3.21190E-03
  194.50      3.19740E-03
  195.50      3.12260E-03
  196.70      3.13890E-03
  197.60      3.11120E-03
  198.40      3.12270E-03
  199.50      3.09200E-03
  200.50      3.08790E-03
  201.50      3.06660E-03
  202.50      3.05020E-03
  203.50      3.01380E-03
  204.50      2.97830E-03
  205.50      2.24450E-03
  206.50      2.17690E-03
  207.40      2.25690E-03
  207.80      2.32770E-03
  208.50      2.53410E-03
  209.50      2.81460E-03
  210.50      2.84560E-03
  211.50      2.86820E-03
  212.50      2.83420E-03
  213.50      2.83700E-03
  214.50      2.81430E-03
  215.50      2.83130E-03
  216.50      2.69540E-03
  217.50      2.81210E-03
  218.50      2.71400E-03
  219.50      2.79140E-03
  220.50      2.77110E-03
  221.50      2.65990E-03
  222.50      2.73760E-03
  223.50      2.72260E-03
  224.50      2.70050E-03
  225.50      2.60960E-03
  226.50      2.66640E-03
  227.50      2.66490E-03
  228.50      2.62280E-03
  229.50      2.56930E-03
  230.50      2.52590E-03
  231.50      2.56120E-03
  232.50      2.57310E-03
  233.50      2.55810E-03
  234.50      2.52600E-03
  235.50      2.49840E-03
  236.50      2.47860E-03
  237.50      2.44830E-03
  238.50      2.34440E-03
  239.50      2.40570E-03
  240.50      2.39080E-03
  241.50      2.38630E-03
  242.50      2.39940E-03
  243.50      2.37520E-03
  244.50      2.36510E-03
  245.50      2.33500E-03
  246.50      2.33090E-03
  247.50      2.33630E-03
  248.50      2.29910E-03
  249.50      2.09290E-03
  250.50      2.27460E-03
  251.30      2.13280E-03
  251.80      2.21890E-03
  252.50      2.23160E-03
  253.50      2.24650E-03
  254.50      2.24210E-03
  255.50      2.22550E-03
  256.50      2.21610E-03
  257.50      2.19720E-03
  258.50      2.18660E-03
  259.50      2.13270E-03
  260.50      2.16460E-03
  261.50      2.12680E-03
  262.50      2.14100E-03
  263.50      2.13160E-03
  264.50      2.10800E-03
  265.50      2.10460E-03
  266.50      2.09130E-03
  267.50      2.05510E-03
  268.50      2.06200E-03
  269.50      2.04420E-03
  270.50      2.05100E-03
  271.50      2.03420E-03
  272.50      2.02330E-03
  273.50      1.95570E-03
  274.50      2.00500E-03
  275.50      1.98770E-03
  276.50      1.97890E-03
  277.50      1.96470E-03
  278.50      1.93920E-03
  279.50      1.92640E-03
  280.50      1.92840E-03
  281.50      1.91860E-03
  282.50      1.90270E-03
  283.50      1.90030E-03
  284.50      1.89290E-03
  285.50      1.88050E-03
  286.50      1.85600E-03
  287.50      1.84320E-03
  288.50      1.84540E-03
  289.50      1.83430E-03
  291.00      1.82160E-03
  293.00      1.80720E-03
  295.00      1.78750E-03
  297.00      1.76340E-03
  299.00      1.73660E-03
  301.00      1.71960E-03
  303.00      1.69080E-03
  305.00      1.68180E-03
  307.00      1.65640E-03
  309.00      1.65240E-03
  311.00      1.63630E-03
  313.00      1.61860E-03
  315.00      1.60830E-03
  317.00      1.58940E-03
  319.00      1.57700E-03
  321.00      1.53190E-03
  323.00      1.54650E-03
  325.00      1.53210E-03
  327.00      1.50180E-03
  329.00      1.49750E-03
  331.00      1.48130E-03
  333.00      1.46630E-03
  335.00      1.44150E-03
  337.00      1.43550E-03
  339.00      1.42060E-03
  341.00      1.40530E-03
  343.00      1.40000E-03
  345.00      1.37750E-03
  347.00      1.37160E-03
  349.00      1.35960E-03
  351.00      1.35050E-03
  353.00      1.33390E-03
  355.00      1.32260E-03
  357.00      1.31050E-03
  359.00      1.29910E-03
  361.00      1.28490E-03
  363.00      1.27210E-03
  364.00      1.24200E-03
  365.00      1.11870E-03
  367.00      1.11020E-03
  369.00      1.10480E-03
  371.00      1.10400E-03
  373.00      1.11990E-03
  375.00      1.14070E-03
  377.00      1.15640E-03
  379.00      1.17900E-03
  381.00      1.19470E-03
  383.00      1.14580E-03
  385.00      1.19290E-03
  387.00      1.18970E-03
  389.00      1.10650E-03
  391.00      1.17890E-03
  393.00      1.15630E-03
  395.00      1.15440E-03
  397.00      1.06210E-03
  399.00      1.13920E-03
  401.00      1.13090E-03
  403.00      1.10310E-03
  405.00      1.11330E-03
  407.00      1.10210E-03
  409.00      1.06770E-03
  411.00      1.01430E-03
  413.00      1.07320E-03
  415.00      1.06640E-03
  417.00      1.05940E-03
  419.00      1.04730E-03
  421.00      1.02610E-03
  423.00      1.03550E-03
  425.00      1.02650E-03
  427.00      1.01840E-03
  429.00      1.01020E-03
  431.00      9.99040E-04
  433.00      9.64270E-04
  435.00      9.28420E-04
  437.00      9.73160E-04
  439.00      9.62320E-04
  441.00      9.53700E-04
  443.00      9.51510E-04
  445.00      9.42620E-04
  447.00      9.33370E-04
  449.00      9.30250E-04
  451.00      9.18620E-04
  453.00      9.11400E-04
  455.00      8.89680E-04
  457.00      9.00090E-04
  459.00      8.92950E-04
  461.00      8.88000E-04
  463.00      8.76280E-04
  465.00      8.55220E-04
  467.00      8.65240E-04
  469.00      8.31810E-04
  471.00      8.55690E-04
  473.00      8.51420E-04
  475.00      8.45380E-04
  477.00      8.38740E-04
  479.00      8.31280E-04
  481.00      8.26210E-04
  483.00      8.19470E-04
  485.00      7.99410E-04
  487.00      7.55750E-04
  489.00      8.00790E-04
  491.00      7.95720E-04
  493.00      7.89000E-04
  495.00      7.85090E-04
  497.00      7.79510E-04
  499.00      7.74400E-04
  501.00      7.66560E-04
  503.00      7.62550E-04
  505.00      7.56880E-04
  507.00      7.52180E-04
  509.00      7.47280E-04
  511.00      7.41900E-04
  513.00      7.36200E-04
  515.00      7.31350E-04
  517.00      7.26820E-04
  519.00      7.21700E-04
  521.00      7.16340E-04
  523.00      7.12000E-04
  525.00      7.05870E-04
  527.00      7.00780E-04
  529.00      6.97520E-04
  531.00      6.92760E-04
  533.00      6.87910E-04
  535.00      6.83580E-04
  537.00      6.78850E-04
  539.00      6.74300E-04
  541.00      6.56590E-04
  543.00      6.65450E-04
  545.00      6.61130E-04
  547.00      6.56420E-04
  549.00      6.52410E-04
  551.00      6.47320E-04
  553.00      6.43930E-04
  555.00      6.39790E-04
  557.00      6.34800E-04
  559.00      6.29090E-04
  561.00      6.27450E-04
  563.00      6.23370E-04
  565.00      6.19360E-04
  567.00      6.15380E-04
  569.00      6.01110E-04
  571.00      5.61400E-04
  573.00      5.58120E-04
  575.00      5.54690E-04
  577.00      5.51890E-04
  579.00      5.49250E-04
  581.00      5.43210E-04
  583.00      5.45800E-04
  585.00      5.45770E-04
  587.00      5.42470E-04
  589.00      5.45820E-04
  591.00      5.46460E-04
  593.00      5.47660E-04
  595.00      5.49580E-04
  597.00      5.51180E-04
  599.00      5.52990E-04
  601.00      5.51390E-04
  603.00      5.49170E-04
  605.00      5.46940E-04
  607.00      5.43230E-04
  609.00      5.41060E-04
  611.00      5.36960E-04
  613.00      5.33970E-04
  615.00      5.31840E-04
  617.00      5.26440E-04
  619.00      5.25710E-04
  621.00      5.22860E-04
  623.00      5.16910E-04
  625.00      5.16100E-04
  627.00      5.13670E-04
  629.00      5.10780E-04
  631.00      5.03840E-04
  633.00      5.04570E-04
  635.00      5.01860E-04
  637.00      4.99050E-04
  639.00      4.95670E-04
  641.00      4.88530E-04
  643.00      4.90560E-04
  645.00      4.87420E-04
  647.00      4.84600E-04
  649.00      4.82140E-04
  651.00      4.78860E-04
  653.00      4.70630E-04
  655.00      4.68610E-04
  657.00      4.38320E-04
  659.00      4.67980E-04
  661.00      4.66250E-04
  663.00      4.63660E-04
  665.00      4.61090E-04
  667.00      4.56340E-04
  669.00      4.48550E-04
  671.00      4.52760E-04
  673.00      4.50690E-04
  675.00      4.48150E-04
  677.00      4.45970E-04
  679.00      4.43700E-04
  681.00      4.41270E-04
  683.00      4.38900E-04
  685.00      4.36490E-04
  687.00      4.34060E-04
  689.00      4.24810E-04
  691.00      4.29220E-04
  693.00      4.27260E-04
  695.00      4.24970E-04
  697.00      4.22720E-04
  699.00      4.20460E-04
  701.00      4.18010E-04
  703.00      4.15360E-04
  705.00      4.13470E-04
  707.00      4.10270E-04
  709.00      4.09540E-04
  711.00      4.07090E-04
  713.00      4.04950E-04
  715.00      4.03190E-04
  717.00      3.96390E-04
  719.00      3.96440E-04
  721.00      3.96940E-04
  723.00      3.94930E-04
  725.00      3.92910E-04
  727.00      3.90900E-04
  729.00      3.88580E-04
  731.00      3.86570E-04
  733.00      3.84960E-04
  735.00      3.83020E-04
  737.00      3.80900E-04
  739.00      3.78880E-04
  741.00      3.77060E-04
  743.00      3.75370E-04
  745.00      3.73030E-04
  747.00      3.71540E-04
  749.00      3.69050E-04
  751.00      3.67720E-04
  753.00      3.66090E-04
  755.00      3.64220E-04
  757.00      3.62340E-04
  759.00      3.54040E-04
  761.00      3.58320E-04
  763.00      3.57050E-04
  765.00      3.55360E-04
  767.00      3.53640E-04
  769.00      3.51400E-04
  771.00      3.49930E-04
  773.00      3.47920E-04
  775.00      3.46590E-04
  777.00      3.45280E-04
  779.00      3.43470E-04
  781.00      3.41950E-04
  783.00      3.40260E-04
  785.00      3.37940E-04
  787.00      3.36810E-04
  789.00      3.35390E-04
  791.00      3.33920E-04
  793.00      3.32370E-04
  795.00      3.30740E-04
  797.00      3.28860E-04
  799.00      3.27690E-04
  801.00      3.26160E-04
  803.00      3.24420E-04
  805.00      3.23140E-04
  807.00      3.21640E-04
  809.00      3.20150E-04
  811.00      3.18670E-04
  813.00      3.17210E-04
  815.00      3.15740E-04
  817.00      3.13950E-04
  819.00      3.11200E-04
  821.00      2.95860E-04
  823.00      2.92430E-04
  825.00      2.92900E-04
  827.00      2.92000E-04
  829.00      2.90810E-04
  831.00      2.89620E-04
  833.00      2.87960E-04
  835.00      2.86960E-04
  837.00      2.85990E-04
  839.00      2.84960E-04
  841.00      2.84030E-04
  843.00      2.83110E-04
  845.00      2.82160E-04
  847.00      2.81340E-04
  849.00      2.80670E-04
  851.00      2.79490E-04
  853.00      2.79310E-04
  855.00      2.78160E-04
  857.00      2.78060E-04
  859.00      2.76840E-04
  861.00      2.76190E-04
  863.00      2.76730E-04
  865.00      2.75670E-04
  867.00      2.72520E-04
  869.00      2.75310E-04
  871.00      2.75360E-04
  873.00      2.74300E-04
  875.00      2.68130E-04
  877.00      2.72410E-04
  879.00      2.73710E-04
  881.00      2.73360E-04
  883.00      2.72560E-04
  885.00      2.67730E-04
  887.00      2.60320E-04
  889.00      2.68480E-04
  891.00      2.68640E-04
  893.00      2.67360E-04
  895.00      2.66790E-04
  897.00      2.65580E-04
  899.00      2.63150E-04
  901.00      2.51540E-04
  903.00      2.55890E-04
  905.00      2.60580E-04
  907.00      2.60190E-04
  909.00      2.59310E-04
  911.00      2.57570E-04
  913.00      2.57240E-04
  915.00      2.56350E-04
  917.00      2.55080E-04
  919.00      2.53630E-04
  921.00      2.50020E-04
  923.00      2.36030E-04
  925.00      2.47270E-04
  927.00      2.49350E-04
  929.00      2.48940E-04
  931.00      2.47930E-04
  933.00      2.46680E-04
  935.00      2.39940E-04
  937.00      2.43370E-04
  939.00      2.43810E-04
  941.00      2.42810E-04
  943.00      2.41960E-04
  945.00      2.41040E-04
  947.00      2.40010E-04
  949.00      2.39040E-04
  951.00      2.37290E-04
  953.00      2.33240E-04
  955.00      2.19820E-04
  957.00      2.32660E-04
  959.00      2.33930E-04
  961.00      2.33420E-04
  963.00      2.32400E-04
  965.00      2.31650E-04
  967.00      2.30760E-04
  969.00      2.29850E-04
  971.00      2.27370E-04
  973.00      2.27810E-04
  975.00      2.26760E-04
  977.00      2.24270E-04
  979.00      2.25380E-04
  981.00      2.24520E-04
  983.00      2.23520E-04
  985.00      2.22780E-04
  987.00      2.21920E-04
  989.00      2.21060E-04
  991.00      2.20160E-04
  993.00      2.19370E-04
  995.00      2.18530E-04
  997.00      2.17690E-04
  999.00      2.16860E-04
  1002.5      2.11710E-04
  1007.5      2.07680E-04
  1012.5      2.07290E-04
  1017.5      2.09380E-04
  1022.5      2.07420E-04
  1027.5      2.05380E-04
  1032.5      2.03390E-04
  1037.5      2.01710E-04
  1042.5      1.98600E-04
  1047.5      1.98060E-04
  1052.5      1.96250E-04
  1057.5      1.94480E-04
  1062.5      1.92740E-04
  1067.5      1.91000E-04
  1072.5      1.89310E-04
  1077.5      1.87630E-04
  1082.5      1.85470E-04
  1087.5      1.84210E-04
  1092.5      1.75660E-04
  1097.5      1.79630E-04
  1102.5      1.79500E-04
  1107.5      1.77990E-04
  1112.5      1.76460E-04
  1117.5      1.75070E-04
  1122.5      1.73550E-04
  1127.5      1.72060E-04
  1132.5      1.70590E-04
  1137.5      1.69180E-04
  1142.5      1.67770E-04
  1147.5      1.66370E-04
  1152.5      1.64980E-04
  1157.5      1.63540E-04
  1162.5      1.60270E-04
  1167.5      1.59480E-04
  1172.5      1.59590E-04
  1177.5      1.58300E-04
  1182.5      1.56950E-04
  1187.5      1.55720E-04
  1192.5      1.54460E-04
  1197.5      1.52920E-04
  1202.5      1.52010E-04
  1207.5      1.50770E-04
  1212.5      1.49540E-04
  1217.5      1.48410E-04
  1222.5      1.47240E-04
  1227.5      1.46080E-04
  1232.5      1.44930E-04
  1237.5      1.43810E-04
  1242.5      1.42690E-04
  1247.5      1.41590E-04
  1252.5      1.40470E-04
  1257.5      1.39400E-04
  1262.5      1.38350E-04
  1267.5      1.37290E-04
  1272.5      1.36240E-04
  1277.5      1.34560E-04
  1282.5      1.28410E-04
  1287.5      1.32970E-04
  1292.5      1.32190E-04
  1297.5      1.31160E-04
  1302.5      1.30230E-04
  1307.5      1.29270E-04
  1312.5      1.28320E-04
  1317.5      1.27370E-04
  1322.5      1.26440E-04
  1327.5      1.25520E-04
  1332.5      1.24600E-04
  1337.5      1.23700E-04
  1342.5      1.22800E-04
  1347.5      1.21920E-04
  1352.5      1.21050E-04
  1357.5      1.20190E-04
  1362.5      1.19330E-04
  1367.5      1.18480E-04
  1372.5      1.17640E-04
  1377.5      1.16820E-04
  1382.5      1.16000E-04
  1387.5      1.15190E-04
  1392.5      1.14380E-04
  1397.5      1.13590E-04
