 Castelli and Kurucz 2004-2012 Atmosphere
 T     38000.     G    4.50000 [+0.2] N(He)/Ntot=0.07828 VTURB=2.0  L/H=1.25 NO
 Wavelength  Eddington Hnu
   (nm)    (ergs/s/cm2/Hz/sr)
  9.0900      8.44170E-27
  9.3500      3.46650E-26
  9.6100      1.31060E-25
  9.7700      2.91650E-25
  9.9600      7.22960E-25
  10.200      2.17560E-24
  10.380      4.82290E-24
  10.560      1.04240E-23
  10.770      2.48510E-23
  11.040      7.26150E-23
  11.400      2.81970E-22
  11.780      1.08820E-21
  12.130      3.52890E-21
  12.480      1.07580E-20
  12.710      2.17070E-20
  12.840      3.19380E-20
  13.050      5.86640E-20
  13.240      1.00220E-19
  13.390      1.51620E-19
  13.660      3.11580E-19
  13.980      7.13200E-19
  14.330      1.68690E-18
  14.720      4.15750E-18
  15.100      9.89950E-18
  15.520      2.42490E-17
  15.880      5.05030E-17
  16.200      9.39450E-17
  16.600      2.00710E-16
  17.030      4.32770E-16
  17.340      7.40320E-16
  17.680      1.31380E-15
  18.020      2.27090E-15
  18.170      2.87790E-15
  18.610      5.65740E-15
  19.100      1.15820E-14
  19.390      1.74730E-14
  19.840      3.22640E-14
  20.180      5.01440E-14
  20.500      7.53390E-14
  21.050      1.47490E-13
  21.620      2.83660E-13
  21.980      4.27250E-13
  22.300      6.03310E-13
  22.680      9.06670E-13
  23.000      5.79170E-10
  23.400      1.52920E-09
  24.000      2.21140E-09
  24.650      3.32750E-09
  25.240      5.59670E-09
  25.680      7.92130E-09
  26.000      1.09810E-08
  26.400      2.55970E-08
  26.850      4.03370E-08
  27.350      5.07750E-08
  27.850      5.17520E-08
  28.400      1.05910E-07
  29.000      1.46820E-07
  29.600      1.67150E-07
  30.100      3.52650E-07
  30.800      1.75620E-06
  31.800      1.51860E-06
  32.800      2.67330E-06
  33.800      3.64150E-06
  34.800      4.98720E-06
  35.700      1.26600E-05
  36.600      3.01370E-05
  37.500      4.04480E-05
  38.500      4.32430E-05
  39.500      8.15290E-05
  40.500      1.32000E-04
  41.400      1.25040E-04
  42.200      1.30960E-04
  43.000      1.24700E-04
  44.100      1.54970E-04
  45.100      1.65140E-04
  46.000      1.40670E-04
  47.000      1.58780E-04
  48.000      1.92970E-04
  49.000      1.46070E-04
  50.000      2.08900E-04
  50.600      1.82330E-04
  51.200      5.05020E-04
  52.000      4.81550E-04
  53.000      4.41430E-04
  54.000      3.98780E-04
  55.000      3.88760E-04
  56.000      5.55840E-04
  57.000      6.63320E-04
  58.000      6.48840E-04
  59.000      6.77470E-04
  60.000      5.22230E-04
  61.000      5.79550E-04
  62.000      7.76670E-04
  63.000      7.49510E-04
  64.000      8.36490E-04
  65.000      8.03200E-04
  65.800      6.70850E-04
  66.500      8.36460E-04
  67.500      9.51170E-04
  68.500      7.66250E-04
  69.500      9.72370E-04
  70.500      7.71570E-04
  71.600      1.05890E-03
  72.600      1.07600E-03
  73.500      1.10730E-03
  74.500      1.03410E-03
  75.500      1.04900E-03
  76.500      9.93940E-04
  77.500      1.09370E-03
  78.500      1.03280E-03
  79.500      1.14340E-03
  80.500      1.13790E-03
  81.500      1.15950E-03
  82.500      1.20780E-03
  83.500      1.00360E-03
  84.500      1.19810E-03
  85.500      1.17940E-03
  86.500      1.24800E-03
  87.500      1.26520E-03
  88.500      1.27390E-03
  89.500      1.28610E-03
  90.500      1.26580E-03
  91.500      1.06730E-03
  92.500      1.96770E-03
  93.500      2.84450E-03
  94.500      3.37800E-03
  95.500      3.77670E-03
  96.500      4.21720E-03
  97.500      2.74250E-03
  98.500      3.74090E-03
  99.500      3.36010E-03
  100.50      3.43030E-03
  101.50      3.66290E-03
  102.50      3.25310E-03
  103.50      3.84060E-03
  104.50      4.16280E-03
  105.50      4.07040E-03
  106.50      3.81530E-03
  107.50      3.89780E-03
  108.50      3.64330E-03
  109.50      3.86290E-03
  110.50      3.77760E-03
  111.50      3.77780E-03
  112.50      3.48730E-03
  113.50      3.77190E-03
  114.50      3.79510E-03
  115.50      3.57040E-03
  116.50      3.46060E-03
  117.50      2.76750E-03
  118.50      3.31320E-03
  119.50      3.21810E-03
  120.50      3.19830E-03
  121.50      2.70970E-03
  122.50      3.10590E-03
  123.50      3.25450E-03
  124.50      3.21880E-03
  125.50      3.25260E-03
  126.50      3.35570E-03
  127.50      3.47500E-03
  128.50      3.49550E-03
  129.50      3.44880E-03
  130.50      3.39740E-03
  131.50      3.51520E-03
  132.50      3.47840E-03
  133.50      3.43410E-03
  134.50      3.46230E-03
  135.50      3.36300E-03
  136.50      3.30070E-03
  137.50      3.21880E-03
  138.50      3.20950E-03
  139.50      2.98820E-03
  140.50      2.91120E-03
  141.50      3.24990E-03
  142.50      2.95920E-03
  143.50      3.16470E-03
  144.20      3.07730E-03
  144.70      3.09780E-03
  145.50      2.99600E-03
  146.50      3.00880E-03
  147.50      3.03430E-03
  148.50      3.08660E-03
  149.50      3.02110E-03
  150.50      3.03770E-03
  151.20      3.03320E-03
  151.70      3.02700E-03
  152.50      2.97560E-03
  153.50      2.70790E-03
  154.50      2.22760E-03
  155.50      2.31430E-03
  156.50      2.62200E-03
  157.50      2.74780E-03
  158.50      2.75690E-03
  159.50      2.78550E-03
  160.50      2.64660E-03
  161.50      2.57700E-03
  162.50      2.65100E-03
  163.50      2.66650E-03
  164.50      2.63850E-03
  165.50      2.71910E-03
  166.50      2.69190E-03
  167.20      2.52460E-03
  167.70      2.86780E-03
  168.50      2.79110E-03
  169.50      2.75430E-03
  170.50      2.72920E-03
  171.50      2.63030E-03
  172.50      2.59340E-03
  173.50      2.69830E-03
  174.50      2.69880E-03
  175.50      2.66280E-03
  176.50      2.65370E-03
  177.50      2.60190E-03
  178.50      2.65090E-03
  179.50      2.59470E-03
  180.50      2.59440E-03
  181.50      2.57390E-03
  182.50      2.53830E-03
  183.50      2.56100E-03
  184.50      2.54500E-03
  185.50      2.55830E-03
  186.50      2.55870E-03
  187.50      2.50670E-03
  188.50      2.47340E-03
  189.50      2.50780E-03
  190.50      2.51850E-03
  191.50      2.49700E-03
  192.50      2.38680E-03
  193.50      2.48990E-03
  194.50      2.49450E-03
  195.50      2.37040E-03
  196.70      2.44120E-03
  197.60      2.44190E-03
  198.40      2.43870E-03
  199.50      2.40300E-03
  200.50      2.43410E-03
  201.50      2.42060E-03
  202.50      2.40840E-03
  203.50      2.37710E-03
  204.50      2.35270E-03
  205.50      1.78100E-03
  206.50      1.72010E-03
  207.40      1.78740E-03
  207.80      1.82320E-03
  208.50      1.97870E-03
  209.50      2.19620E-03
  210.50      2.25700E-03
  211.50      2.28710E-03
  212.50      2.25240E-03
  213.50      2.25870E-03
  214.50      2.24440E-03
  215.50      2.26140E-03
  216.50      2.15220E-03
  217.50      2.24950E-03
  218.50      2.16680E-03
  219.50      2.24160E-03
  220.50      2.22640E-03
  221.50      2.13150E-03
  222.50      2.19540E-03
  223.50      2.18490E-03
  224.50      2.16020E-03
  225.50      2.08860E-03
  226.50      2.14170E-03
  227.50      2.14020E-03
  228.50      2.10110E-03
  229.50      2.00740E-03
  230.50      2.02150E-03
  231.50      2.05330E-03
  232.50      2.06390E-03
  233.50      2.05220E-03
  234.50      2.02790E-03
  235.50      2.00110E-03
  236.50      1.98440E-03
  237.50      1.95580E-03
  238.50      1.86840E-03
  239.50      1.91960E-03
  240.50      1.92470E-03
  241.50      1.92160E-03
  242.50      1.92880E-03
  243.50      1.91060E-03
  244.50      1.90200E-03
  245.50      1.88480E-03
  246.50      1.87840E-03
  247.50      1.87640E-03
  248.50      1.83970E-03
  249.50      1.53010E-03
  250.50      1.80510E-03
  251.30      1.70970E-03
  251.80      1.77340E-03
  252.50      1.80400E-03
  253.50      1.81010E-03
  254.50      1.80070E-03
  255.50      1.78690E-03
  256.50      1.77850E-03
  257.50      1.76710E-03
  258.50      1.75860E-03
  259.50      1.72680E-03
  260.50      1.74130E-03
  261.50      1.71660E-03
  262.50      1.72210E-03
  263.50      1.71760E-03
  264.50      1.69870E-03
  265.50      1.69590E-03
  266.50      1.68090E-03
  267.50      1.64760E-03
  268.50      1.66120E-03
  269.50      1.64620E-03
  270.50      1.65120E-03
  271.50      1.63460E-03
  272.50      1.62760E-03
  273.50      1.57740E-03
  274.50      1.61740E-03
  275.50      1.60480E-03
  276.50      1.59390E-03
  277.50      1.58950E-03
  278.50      1.57130E-03
  279.50      1.54610E-03
  280.50      1.55660E-03
  281.50      1.55320E-03
  282.50      1.54230E-03
  283.50      1.53470E-03
  284.50      1.53300E-03
  285.50      1.52310E-03
  286.50      1.50560E-03
  287.50      1.50040E-03
  288.50      1.49640E-03
  289.50      1.48740E-03
  291.00      1.47200E-03
  293.00      1.46360E-03
  295.00      1.44560E-03
  297.00      1.42770E-03
  299.00      1.40370E-03
  301.00      1.38840E-03
  303.00      1.36590E-03
  305.00      1.36170E-03
  307.00      1.34870E-03
  309.00      1.33880E-03
  311.00      1.32940E-03
  313.00      1.31380E-03
  315.00      1.30580E-03
  317.00      1.29090E-03
  319.00      1.28030E-03
  321.00      1.24800E-03
  323.00      1.25550E-03
  325.00      1.24640E-03
  327.00      1.22140E-03
  329.00      1.21830E-03
  331.00      1.20480E-03
  333.00      1.19250E-03
  335.00      1.17250E-03
  337.00      1.16720E-03
  339.00      1.16120E-03
  341.00      1.14910E-03
  343.00      1.14190E-03
  345.00      1.12330E-03
  347.00      1.12040E-03
  349.00      1.11150E-03
  351.00      1.10250E-03
  353.00      1.09040E-03
  355.00      1.08040E-03
  357.00      1.07230E-03
  359.00      1.06110E-03
  361.00      1.04870E-03
  363.00      1.04010E-03
  364.00      1.02110E-03
  365.00      9.35670E-04
  367.00      9.29090E-04
  369.00      9.22760E-04
  371.00      9.14780E-04
  373.00      9.23080E-04
  375.00      9.35560E-04
  377.00      9.41100E-04
  379.00      9.67950E-04
  381.00      9.87710E-04
  383.00      9.31570E-04
  385.00      9.92410E-04
  387.00      9.85040E-04
  389.00      9.00250E-04
  391.00      9.86630E-04
  393.00      9.67950E-04
  395.00      9.60520E-04
  397.00      8.63860E-04
  399.00      9.52520E-04
  401.00      9.44420E-04
  403.00      9.19630E-04
  405.00      9.33230E-04
  407.00      9.16030E-04
  409.00      8.81390E-04
  411.00      8.30510E-04
  413.00      8.93700E-04
  415.00      8.89190E-04
  417.00      8.87950E-04
  419.00      8.77200E-04
  421.00      8.61590E-04
  423.00      8.69060E-04
  425.00      8.58950E-04
  427.00      8.51440E-04
  429.00      8.44960E-04
  431.00      8.33240E-04
  433.00      7.98940E-04
  435.00      7.62290E-04
  437.00      8.15010E-04
  439.00      8.02570E-04
  441.00      7.99030E-04
  443.00      7.98450E-04
  445.00      7.91500E-04
  447.00      7.77080E-04
  449.00      7.80550E-04
  451.00      7.67940E-04
  453.00      7.63980E-04
  455.00      7.47180E-04
  457.00      7.56200E-04
  459.00      7.48350E-04
  461.00      7.44640E-04
  463.00      7.34320E-04
  465.00      7.08750E-04
  467.00      7.24810E-04
  469.00      7.02230E-04
  471.00      7.15300E-04
  473.00      7.17470E-04
  475.00      7.12280E-04
  477.00      7.07250E-04
  479.00      7.01830E-04
  481.00      6.96410E-04
  483.00      6.90190E-04
  485.00      6.67990E-04
  487.00      6.24750E-04
  489.00      6.73910E-04
  491.00      6.70340E-04
  493.00      6.61040E-04
  495.00      6.60880E-04
  497.00      6.57910E-04
  499.00      6.53520E-04
  501.00      6.43520E-04
  503.00      6.42620E-04
  505.00      6.37860E-04
  507.00      6.35120E-04
  509.00      6.30830E-04
  511.00      6.26410E-04
  513.00      6.21810E-04
  515.00      6.17510E-04
  517.00      6.13250E-04
  519.00      6.09190E-04
  521.00      6.05150E-04
  523.00      6.01300E-04
  525.00      5.95570E-04
  527.00      5.91370E-04
  529.00      5.89180E-04
  531.00      5.85120E-04
  533.00      5.81180E-04
  535.00      5.77510E-04
  537.00      5.73610E-04
  539.00      5.69720E-04
  541.00      5.55740E-04
  543.00      5.62360E-04
  545.00      5.58710E-04
  547.00      5.54880E-04
  549.00      5.51400E-04
  551.00      5.47150E-04
  553.00      5.44270E-04
  555.00      5.40860E-04
  557.00      5.36910E-04
  559.00      5.31870E-04
  561.00      5.30530E-04
  563.00      5.27130E-04
  565.00      5.23720E-04
  567.00      5.20280E-04
  569.00      5.08630E-04
  571.00      4.83640E-04
  573.00      4.80870E-04
  575.00      4.77890E-04
  577.00      4.75490E-04
  579.00      4.72870E-04
  581.00      4.68420E-04
  583.00      4.68120E-04
  585.00      4.68020E-04
  587.00      4.61300E-04
  589.00      4.66410E-04
  591.00      4.66240E-04
  593.00      4.66150E-04
  595.00      4.66520E-04
  597.00      4.67160E-04
  599.00      4.67600E-04
  601.00      4.66670E-04
  603.00      4.64430E-04
  605.00      4.62800E-04
  607.00      4.60050E-04
  609.00      4.57920E-04
  611.00      4.54640E-04
  613.00      4.52080E-04
  615.00      4.49620E-04
  617.00      4.45980E-04
  619.00      4.44800E-04
  621.00      4.42430E-04
  623.00      4.38360E-04
  625.00      4.36850E-04
  627.00      4.34710E-04
  629.00      4.32230E-04
  631.00      4.27500E-04
  633.00      4.27160E-04
  635.00      4.24660E-04
  637.00      4.22430E-04
  639.00      4.19850E-04
  641.00      4.15000E-04
  643.00      4.15280E-04
  645.00      4.12490E-04
  647.00      4.09990E-04
  649.00      4.07990E-04
  651.00      4.05210E-04
  653.00      3.99750E-04
  655.00      3.94860E-04
  657.00      3.65610E-04
  659.00      3.95620E-04
  661.00      3.94750E-04
  663.00      3.92690E-04
  665.00      3.90480E-04
  667.00      3.85150E-04
  669.00      3.80380E-04
  671.00      3.83210E-04
  673.00      3.81220E-04
  675.00      3.79260E-04
  677.00      3.77760E-04
  679.00      3.75840E-04
  681.00      3.73890E-04
  683.00      3.71870E-04
  685.00      3.69790E-04
  687.00      3.67630E-04
  689.00      3.61490E-04
  691.00      3.63530E-04
  693.00      3.62100E-04
  695.00      3.60150E-04
  697.00      3.58280E-04
  699.00      3.56360E-04
  701.00      3.54200E-04
  703.00      3.51770E-04
  705.00      3.50380E-04
  707.00      3.45810E-04
  709.00      3.47170E-04
  711.00      3.45270E-04
  713.00      3.43490E-04
  715.00      3.41830E-04
  717.00      3.37200E-04
  719.00      3.36750E-04
  721.00      3.36600E-04
  723.00      3.34570E-04
  725.00      3.33110E-04
  727.00      3.31480E-04
  729.00      3.28570E-04
  731.00      3.27870E-04
  733.00      3.26470E-04
  735.00      3.24830E-04
  737.00      3.23090E-04
  739.00      3.21570E-04
  741.00      3.19860E-04
  743.00      3.18400E-04
  745.00      3.16490E-04
  747.00      3.15070E-04
  749.00      3.12650E-04
  751.00      3.11970E-04
  753.00      3.10540E-04
  755.00      3.09010E-04
  757.00      3.07390E-04
  759.00      3.01630E-04
  761.00      3.03930E-04
  763.00      3.02880E-04
  765.00      3.01490E-04
  767.00      3.00130E-04
  769.00      2.97980E-04
  771.00      2.96900E-04
  773.00      2.94990E-04
  775.00      2.94140E-04
  777.00      2.93030E-04
  779.00      2.91530E-04
  781.00      2.90210E-04
  783.00      2.88820E-04
  785.00      2.86900E-04
  787.00      2.85850E-04
  789.00      2.84660E-04
  791.00      2.83490E-04
  793.00      2.82200E-04
  795.00      2.80900E-04
  797.00      2.79320E-04
  799.00      2.78230E-04
  801.00      2.76970E-04
  803.00      2.75450E-04
  805.00      2.74440E-04
  807.00      2.73160E-04
  809.00      2.71870E-04
  811.00      2.70480E-04
  813.00      2.69420E-04
  815.00      2.68090E-04
  817.00      2.66720E-04
  819.00      2.64640E-04
  821.00      2.55460E-04
  823.00      2.52750E-04
  825.00      2.52990E-04
  827.00      2.51940E-04
  829.00      2.51160E-04
  831.00      2.50210E-04
  833.00      2.48550E-04
  835.00      2.47330E-04
  837.00      2.46800E-04
  839.00      2.46020E-04
  841.00      2.45040E-04
  843.00      2.44130E-04
  845.00      2.42890E-04
  847.00      2.42330E-04
  849.00      2.41490E-04
  851.00      2.39960E-04
  853.00      2.39960E-04
  855.00      2.38760E-04
  857.00      2.38830E-04
  859.00      2.36670E-04
  861.00      2.36390E-04
  863.00      2.37320E-04
  865.00      2.35480E-04
  867.00      2.31730E-04
  869.00      2.35380E-04
  871.00      2.35550E-04
  873.00      2.33500E-04
  875.00      2.26150E-04
  877.00      2.31120E-04
  879.00      2.33490E-04
  881.00      2.33240E-04
  883.00      2.32110E-04
  885.00      2.26070E-04
  887.00      2.18470E-04
  889.00      2.28370E-04
  891.00      2.29110E-04
  893.00      2.28230E-04
  895.00      2.27400E-04
  897.00      2.26510E-04
  899.00      2.23550E-04
  901.00      2.10890E-04
  903.00      2.15940E-04
  905.00      2.22030E-04
  907.00      2.21250E-04
  909.00      2.21160E-04
  911.00      2.20250E-04
  913.00      2.19770E-04
  915.00      2.18960E-04
  917.00      2.17670E-04
  919.00      2.16260E-04
  921.00      2.11560E-04
  923.00      1.97300E-04
  925.00      2.09580E-04
  927.00      2.12600E-04
  929.00      2.12440E-04
  931.00      2.11480E-04
  933.00      2.10760E-04
  935.00      2.06070E-04
  937.00      2.08340E-04
  939.00      2.08330E-04
  941.00      2.07280E-04
  943.00      2.06590E-04
  945.00      2.05880E-04
  947.00      2.04710E-04
  949.00      2.04010E-04
  951.00      2.01760E-04
  953.00      1.97120E-04
  955.00      1.83810E-04
  957.00      1.97560E-04
  959.00      1.99520E-04
  961.00      1.99120E-04
  963.00      1.98180E-04
  965.00      1.97920E-04
  967.00      1.97200E-04
  969.00      1.96380E-04
  971.00      1.92620E-04
  973.00      1.94420E-04
  975.00      1.93940E-04
  977.00      1.92530E-04
  979.00      1.92600E-04
  981.00      1.91860E-04
  983.00      1.91050E-04
  985.00      1.90370E-04
  987.00      1.89650E-04
  989.00      1.88850E-04
  991.00      1.88010E-04
  993.00      1.87490E-04
  995.00      1.86790E-04
  997.00      1.86030E-04
  999.00      1.85290E-04
  1002.5      1.79540E-04
  1007.5      1.75960E-04
  1012.5      1.77680E-04
  1017.5      1.79000E-04
  1022.5      1.77290E-04
  1027.5      1.75600E-04
  1032.5      1.73650E-04
  1037.5      1.72470E-04
  1042.5      1.70320E-04
  1047.5      1.69360E-04
  1052.5      1.67810E-04
  1057.5      1.66310E-04
  1062.5      1.64820E-04
  1067.5      1.63270E-04
  1072.5      1.61900E-04
  1077.5      1.60460E-04
  1082.5      1.58070E-04
  1087.5      1.57430E-04
  1092.5      1.48350E-04
  1097.5      1.52900E-04
  1102.5      1.53290E-04
  1107.5      1.52230E-04
  1112.5      1.50940E-04
  1117.5      1.49720E-04
  1122.5      1.48400E-04
  1127.5      1.47160E-04
  1132.5      1.45880E-04
  1137.5      1.44680E-04
  1142.5      1.43480E-04
  1147.5      1.42290E-04
  1152.5      1.41120E-04
  1157.5      1.39890E-04
  1162.5      1.37580E-04
  1167.5      1.36840E-04
  1172.5      1.36530E-04
  1177.5      1.35420E-04
  1182.5      1.34260E-04
  1187.5      1.33210E-04
  1192.5      1.32150E-04
  1197.5      1.30270E-04
  1202.5      1.30060E-04
  1207.5      1.29000E-04
  1212.5      1.27930E-04
  1217.5      1.26990E-04
  1222.5      1.25990E-04
  1227.5      1.25010E-04
  1232.5      1.24030E-04
  1237.5      1.23070E-04
  1242.5      1.22120E-04
  1247.5      1.21180E-04
  1252.5      1.20140E-04
  1257.5      1.19290E-04
  1262.5      1.18410E-04
  1267.5      1.17520E-04
  1272.5      1.16620E-04
  1277.5      1.14570E-04
  1282.5      1.08750E-04
  1287.5      1.13670E-04
  1292.5      1.13170E-04
  1297.5      1.12050E-04
  1302.5      1.11480E-04
  1307.5      1.10680E-04
  1312.5      1.09870E-04
  1317.5      1.09060E-04
  1322.5      1.08270E-04
  1327.5      1.07480E-04
  1332.5      1.06700E-04
  1337.5      1.05930E-04
  1342.5      1.05140E-04
  1347.5      1.04410E-04
  1352.5      1.03660E-04
  1357.5      1.02930E-04
  1362.5      1.02190E-04
  1367.5      1.01480E-04
  1372.5      1.00730E-04
  1377.5      1.00060E-04
  1382.5      9.93620E-05
  1387.5      9.86680E-05
  1392.5      9.79680E-05
  1397.5      9.73050E-05
