 Castelli and Kurucz 2004-2012 Atmosphere
 T     45000.     G    4.50000 [+0.2] N(He)/Ntot=0.07828 VTURB=2.0  L/H=1.25 NO
 Wavelength  Eddington Hnu
   (nm)    (ergs/s/cm2/Hz/sr)
  9.0900      1.82090E-21
  9.3500      5.73690E-21
  9.6100      1.66890E-20
  9.7700      3.22450E-20
  9.9600      6.72750E-20
  10.200      1.64100E-19
  10.380      3.12290E-19
  10.560      5.81890E-19
  10.770      1.17260E-18
  11.040      2.77870E-18
  11.400      8.25170E-18
  11.780      2.41920E-17
  12.130      6.19600E-17
  12.480      1.49830E-16
  12.710      2.61320E-16
  12.840      3.58560E-16
  13.050      5.77530E-16
  13.240      8.78910E-16
  13.390      1.22030E-15
  13.660      2.13250E-15
  13.980      4.11020E-15
  14.330      7.98090E-15
  14.720      1.56090E-14
  15.100      3.15580E-14
  15.520      6.31150E-14
  15.880      1.12100E-13
  16.200      2.06360E-13
  16.600      3.73790E-13
  17.030      6.57140E-13
  17.340      9.78430E-13
  17.680      1.54670E-12
  18.020      2.37610E-12
  18.170      2.73930E-12
  18.610      4.79630E-12
  19.100      8.18640E-12
  19.390      1.16580E-11
  19.840      1.86110E-11
  20.180      2.46980E-11
  20.500      3.51010E-11
  21.050      5.80350E-11
  21.620      9.40970E-11
  21.980      1.29330E-10
  22.300      1.63730E-10
  22.680      2.21510E-10
  23.000      3.93930E-08
  23.400      1.42740E-07
  24.000      2.02300E-07
  24.650      4.02100E-07
  25.240      1.40640E-06
  25.680      4.19950E-06
  26.000      4.12650E-06
  26.400      2.68760E-05
  26.850      3.25330E-05
  27.350      4.20140E-05
  27.850      2.52570E-05
  28.400      5.77960E-05
  29.000      1.02430E-04
  29.600      8.17760E-05
  30.100      6.72770E-05
  30.800      1.11370E-04
  31.800      2.76920E-05
  32.800      4.37700E-05
  33.800      3.22810E-05
  34.800      3.70900E-05
  35.700      1.08350E-04
  36.600      2.67100E-04
  37.500      3.73690E-04
  38.500      3.15670E-04
  39.500      6.06860E-04
  40.500      1.05740E-03
  41.400      1.04770E-03
  42.200      9.72110E-04
  43.000      9.51110E-04
  44.100      1.25940E-03
  45.100      1.33460E-03
  46.000      1.10920E-03
  47.000      1.30470E-03
  48.000      1.57520E-03
  49.000      1.21760E-03
  50.000      1.95040E-03
  50.600      1.50690E-03
  51.200      2.03490E-03
  52.000      1.93900E-03
  53.000      1.83390E-03
  54.000      1.50660E-03
  55.000      1.24700E-03
  56.000      1.75970E-03
  57.000      2.23780E-03
  58.000      2.27900E-03
  59.000      2.33320E-03
  60.000      1.96550E-03
  61.000      1.66120E-03
  62.000      2.31370E-03
  63.000      2.07080E-03
  64.000      2.54490E-03
  65.000      2.40020E-03
  65.800      2.12170E-03
  66.500      2.58520E-03
  67.500      2.69320E-03
  68.500      2.38740E-03
  69.500      2.72370E-03
  70.500      2.36580E-03
  71.600      2.76520E-03
  72.600      2.87820E-03
  73.500      2.88400E-03
  74.500      2.76410E-03
  75.500      2.74420E-03
  76.500      2.41950E-03
  77.500      2.77910E-03
  78.500      2.38560E-03
  79.500      2.75750E-03
  80.500      2.87500E-03
  81.500      2.88550E-03
  82.500      2.92940E-03
  83.500      2.61850E-03
  84.500      2.89400E-03
  85.500      2.74740E-03
  86.500      2.94600E-03
  87.500      2.98430E-03
  88.500      2.93530E-03
  89.500      2.92600E-03
  90.500      2.87200E-03
  91.500      2.20990E-03
  92.500      3.41760E-03
  93.500      4.39250E-03
  94.500      4.83270E-03
  95.500      5.52100E-03
  96.500      5.76780E-03
  97.500      4.68630E-03
  98.500      5.35670E-03
  99.500      4.81170E-03
  100.50      4.90640E-03
  101.50      5.09090E-03
  102.50      4.89410E-03
  103.50      5.48960E-03
  104.50      5.69810E-03
  105.50      5.64750E-03
  106.50      5.44470E-03
  107.50      5.62460E-03
  108.50      5.29380E-03
  109.50      5.51370E-03
  110.50      5.48680E-03
  111.50      5.47950E-03
  112.50      5.36040E-03
  113.50      5.51870E-03
  114.50      5.57350E-03
  115.50      5.36070E-03
  116.50      5.10530E-03
  117.50      4.69180E-03
  118.50      5.08990E-03
  119.50      4.84660E-03
  120.50      4.85660E-03
  121.50      4.28270E-03
  122.50      4.72830E-03
  123.50      4.60850E-03
  124.50      4.50820E-03
  125.50      4.70910E-03
  126.50      4.77920E-03
  127.50      4.82970E-03
  128.50      4.81830E-03
  129.50      4.87010E-03
  130.50      4.73370E-03
  131.50      4.73120E-03
  132.50      4.69410E-03
  133.50      4.65980E-03
  134.50      4.63570E-03
  135.50      4.48990E-03
  136.50      4.33800E-03
  137.50      4.18650E-03
  138.50      4.29630E-03
  139.50      4.21100E-03
  140.50      4.03070E-03
  141.50      4.45800E-03
  142.50      4.20740E-03
  143.50      4.39280E-03
  144.20      4.18380E-03
  144.70      4.21640E-03
  145.50      4.13750E-03
  146.50      4.15320E-03
  147.50      4.18200E-03
  148.50      4.24160E-03
  149.50      4.16010E-03
  150.50      4.14130E-03
  151.20      4.14910E-03
  151.70      4.05900E-03
  152.50      4.11020E-03
  153.50      3.87460E-03
  154.50      3.30100E-03
  155.50      3.41090E-03
  156.50      3.77510E-03
  157.50      3.88320E-03
  158.50      3.82910E-03
  159.50      3.88590E-03
  160.50      3.75500E-03
  161.50      3.69640E-03
  162.50      3.75490E-03
  163.50      3.77960E-03
  164.50      3.64180E-03
  165.50      3.78030E-03
  166.50      3.75740E-03
  167.20      3.60820E-03
  167.70      3.85320E-03
  168.50      3.82470E-03
  169.50      3.82820E-03
  170.50      3.73490E-03
  171.50      3.59450E-03
  172.50      3.60270E-03
  173.50      3.72950E-03
  174.50      3.70630E-03
  175.50      3.66830E-03
  176.50      3.63840E-03
  177.50      3.59530E-03
  178.50      3.61930E-03
  179.50      3.55100E-03
  180.50      3.53570E-03
  181.50      3.48730E-03
  182.50      3.47360E-03
  183.50      3.46740E-03
  184.50      3.47250E-03
  185.50      3.45090E-03
  186.50      3.44740E-03
  187.50      3.39710E-03
  188.50      3.36820E-03
  189.50      3.40440E-03
  190.50      3.38490E-03
  191.50      3.36630E-03
  192.50      3.25130E-03
  193.50      3.33060E-03
  194.50      3.31500E-03
  195.50      3.24610E-03
  196.70      3.25520E-03
  197.60      3.22370E-03
  198.40      3.23690E-03
  199.50      3.20420E-03
  200.50      3.19850E-03
  201.50      3.17670E-03
  202.50      3.16000E-03
  203.50      3.12120E-03
  204.50      3.08440E-03
  205.50      2.33850E-03
  206.50      2.27020E-03
  207.40      2.35190E-03
  207.80      2.42540E-03
  208.50      2.63510E-03
  209.50      2.91900E-03
  210.50      2.94570E-03
  211.50      2.96670E-03
  212.50      2.93330E-03
  213.50      2.93520E-03
  214.50      2.91060E-03
  215.50      2.92690E-03
  216.50      2.79000E-03
  217.50      2.90540E-03
  218.50      2.80810E-03
  219.50      2.88270E-03
  220.50      2.86190E-03
  221.50      2.75030E-03
  222.50      2.82830E-03
  223.50      2.81210E-03
  224.50      2.79050E-03
  225.50      2.69790E-03
  226.50      2.75390E-03
  227.50      2.75240E-03
  228.50      2.70960E-03
  229.50      2.65960E-03
  230.50      2.61060E-03
  231.50      2.64600E-03
  232.50      2.65780E-03
  233.50      2.64180E-03
  234.50      2.60890E-03
  235.50      2.58080E-03
  236.50      2.56060E-03
  237.50      2.53090E-03
  238.50      2.42590E-03
  239.50      2.48720E-03
  240.50      2.46830E-03
  241.50      2.46370E-03
  242.50      2.47740E-03
  243.50      2.45220E-03
  244.50      2.44190E-03
  245.50      2.40930E-03
  246.50      2.40560E-03
  247.50      2.41210E-03
  248.50      2.37430E-03
  249.50      2.18850E-03
  250.50      2.35100E-03
  251.30      2.20500E-03
  251.80      2.29290E-03
  252.50      2.30300E-03
  253.50      2.31920E-03
  254.50      2.31530E-03
  255.50      2.29840E-03
  256.50      2.28890E-03
  257.50      2.26880E-03
  258.50      2.25750E-03
  259.50      2.20120E-03
  260.50      2.23550E-03
  261.50      2.19550E-03
  262.50      2.21090E-03
  263.50      2.20050E-03
  264.50      2.17660E-03
  265.50      2.17250E-03
  266.50      2.15940E-03
  267.50      2.12310E-03
  268.50      2.12920E-03
  269.50      2.11010E-03
  270.50      2.11690E-03
  271.50      2.10040E-03
  272.50      2.08870E-03
  273.50      2.01960E-03
  274.50      2.06910E-03
  275.50      2.05100E-03
  276.50      2.04240E-03
  277.50      2.02720E-03
  278.50      2.00070E-03
  279.50      1.98950E-03
  280.50      1.99010E-03
  281.50      1.97930E-03
  282.50      1.96250E-03
  283.50      1.96070E-03
  284.50      1.95260E-03
  285.50      1.93950E-03
  286.50      1.91230E-03
  287.50      1.89790E-03
  288.50      1.90210E-03
  289.50      1.89050E-03
  291.00      1.87900E-03
  293.00      1.86420E-03
  295.00      1.84370E-03
  297.00      1.81910E-03
  299.00      1.79200E-03
  301.00      1.77450E-03
  303.00      1.74490E-03
  305.00      1.73510E-03
  307.00      1.70710E-03
  309.00      1.70410E-03
  311.00      1.68710E-03
  313.00      1.66860E-03
  315.00      1.65780E-03
  317.00      1.63860E-03
  319.00      1.62570E-03
  321.00      1.57950E-03
  323.00      1.59450E-03
  325.00      1.57930E-03
  327.00      1.54850E-03
  329.00      1.54380E-03
  331.00      1.52720E-03
  333.00      1.51160E-03
  335.00      1.48610E-03
  337.00      1.47970E-03
  339.00      1.46340E-03
  341.00      1.44750E-03
  343.00      1.44260E-03
  345.00      1.41960E-03
  347.00      1.41290E-03
  349.00      1.40010E-03
  351.00      1.39130E-03
  353.00      1.37410E-03
  355.00      1.36260E-03
  357.00      1.34970E-03
  359.00      1.33810E-03
  361.00      1.32390E-03
  363.00      1.31020E-03
  364.00      1.27960E-03
  365.00      1.15340E-03
  367.00      1.14450E-03
  369.00      1.13900E-03
  371.00      1.13870E-03
  373.00      1.15460E-03
  375.00      1.17580E-03
  377.00      1.19210E-03
  379.00      1.21380E-03
  381.00      1.22880E-03
  383.00      1.18040E-03
  385.00      1.22620E-03
  387.00      1.22360E-03
  389.00      1.14010E-03
  391.00      1.21070E-03
  393.00      1.18780E-03
  395.00      1.18650E-03
  397.00      1.09450E-03
  399.00      1.16990E-03
  401.00      1.16180E-03
  403.00      1.13370E-03
  405.00      1.14300E-03
  407.00      1.13230E-03
  409.00      1.09810E-03
  411.00      1.04430E-03
  413.00      1.10270E-03
  415.00      1.09560E-03
  417.00      1.08770E-03
  419.00      1.07550E-03
  421.00      1.05380E-03
  423.00      1.06300E-03
  425.00      1.05390E-03
  427.00      1.04550E-03
  429.00      1.03720E-03
  431.00      1.02600E-03
  433.00      9.91190E-04
  435.00      9.55150E-04
  437.00      9.98890E-04
  439.00      9.88290E-04
  441.00      9.79200E-04
  443.00      9.76880E-04
  445.00      9.67650E-04
  447.00      9.58950E-04
  449.00      9.54970E-04
  451.00      9.43640E-04
  453.00      9.36010E-04
  455.00      9.13910E-04
  457.00      9.24030E-04
  459.00      9.16860E-04
  461.00      9.11580E-04
  463.00      8.99710E-04
  465.00      8.79420E-04
  467.00      8.88280E-04
  469.00      8.54030E-04
  471.00      8.78370E-04
  473.00      8.73460E-04
  475.00      8.67380E-04
  477.00      8.60540E-04
  479.00      8.52610E-04
  481.00      8.47670E-04
  483.00      8.40740E-04
  485.00      8.20960E-04
  487.00      7.77160E-04
  489.00      8.21650E-04
  491.00      8.16440E-04
  493.00      8.09930E-04
  495.00      8.05510E-04
  497.00      7.99660E-04
  499.00      7.94420E-04
  501.00      7.86700E-04
  503.00      7.82390E-04
  505.00      7.76470E-04
  507.00      7.71570E-04
  509.00      7.66560E-04
  511.00      7.60960E-04
  513.00      7.55050E-04
  515.00      7.50160E-04
  517.00      7.45590E-04
  519.00      7.40320E-04
  521.00      7.34720E-04
  523.00      7.30330E-04
  525.00      7.24120E-04
  527.00      7.18940E-04
  529.00      7.15460E-04
  531.00      7.10580E-04
  533.00      7.05580E-04
  535.00      7.01150E-04
  537.00      6.96270E-04
  539.00      6.91600E-04
  541.00      6.73670E-04
  543.00      6.82580E-04
  545.00      6.78080E-04
  547.00      6.73230E-04
  549.00      6.69120E-04
  551.00      6.63950E-04
  553.00      6.60420E-04
  555.00      6.56170E-04
  557.00      6.50990E-04
  559.00      6.45250E-04
  561.00      6.43470E-04
  563.00      6.39290E-04
  565.00      6.35180E-04
  567.00      6.31090E-04
  569.00      6.16650E-04
  571.00      5.76070E-04
  573.00      5.72690E-04
  575.00      5.69150E-04
  577.00      5.66300E-04
  579.00      5.63600E-04
  581.00      5.57150E-04
  583.00      5.60130E-04
  585.00      5.60010E-04
  587.00      5.57110E-04
  589.00      5.60040E-04
  591.00      5.60690E-04
  593.00      5.61880E-04
  595.00      5.63840E-04
  597.00      5.65410E-04
  599.00      5.67190E-04
  601.00      5.65430E-04
  603.00      5.63190E-04
  605.00      5.60800E-04
  607.00      5.57000E-04
  609.00      5.54760E-04
  611.00      5.50560E-04
  613.00      5.47490E-04
  615.00      5.45300E-04
  617.00      5.39770E-04
  619.00      5.38990E-04
  621.00      5.36050E-04
  623.00      5.29960E-04
  625.00      5.29220E-04
  627.00      5.26610E-04
  629.00      5.23650E-04
  631.00      5.16570E-04
  633.00      5.17290E-04
  635.00      5.14520E-04
  637.00      5.11620E-04
  639.00      5.08100E-04
  641.00      5.00850E-04
  643.00      5.02900E-04
  645.00      4.99740E-04
  647.00      4.96830E-04
  649.00      4.94300E-04
  651.00      4.91010E-04
  653.00      4.82530E-04
  655.00      4.80670E-04
  657.00      4.50110E-04
  659.00      4.79770E-04
  661.00      4.77950E-04
  663.00      4.75300E-04
  665.00      4.72660E-04
  667.00      4.68030E-04
  669.00      4.60040E-04
  671.00      4.64160E-04
  673.00      4.62050E-04
  675.00      4.59440E-04
  677.00      4.57160E-04
  679.00      4.54800E-04
  681.00      4.52310E-04
  683.00      4.49880E-04
  685.00      4.47410E-04
  687.00      4.44930E-04
  689.00      4.35500E-04
  691.00      4.39970E-04
  693.00      4.37930E-04
  695.00      4.35590E-04
  697.00      4.33280E-04
  699.00      4.30960E-04
  701.00      4.28460E-04
  703.00      4.25770E-04
  705.00      4.23770E-04
  707.00      4.20810E-04
  709.00      4.19760E-04
  711.00      4.17170E-04
  713.00      4.14980E-04
  715.00      4.13230E-04
  717.00      4.06280E-04
  719.00      4.06340E-04
  721.00      4.06780E-04
  723.00      4.04760E-04
  725.00      4.02690E-04
  727.00      4.00630E-04
  729.00      3.98340E-04
  731.00      3.96200E-04
  733.00      3.94530E-04
  735.00      3.92540E-04
  737.00      3.90370E-04
  739.00      3.88240E-04
  741.00      3.86430E-04
  743.00      3.84690E-04
  745.00      3.82310E-04
  747.00      3.80770E-04
  749.00      3.78290E-04
  751.00      3.76850E-04
  753.00      3.75180E-04
  755.00      3.73260E-04
  757.00      3.71340E-04
  759.00      3.62880E-04
  761.00      3.67240E-04
  763.00      3.65920E-04
  765.00      3.64170E-04
  767.00      3.62380E-04
  769.00      3.60140E-04
  771.00      3.58590E-04
  773.00      3.56570E-04
  775.00      3.55190E-04
  777.00      3.53820E-04
  779.00      3.51980E-04
  781.00      3.50410E-04
  783.00      3.48680E-04
  785.00      3.46330E-04
  787.00      3.45160E-04
  789.00      3.43690E-04
  791.00      3.42170E-04
  793.00      3.40580E-04
  795.00      3.38890E-04
  797.00      3.36990E-04
  799.00      3.35790E-04
  801.00      3.34210E-04
  803.00      3.32440E-04
  805.00      3.31110E-04
  807.00      3.29570E-04
  809.00      3.28040E-04
  811.00      3.26530E-04
  813.00      3.25020E-04
  815.00      3.23520E-04
  817.00      3.21690E-04
  819.00      3.18870E-04
  821.00      3.03090E-04
  823.00      2.99570E-04
  825.00      3.00050E-04
  827.00      2.99130E-04
  829.00      2.97900E-04
  831.00      2.96670E-04
  833.00      2.95010E-04
  835.00      2.94000E-04
  837.00      2.92980E-04
  839.00      2.91910E-04
  841.00      2.90960E-04
  843.00      2.90020E-04
  845.00      2.89060E-04
  847.00      2.88210E-04
  849.00      2.87530E-04
  851.00      2.86380E-04
  853.00      2.86150E-04
  855.00      2.84980E-04
  857.00      2.84850E-04
  859.00      2.83670E-04
  861.00      2.82980E-04
  863.00      2.83480E-04
  865.00      2.82450E-04
  867.00      2.79330E-04
  869.00      2.82040E-04
  871.00      2.82060E-04
  873.00      2.81050E-04
  875.00      2.74940E-04
  877.00      2.79150E-04
  879.00      2.80350E-04
  881.00      2.80000E-04
  883.00      2.79180E-04
  885.00      2.74430E-04
  887.00      2.67030E-04
  889.00      2.75020E-04
  891.00      2.75110E-04
  893.00      2.73800E-04
  895.00      2.73250E-04
  897.00      2.72020E-04
  899.00      2.69570E-04
  901.00      2.58050E-04
  903.00      2.62330E-04
  905.00      2.66880E-04
  907.00      2.66530E-04
  909.00      2.65570E-04
  911.00      2.63720E-04
  913.00      2.63390E-04
  915.00      2.62470E-04
  917.00      2.61190E-04
  919.00      2.59710E-04
  921.00      2.56200E-04
  923.00      2.42220E-04
  925.00      2.53370E-04
  927.00      2.55380E-04
  929.00      2.54890E-04
  931.00      2.53860E-04
  933.00      2.52570E-04
  935.00      2.45690E-04
  937.00      2.49180E-04
  939.00      2.49630E-04
  941.00      2.48630E-04
  943.00      2.47740E-04
  945.00      2.46780E-04
  947.00      2.45750E-04
  949.00      2.44730E-04
  951.00      2.43050E-04
  953.00      2.39050E-04
  955.00      2.25580E-04
  957.00      2.38350E-04
  959.00      2.39570E-04
  961.00      2.39020E-04
  963.00      2.37960E-04
  965.00      2.37170E-04
  967.00      2.36250E-04
  969.00      2.35320E-04
  971.00      2.33040E-04
  973.00      2.33260E-04
  975.00      2.32150E-04
  977.00      2.29580E-04
  979.00      2.30740E-04
  981.00      2.29850E-04
  983.00      2.28840E-04
  985.00      2.28080E-04
  987.00      2.27200E-04
  989.00      2.26320E-04
  991.00      2.25400E-04
  993.00      2.24580E-04
  995.00      2.23720E-04
  997.00      2.22860E-04
  999.00      2.22010E-04
  1002.5      2.16940E-04
  1007.5      2.12810E-04
  1012.5      2.12240E-04
  1017.5      2.14350E-04
  1022.5      2.12340E-04
  1027.5      2.10260E-04
  1032.5      2.08240E-04
  1037.5      2.06490E-04
  1042.5      2.03290E-04
  1047.5      2.02750E-04
  1052.5      2.00900E-04
  1057.5      1.99080E-04
  1062.5      1.97300E-04
  1067.5      1.95520E-04
  1072.5      1.93780E-04
  1077.5      1.92060E-04
  1082.5      1.89950E-04
  1087.5      1.88600E-04
  1092.5      1.80040E-04
  1097.5      1.83960E-04
  1102.5      1.83750E-04
  1107.5      1.82190E-04
  1112.5      1.80620E-04
  1117.5      1.79200E-04
  1122.5      1.77640E-04
  1127.5      1.76110E-04
  1132.5      1.74610E-04
  1137.5      1.73170E-04
  1142.5      1.71720E-04
  1147.5      1.70280E-04
  1152.5      1.68860E-04
  1157.5      1.67390E-04
  1162.5      1.64030E-04
  1167.5      1.63220E-04
  1172.5      1.63340E-04
  1177.5      1.62020E-04
  1182.5      1.60640E-04
  1187.5      1.59380E-04
  1192.5      1.58090E-04
  1197.5      1.56590E-04
  1202.5      1.55570E-04
  1207.5      1.54310E-04
  1212.5      1.53050E-04
  1217.5      1.51890E-04
  1222.5      1.50690E-04
  1227.5      1.49500E-04
  1232.5      1.48320E-04
  1237.5      1.47170E-04
  1242.5      1.46030E-04
  1247.5      1.44900E-04
  1252.5      1.43760E-04
  1257.5      1.42660E-04
  1262.5      1.41580E-04
  1267.5      1.40500E-04
  1272.5      1.39430E-04
  1277.5      1.37800E-04
  1282.5      1.31550E-04
  1287.5      1.36090E-04
  1292.5      1.35280E-04
  1297.5      1.34230E-04
  1302.5      1.33270E-04
  1307.5      1.32280E-04
  1312.5      1.31310E-04
  1317.5      1.30340E-04
  1322.5      1.29390E-04
  1327.5      1.28440E-04
  1332.5      1.27510E-04
  1337.5      1.26580E-04
  1342.5      1.25660E-04
  1347.5      1.24760E-04
  1352.5      1.23870E-04
  1357.5      1.22980E-04
  1362.5      1.22110E-04
  1367.5      1.21240E-04
  1372.5      1.20380E-04
  1377.5      1.19530E-04
  1382.5      1.18690E-04
  1387.5      1.17860E-04
  1392.5      1.17040E-04
  1397.5      1.16230E-04
