 Castelli and Kurucz 2004-2012 Atmosphere
 T     48000.     G    4.50000 [+0.2] N(He)/Ntot=0.07828 VTURB=2.0  L/H=1.25 NO
 Wavelength  Eddington Hnu
   (nm)    (ergs/s/cm2/Hz/sr)
  9.0900      1.27200E-19
  9.3500      3.65310E-19
  9.6100      9.68170E-19
  9.7700      1.78090E-18
  9.9600      3.50140E-18
  10.200      7.95610E-18
  10.380      1.43930E-17
  10.560      2.55520E-17
  10.770      4.88010E-17
  11.040      1.08370E-16
  11.400      2.97090E-16
  11.780      8.02130E-16
  12.130      1.93320E-15
  12.480      4.37810E-15
  12.710      7.38450E-15
  12.840      1.06850E-14
  13.050      1.67290E-14
  13.240      2.47770E-14
  13.390      3.37350E-14
  13.660      5.72560E-14
  13.980      1.05280E-13
  14.330      1.95000E-13
  14.720      3.56490E-13
  15.100      6.93540E-13
  15.520      1.32450E-12
  15.880      2.31160E-12
  16.200      5.29970E-12
  16.600      9.24800E-12
  17.030      1.52050E-11
  17.340      2.17040E-11
  17.680      3.34250E-11
  18.020      5.05740E-11
  18.170      5.51700E-11
  18.610      9.82400E-11
  19.100      1.58780E-10
  19.390      2.34760E-10
  19.840      3.68390E-10
  20.180      4.43130E-10
  20.500      6.51180E-10
  21.050      1.02320E-09
  21.620      1.59200E-09
  21.980      2.14640E-09
  22.300      2.57810E-09
  22.680      3.34510E-09
  23.000      1.62870E-07
  23.400      7.27810E-07
  24.000      1.34380E-06
  24.650      3.90290E-06
  25.240      1.73710E-05
  25.680      4.83630E-05
  26.000      3.85460E-05
  26.400      1.28630E-04
  26.850      1.45120E-04
  27.350      1.77280E-04
  27.850      1.19930E-04
  28.400      2.26590E-04
  29.000      3.61450E-04
  29.600      3.12430E-04
  30.100      2.37010E-04
  30.800      2.62030E-04
  31.800      6.92890E-05
  32.800      9.22650E-05
  33.800      6.60390E-05
  34.800      7.42540E-05
  35.700      1.99680E-04
  36.600      4.77890E-04
  37.500      6.40060E-04
  38.500      5.05060E-04
  39.500      9.62850E-04
  40.500      1.63710E-03
  41.400      1.65080E-03
  42.200      1.48630E-03
  43.000      1.47550E-03
  44.100      1.98930E-03
  45.100      2.06590E-03
  46.000      1.74600E-03
  47.000      2.05150E-03
  48.000      2.41190E-03
  49.000      2.07380E-03
  50.000      3.10680E-03
  50.600      2.56380E-03
  51.200      3.11220E-03
  52.000      3.02400E-03
  53.000      2.90110E-03
  54.000      2.31880E-03
  55.000      1.88390E-03
  56.000      2.59930E-03
  57.000      3.28560E-03
  58.000      3.43060E-03
  59.000      3.47790E-03
  60.000      3.03650E-03
  61.000      2.39190E-03
  62.000      3.28640E-03
  63.000      2.78590E-03
  64.000      3.60520E-03
  65.000      3.41660E-03
  65.800      3.08400E-03
  66.500      3.69160E-03
  67.500      3.74980E-03
  68.500      3.37820E-03
  69.500      3.79070E-03
  70.500      3.38310E-03
  71.600      3.72510E-03
  72.600      3.91590E-03
  73.500      3.88450E-03
  74.500      3.72440E-03
  75.500      3.65820E-03
  76.500      3.18770E-03
  77.500      3.72040E-03
  78.500      3.19770E-03
  79.500      3.66920E-03
  80.500      3.86130E-03
  81.500      3.84510E-03
  82.500      3.88950E-03
  83.500      3.55680E-03
  84.500      3.82730E-03
  85.500      3.61060E-03
  86.500      3.86860E-03
  87.500      3.91450E-03
  88.500      3.82370E-03
  89.500      3.78400E-03
  90.500      3.71110E-03
  91.500      2.85390E-03
  92.500      4.16650E-03
  93.500      5.07290E-03
  94.500      5.48280E-03
  95.500      6.32000E-03
  96.500      6.42270E-03
  97.500      5.46880E-03
  98.500      6.03590E-03
  99.500      5.40190E-03
  100.50      5.53600E-03
  101.50      5.66370E-03
  102.50      5.57930E-03
  103.50      6.14990E-03
  104.50      6.35880E-03
  105.50      6.31530E-03
  106.50      6.11550E-03
  107.50      6.35830E-03
  108.50      5.98500E-03
  109.50      6.20610E-03
  110.50      6.21630E-03
  111.50      6.21980E-03
  112.50      6.14060E-03
  113.50      6.26950E-03
  114.50      6.32020E-03
  115.50      6.15750E-03
  116.50      5.84030E-03
  117.50      5.54760E-03
  118.50      5.90170E-03
  119.50      5.58430E-03
  120.50      5.60260E-03
  121.50      4.99470E-03
  122.50      5.47090E-03
  123.50      5.19390E-03
  124.50      5.05620E-03
  125.50      5.36640E-03
  126.50      5.41420E-03
  127.50      5.42420E-03
  128.50      5.40230E-03
  129.50      5.46850E-03
  130.50      5.31930E-03
  131.50      5.27740E-03
  132.50      5.21710E-03
  133.50      5.17380E-03
  134.50      5.12830E-03
  135.50      4.97050E-03
  136.50      4.76700E-03
  137.50      4.57460E-03
  138.50      4.75460E-03
  139.50      4.68920E-03
  140.50      4.48280E-03
  141.50      4.97010E-03
  142.50      4.76430E-03
  143.50      4.92730E-03
  144.20      4.65910E-03
  144.70      4.69720E-03
  145.50      4.62480E-03
  146.50      4.62030E-03
  147.50      4.67590E-03
  148.50      4.72860E-03
  149.50      4.63310E-03
  150.50      4.57200E-03
  151.20      4.57270E-03
  151.70      4.46610E-03
  152.50      4.55590E-03
  153.50      4.35290E-03
  154.50      3.83150E-03
  155.50      3.91500E-03
  156.50      4.27500E-03
  157.50      4.37000E-03
  158.50      4.29360E-03
  159.50      4.36270E-03
  160.50      4.24600E-03
  161.50      4.20240E-03
  162.50      4.25370E-03
  163.50      4.28200E-03
  164.50      4.09550E-03
  165.50      4.24570E-03
  166.50      4.22940E-03
  167.20      4.09570E-03
  167.70      4.28930E-03
  168.50      4.27650E-03
  169.50      4.29370E-03
  170.50      4.17510E-03
  171.50      4.02840E-03
  172.50      4.03490E-03
  173.50      4.17430E-03
  174.50      4.13970E-03
  175.50      4.10830E-03
  176.50      4.06750E-03
  177.50      4.01860E-03
  178.50      4.02600E-03
  179.50      3.95890E-03
  180.50      3.94080E-03
  181.50      3.86210E-03
  182.50      3.86970E-03
  183.50      3.85400E-03
  184.50      3.86270E-03
  185.50      3.83200E-03
  186.50      3.83090E-03
  187.50      3.78660E-03
  188.50      3.75270E-03
  189.50      3.77470E-03
  190.50      3.75410E-03
  191.50      3.73450E-03
  192.50      3.62020E-03
  193.50      3.68510E-03
  194.50      3.66660E-03
  195.50      3.61250E-03
  196.70      3.60320E-03
  197.60      3.55990E-03
  198.40      3.58010E-03
  199.50      3.53880E-03
  200.50      3.53120E-03
  201.50      3.50840E-03
  202.50      3.49070E-03
  203.50      3.44310E-03
  204.50      3.40470E-03
  205.50      2.63640E-03
  206.50      2.56630E-03
  207.40      2.65290E-03
  207.80      2.73180E-03
  208.50      2.94650E-03
  209.50      3.23400E-03
  210.50      3.24720E-03
  211.50      3.26310E-03
  212.50      3.23150E-03
  213.50      3.23020E-03
  214.50      3.19970E-03
  215.50      3.21370E-03
  216.50      3.07950E-03
  217.50      3.18380E-03
  218.50      3.09300E-03
  219.50      3.15450E-03
  220.50      3.13330E-03
  221.50      3.02330E-03
  222.50      3.09930E-03
  223.50      3.07920E-03
  224.50      3.05850E-03
  225.50      2.96300E-03
  226.50      3.01470E-03
  227.50      3.01380E-03
  228.50      2.96840E-03
  229.50      2.92490E-03
  230.50      2.86330E-03
  231.50      2.89870E-03
  232.50      2.91090E-03
  233.50      2.89060E-03
  234.50      2.85580E-03
  235.50      2.82490E-03
  236.50      2.80400E-03
  237.50      2.77730E-03
  238.50      2.67020E-03
  239.50      2.73010E-03
  240.50      2.69890E-03
  241.50      2.69550E-03
  242.50      2.70970E-03
  243.50      2.68140E-03
  244.50      2.66980E-03
  245.50      2.62990E-03
  246.50      2.62720E-03
  247.50      2.63560E-03
  248.50      2.59440E-03
  249.50      2.46140E-03
  250.50      2.57610E-03
  251.30      2.42220E-03
  251.80      2.51290E-03
  252.50      2.51690E-03
  253.50      2.53560E-03
  254.50      2.53320E-03
  255.50      2.51570E-03
  256.50      2.50590E-03
  257.50      2.48220E-03
  258.50      2.46820E-03
  259.50      2.40790E-03
  260.50      2.44670E-03
  261.50      2.40120E-03
  262.50      2.41940E-03
  263.50      2.40620E-03
  264.50      2.38200E-03
  265.50      2.37480E-03
  266.50      2.36310E-03
  267.50      2.32650E-03
  268.50      2.33080E-03
  269.50      2.30750E-03
  270.50      2.31360E-03
  271.50      2.29820E-03
  272.50      2.28330E-03
  273.50      2.21130E-03
  274.50      2.26010E-03
  275.50      2.23900E-03
  276.50      2.23090E-03
  277.50      2.21290E-03
  278.50      2.18380E-03
  279.50      2.17670E-03
  280.50      2.17300E-03
  281.50      2.15900E-03
  282.50      2.14080E-03
  283.50      2.14010E-03
  284.50      2.12980E-03
  285.50      2.11380E-03
  286.50      2.07560E-03
  287.50      2.05530E-03
  288.50      2.06910E-03
  289.50      2.05550E-03
  291.00      2.04770E-03
  293.00      2.03330E-03
  295.00      2.01000E-03
  297.00      1.98480E-03
  299.00      1.95690E-03
  301.00      1.93750E-03
  303.00      1.90630E-03
  305.00      1.89310E-03
  307.00      1.85750E-03
  309.00      1.85760E-03
  311.00      1.83730E-03
  313.00      1.81760E-03
  315.00      1.80510E-03
  317.00      1.78500E-03
  319.00      1.76970E-03
  321.00      1.72180E-03
  323.00      1.73720E-03
  325.00      1.71970E-03
  327.00      1.68790E-03
  329.00      1.68170E-03
  331.00      1.66370E-03
  333.00      1.64610E-03
  335.00      1.61860E-03
  337.00      1.61090E-03
  339.00      1.59000E-03
  341.00      1.57240E-03
  343.00      1.56930E-03
  345.00      1.54500E-03
  347.00      1.53540E-03
  349.00      1.52060E-03
  351.00      1.51190E-03
  353.00      1.49320E-03
  355.00      1.48130E-03
  357.00      1.46540E-03
  359.00      1.45320E-03
  361.00      1.43960E-03
  363.00      1.42290E-03
  364.00      1.39250E-03
  365.00      1.26140E-03
  367.00      1.25120E-03
  369.00      1.24510E-03
  371.00      1.24570E-03
  373.00      1.26040E-03
  375.00      1.28200E-03
  377.00      1.29850E-03
  379.00      1.31750E-03
  381.00      1.33050E-03
  383.00      1.28260E-03
  385.00      1.32540E-03
  387.00      1.32410E-03
  389.00      1.24000E-03
  391.00      1.30560E-03
  393.00      1.28220E-03
  395.00      1.28180E-03
  397.00      1.19060E-03
  399.00      1.26190E-03
  401.00      1.25390E-03
  403.00      1.22490E-03
  405.00      1.23170E-03
  407.00      1.22180E-03
  409.00      1.18840E-03
  411.00      1.13340E-03
  413.00      1.18950E-03
  415.00      1.18200E-03
  417.00      1.17230E-03
  419.00      1.15940E-03
  421.00      1.13710E-03
  423.00      1.14510E-03
  425.00      1.13550E-03
  427.00      1.12640E-03
  429.00      1.11720E-03
  431.00      1.10540E-03
  433.00      1.07110E-03
  435.00      1.03410E-03
  437.00      1.07550E-03
  439.00      1.06520E-03
  441.00      1.05440E-03
  443.00      1.05210E-03
  445.00      1.04190E-03
  447.00      1.03480E-03
  449.00      1.02880E-03
  451.00      1.01810E-03
  453.00      1.00940E-03
  455.00      9.86610E-04
  457.00      9.95490E-04
  459.00      9.88020E-04
  461.00      9.81750E-04
  463.00      9.69260E-04
  465.00      9.51570E-04
  467.00      9.56510E-04
  469.00      9.20600E-04
  471.00      9.45180E-04
  473.00      9.39460E-04
  475.00      9.32610E-04
  477.00      9.25480E-04
  479.00      9.15890E-04
  481.00      9.11480E-04
  483.00      9.04120E-04
  485.00      8.85060E-04
  487.00      8.40750E-04
  489.00      8.83750E-04
  491.00      8.78090E-04
  493.00      8.71890E-04
  495.00      8.66220E-04
  497.00      8.59730E-04
  499.00      8.54120E-04
  501.00      8.46480E-04
  503.00      8.41500E-04
  505.00      8.34620E-04
  507.00      8.29240E-04
  509.00      8.23950E-04
  511.00      8.17300E-04
  513.00      8.10840E-04
  515.00      8.06040E-04
  517.00      8.01570E-04
  519.00      7.95850E-04
  521.00      7.89430E-04
  523.00      7.84930E-04
  525.00      7.78450E-04
  527.00      7.73130E-04
  529.00      7.68930E-04
  531.00      7.63660E-04
  533.00      7.58250E-04
  535.00      7.53520E-04
  537.00      7.48150E-04
  539.00      7.43180E-04
  541.00      7.24970E-04
  543.00      7.33480E-04
  545.00      7.28610E-04
  547.00      7.23270E-04
  549.00      7.18920E-04
  551.00      7.13520E-04
  553.00      7.09560E-04
  555.00      7.04970E-04
  557.00      6.99220E-04
  559.00      6.93410E-04
  561.00      6.91250E-04
  563.00      6.86710E-04
  565.00      6.82240E-04
  567.00      6.77800E-04
  569.00      6.63170E-04
  571.00      6.21450E-04
  573.00      6.17750E-04
  575.00      6.13810E-04
  577.00      6.10790E-04
  579.00      6.07850E-04
  581.00      6.00230E-04
  583.00      6.04140E-04
  585.00      6.03730E-04
  587.00      6.01740E-04
  589.00      6.03440E-04
  591.00      6.03910E-04
  593.00      6.04920E-04
  595.00      6.06760E-04
  597.00      6.08080E-04
  599.00      6.09520E-04
  601.00      6.07260E-04
  603.00      6.04950E-04
  605.00      6.02240E-04
  607.00      5.98110E-04
  609.00      5.95590E-04
  611.00      5.91160E-04
  613.00      5.87700E-04
  615.00      5.85290E-04
  617.00      5.79510E-04
  619.00      5.78550E-04
  621.00      5.75240E-04
  623.00      5.68890E-04
  625.00      5.67940E-04
  627.00      5.65050E-04
  629.00      5.61920E-04
  631.00      5.54580E-04
  633.00      5.55170E-04
  635.00      5.52100E-04
  637.00      5.48950E-04
  639.00      5.45020E-04
  641.00      5.37720E-04
  643.00      5.39540E-04
  645.00      5.36270E-04
  647.00      5.33150E-04
  649.00      5.30330E-04
  651.00      5.26860E-04
  653.00      5.18120E-04
  655.00      5.16450E-04
  657.00      4.85060E-04
  659.00      5.14850E-04
  661.00      5.12700E-04
  663.00      5.09840E-04
  665.00      5.07000E-04
  667.00      5.02680E-04
  669.00      4.94440E-04
  671.00      4.97980E-04
  673.00      4.95730E-04
  675.00      4.92970E-04
  677.00      4.90350E-04
  679.00      4.87780E-04
  681.00      4.85090E-04
  683.00      4.82480E-04
  685.00      4.79830E-04
  687.00      4.77190E-04
  689.00      4.67510E-04
  691.00      4.71920E-04
  693.00      4.69620E-04
  695.00      4.67100E-04
  697.00      4.64610E-04
  699.00      4.62120E-04
  701.00      4.59470E-04
  703.00      4.56640E-04
  705.00      4.54340E-04
  707.00      4.51820E-04
  709.00      4.50040E-04
  711.00      4.47000E-04
  713.00      4.44680E-04
  715.00      4.43020E-04
  717.00      4.35740E-04
  719.00      4.35790E-04
  721.00      4.35850E-04
  723.00      4.33910E-04
  725.00      4.31700E-04
  727.00      4.29490E-04
  729.00      4.27190E-04
  731.00      4.24780E-04
  733.00      4.22910E-04
  735.00      4.20790E-04
  737.00      4.18500E-04
  739.00      4.16010E-04
  741.00      4.14260E-04
  743.00      4.12350E-04
  745.00      4.09870E-04
  747.00      4.08150E-04
  749.00      4.05730E-04
  751.00      4.03960E-04
  753.00      4.02120E-04
  755.00      4.00080E-04
  757.00      3.98090E-04
  759.00      3.89380E-04
  761.00      3.93720E-04
  763.00      3.92230E-04
  765.00      3.90320E-04
  767.00      3.88210E-04
  769.00      3.86060E-04
  771.00      3.84200E-04
  773.00      3.82220E-04
  775.00      3.80720E-04
  777.00      3.79150E-04
  779.00      3.77250E-04
  781.00      3.75490E-04
  783.00      3.73640E-04
  785.00      3.71250E-04
  787.00      3.69910E-04
  789.00      3.68290E-04
  791.00      3.66620E-04
  793.00      3.64910E-04
  795.00      3.63050E-04
  797.00      3.61120E-04
  799.00      3.59760E-04
  801.00      3.58060E-04
  803.00      3.56200E-04
  805.00      3.54730E-04
  807.00      3.53080E-04
  809.00      3.51430E-04
  811.00      3.49800E-04
  813.00      3.48180E-04
  815.00      3.46570E-04
  817.00      3.44660E-04
  819.00      3.41650E-04
  821.00      3.25180E-04
  823.00      3.21440E-04
  825.00      3.21930E-04
  827.00      3.20930E-04
  829.00      3.19580E-04
  831.00      3.18230E-04
  833.00      3.16540E-04
  835.00      3.15460E-04
  837.00      3.14280E-04
  839.00      3.13090E-04
  841.00      3.12090E-04
  843.00      3.11060E-04
  845.00      3.10050E-04
  847.00      3.09120E-04
  849.00      3.08390E-04
  851.00      3.07270E-04
  853.00      3.06880E-04
  855.00      3.05630E-04
  857.00      3.05440E-04
  859.00      3.04260E-04
  861.00      3.03450E-04
  863.00      3.03840E-04
  865.00      3.02830E-04
  867.00      2.99700E-04
  869.00      3.02240E-04
  871.00      3.02150E-04
  873.00      3.01190E-04
  875.00      2.95140E-04
  877.00      2.99160E-04
  879.00      3.00150E-04
  881.00      2.99750E-04
  883.00      2.98800E-04
  885.00      2.94200E-04
  887.00      2.86820E-04
  889.00      2.94400E-04
  891.00      2.94320E-04
  893.00      2.92920E-04
  895.00      2.92370E-04
  897.00      2.91110E-04
  899.00      2.88570E-04
  901.00      2.77240E-04
  903.00      2.81350E-04
  905.00      2.85540E-04
  907.00      2.85210E-04
  909.00      2.84050E-04
  911.00      2.82040E-04
  913.00      2.81680E-04
  915.00      2.80620E-04
  917.00      2.79280E-04
  919.00      2.77850E-04
  921.00      2.74430E-04
  923.00      2.60460E-04
  925.00      2.71410E-04
  927.00      2.73190E-04
  929.00      2.72570E-04
  931.00      2.71480E-04
  933.00      2.70110E-04
  935.00      2.62970E-04
  937.00      2.66530E-04
  939.00      2.66940E-04
  941.00      2.65900E-04
  943.00      2.64880E-04
  945.00      2.63800E-04
  947.00      2.62820E-04
  949.00      2.61580E-04
  951.00      2.60120E-04
  953.00      2.56140E-04
  955.00      2.42550E-04
  957.00      2.55180E-04
  959.00      2.56250E-04
  961.00      2.55530E-04
  963.00      2.54460E-04
  965.00      2.53530E-04
  967.00      2.52530E-04
  969.00      2.51540E-04
  971.00      2.49800E-04
  973.00      2.49450E-04
  975.00      2.48170E-04
  977.00      2.45470E-04
  979.00      2.46640E-04
  981.00      2.45680E-04
  983.00      2.44620E-04
  985.00      2.43780E-04
  987.00      2.42830E-04
  989.00      2.41890E-04
  991.00      2.40920E-04
  993.00      2.40030E-04
  995.00      2.39110E-04
  997.00      2.38190E-04
  999.00      2.37270E-04
  1002.5      2.32300E-04
  1007.5      2.27970E-04
  1012.5      2.27040E-04
  1017.5      2.29070E-04
  1022.5      2.26910E-04
  1027.5      2.24710E-04
  1032.5      2.22600E-04
  1037.5      2.20650E-04
  1042.5      2.17280E-04
  1047.5      2.16640E-04
  1052.5      2.14660E-04
  1057.5      2.12720E-04
  1062.5      2.10800E-04
  1067.5      2.08900E-04
  1072.5      2.07040E-04
  1077.5      2.05190E-04
  1082.5      2.03170E-04
  1087.5      2.01530E-04
  1092.5      1.92980E-04
  1097.5      1.96760E-04
  1102.5      1.96320E-04
  1107.5      1.94620E-04
  1112.5      1.92940E-04
  1117.5      1.91410E-04
  1122.5      1.89750E-04
  1127.5      1.88110E-04
  1132.5      1.86500E-04
  1137.5      1.84950E-04
  1142.5      1.83400E-04
  1147.5      1.81860E-04
  1152.5      1.80340E-04
  1157.5      1.78790E-04
  1162.5      1.75240E-04
  1167.5      1.74370E-04
  1172.5      1.74430E-04
  1177.5      1.73010E-04
  1182.5      1.71550E-04
  1187.5      1.70190E-04
  1192.5      1.68810E-04
  1197.5      1.67340E-04
  1202.5      1.66120E-04
  1207.5      1.64760E-04
  1212.5      1.63420E-04
  1217.5      1.62170E-04
  1222.5      1.60890E-04
  1227.5      1.59620E-04
  1232.5      1.58360E-04
  1237.5      1.57130E-04
  1242.5      1.55900E-04
  1247.5      1.54690E-04
  1252.5      1.53490E-04
  1257.5      1.52310E-04
  1262.5      1.51140E-04
  1267.5      1.49990E-04
  1272.5      1.48840E-04
  1277.5      1.47290E-04
  1282.5      1.40840E-04
  1287.5      1.45320E-04
  1292.5      1.44400E-04
  1297.5      1.43310E-04
  1302.5      1.42250E-04
  1307.5      1.41200E-04
  1312.5      1.40150E-04
  1317.5      1.39120E-04
  1322.5      1.38100E-04
  1327.5      1.37090E-04
  1332.5      1.36090E-04
  1337.5      1.35100E-04
  1342.5      1.34120E-04
  1347.5      1.33150E-04
  1352.5      1.32200E-04
  1357.5      1.31250E-04
  1362.5      1.30310E-04
  1367.5      1.29390E-04
  1372.5      1.28470E-04
  1377.5      1.27560E-04
  1382.5      1.26670E-04
  1387.5      1.25780E-04
  1392.5      1.24900E-04
  1397.5      1.24030E-04
