 Castelli and Kurucz 2004-2012 Atmosphere
 T     34000.     G    4.00000 [+0.2] N(He)/Ntot=0.07828 VTURB=2.0  L/H=1.25 NO
 Wavelength  Eddington Hnu
   (nm)    (ergs/s/cm2/Hz/sr)
  9.0900      6.19510E-31
  9.3500      3.25290E-30
  9.6100      1.56870E-29
  9.7700      4.00730E-29
  9.9600      1.17230E-28
  10.200      4.32290E-28
  10.380      1.11110E-27
  10.560      2.77410E-27
  10.770      7.79080E-27
  11.040      2.78720E-26
  11.400      1.39910E-25
  11.780      6.97230E-25
  12.130      2.81730E-24
  12.480      1.05700E-23
  12.710      2.42760E-23
  12.840      3.83540E-23
  13.050      7.87670E-23
  13.240      1.48370E-22
  13.390      2.41640E-22
  13.660      5.66440E-22
  13.980      1.49510E-21
  14.330      4.11390E-21
  14.720      1.19750E-20
  15.100      3.25090E-20
  15.520      9.22720E-20
  15.880      2.16280E-19
  16.200      4.46700E-19
  16.600      1.06980E-18
  17.030      2.60470E-18
  17.340      4.84190E-18
  17.680      9.35780E-18
  18.020      1.75640E-17
  18.170      2.31880E-17
  18.610      5.00980E-17
  19.100      1.13790E-16
  19.390      1.81510E-16
  19.840      3.66220E-16
  20.180      6.07620E-16
  20.500      9.65650E-16
  21.050      2.07950E-15
  21.620      4.39310E-15
  21.980      7.00450E-15
  22.300      1.04070E-14
  22.680      1.66100E-14
  23.000      1.21530E-11
  23.400      2.71000E-11
  24.000      4.20480E-11
  24.650      6.93140E-11
  25.240      1.16060E-10
  25.680      1.65420E-10
  26.000      2.98120E-10
  26.400      6.72820E-10
  26.850      1.06320E-09
  27.350      1.41240E-09
  27.850      1.62350E-09
  28.400      3.36600E-09
  29.000      4.83020E-09
  29.600      6.11990E-09
  30.100      1.54120E-08
  30.800      3.43240E-08
  31.800      8.55680E-08
  32.800      1.27500E-07
  33.800      2.53880E-07
  34.800      4.01020E-07
  35.700      8.94470E-07
  36.600      2.17520E-06
  37.500      2.54080E-06
  38.500      3.32730E-06
  39.500      6.70720E-06
  40.500      9.65100E-06
  41.400      1.05690E-05
  42.200      1.19880E-05
  43.000      1.21560E-05
  44.100      1.52790E-05
  45.100      1.62160E-05
  46.000      1.52770E-05
  47.000      1.80400E-05
  48.000      2.19630E-05
  49.000      1.99140E-05
  50.000      2.64740E-05
  50.600      3.38660E-05
  51.200      1.62310E-04
  52.000      1.57790E-04
  53.000      1.44240E-04
  54.000      1.33940E-04
  55.000      1.43040E-04
  56.000      2.08240E-04
  57.000      2.50540E-04
  58.000      2.41410E-04
  59.000      2.56120E-04
  60.000      1.86330E-04
  61.000      2.34910E-04
  62.000      3.16830E-04
  63.000      3.09970E-04
  64.000      3.37100E-04
  65.000      3.23970E-04
  65.800      2.53480E-04
  66.500      3.34210E-04
  67.500      4.02330E-04
  68.500      3.00460E-04
  69.500      4.21620E-04
  70.500      3.13300E-04
  71.600      4.77280E-04
  72.600      4.80870E-04
  73.500      4.94850E-04
  74.500      4.52240E-04
  75.500      4.66010E-04
  76.500      4.58620E-04
  77.500      5.07470E-04
  78.500      5.02910E-04
  79.500      5.48110E-04
  80.500      5.30130E-04
  81.500      5.38550E-04
  82.500      5.81260E-04
  83.500      4.56760E-04
  84.500      5.72370E-04
  85.500      5.71490E-04
  86.500      6.06260E-04
  87.500      6.18730E-04
  88.500      6.34090E-04
  89.500      6.45270E-04
  90.500      6.34750E-04
  91.500      6.32420E-04
  92.500      1.38210E-03
  93.500      2.03350E-03
  94.500      2.34470E-03
  95.500      2.54920E-03
  96.500      2.79190E-03
  97.500      1.53300E-03
  98.500      2.37330E-03
  99.500      2.18960E-03
  100.50      2.27390E-03
  101.50      2.44630E-03
  102.50      2.22790E-03
  103.50      2.53240E-03
  104.50      2.82980E-03
  105.50      2.75100E-03
  106.50      2.53180E-03
  107.50      2.60250E-03
  108.50      2.46850E-03
  109.50      2.60820E-03
  110.50      2.55460E-03
  111.50      2.55010E-03
  112.50      2.23770E-03
  113.50      2.54320E-03
  114.50      2.54620E-03
  115.50      2.42070E-03
  116.50      2.37440E-03
  117.50      1.71030E-03
  118.50      2.23850E-03
  119.50      2.20180E-03
  120.50      2.17920E-03
  121.50      1.90170E-03
  122.50      2.14790E-03
  123.50      2.29590E-03
  124.50      2.25180E-03
  125.50      2.27600E-03
  126.50      2.36890E-03
  127.50      2.47390E-03
  128.50      2.49980E-03
  129.50      2.43140E-03
  130.50      2.41640E-03
  131.50      2.54650E-03
  132.50      2.51110E-03
  133.50      2.46760E-03
  134.50      2.51320E-03
  135.50      2.45110E-03
  136.50      2.41750E-03
  137.50      2.36560E-03
  138.50      2.34290E-03
  139.50      2.03090E-03
  140.50      2.03950E-03
  141.50      2.35440E-03
  142.50      2.13420E-03
  143.50      2.29970E-03
  144.20      2.26080E-03
  144.70      2.27300E-03
  145.50      2.18940E-03
  146.50      2.18420E-03
  147.50      2.22440E-03
  148.50      2.25780E-03
  149.50      2.21150E-03
  150.50      2.21130E-03
  151.20      2.19710E-03
  151.70      2.21880E-03
  152.50      2.15700E-03
  153.50      1.93440E-03
  154.50      1.58070E-03
  155.50      1.63850E-03
  156.50      1.89820E-03
  157.50      2.01160E-03
  158.50      2.03970E-03
  159.50      2.04910E-03
  160.50      1.94620E-03
  161.50      1.88810E-03
  162.50      1.95370E-03
  163.50      1.98570E-03
  164.50      1.98970E-03
  165.50      2.02460E-03
  166.50      2.01410E-03
  167.20      1.86830E-03
  167.70      2.18130E-03
  168.50      2.10000E-03
  169.50      2.05910E-03
  170.50      2.05830E-03
  171.50      1.97590E-03
  172.50      1.94310E-03
  173.50      2.02920E-03
  174.50      2.03020E-03
  175.50      2.01140E-03
  176.50      2.01120E-03
  177.50      1.96540E-03
  178.50      2.01120E-03
  179.50      1.97420E-03
  180.50      1.98430E-03
  181.50      1.96310E-03
  182.50      1.94240E-03
  183.50      1.96430E-03
  184.50      1.92290E-03
  185.50      1.95360E-03
  186.50      1.96150E-03
  187.50      1.92730E-03
  188.50      1.87940E-03
  189.50      1.88900E-03
  190.50      1.92610E-03
  191.50      1.90320E-03
  192.50      1.80980E-03
  193.50      1.91210E-03
  194.50      1.93120E-03
  195.50      1.80070E-03
  196.70      1.88490E-03
  197.60      1.90880E-03
  198.40      1.88760E-03
  199.50      1.85240E-03
  200.50      1.89800E-03
  201.50      1.89870E-03
  202.50      1.89910E-03
  203.50      1.86110E-03
  204.50      1.84640E-03
  205.50      1.46580E-03
  206.50      1.42830E-03
  207.40      1.50720E-03
  207.80      1.52310E-03
  208.50      1.66660E-03
  209.50      1.76440E-03
  210.50      1.78440E-03
  211.50      1.81800E-03
  212.50      1.79460E-03
  213.50      1.80100E-03
  214.50      1.78710E-03
  215.50      1.80070E-03
  216.50      1.73250E-03
  217.50      1.78730E-03
  218.50      1.74520E-03
  219.50      1.78870E-03
  220.50      1.77610E-03
  221.50      1.72320E-03
  222.50      1.75140E-03
  223.50      1.74200E-03
  224.50      1.72540E-03
  225.50      1.68930E-03
  226.50      1.71330E-03
  227.50      1.71240E-03
  228.50      1.68340E-03
  229.50      1.56000E-03
  230.50      1.63610E-03
  231.50      1.64680E-03
  232.50      1.65530E-03
  233.50      1.64450E-03
  234.50      1.62970E-03
  235.50      1.60960E-03
  236.50      1.59660E-03
  237.50      1.57580E-03
  238.50      1.52140E-03
  239.50      1.54720E-03
  240.50      1.55450E-03
  241.50      1.55090E-03
  242.50      1.55510E-03
  243.50      1.54100E-03
  244.50      1.53500E-03
  245.50      1.52400E-03
  246.50      1.51640E-03
  247.50      1.51190E-03
  248.50      1.47520E-03
  249.50      1.14170E-03
  250.50      1.43940E-03
  251.30      1.40200E-03
  251.80      1.43480E-03
  252.50      1.46460E-03
  253.50      1.46720E-03
  254.50      1.45580E-03
  255.50      1.44710E-03
  256.50      1.44200E-03
  257.50      1.43370E-03
  258.50      1.42720E-03
  259.50      1.40760E-03
  260.50      1.41580E-03
  261.50      1.39670E-03
  262.50      1.39960E-03
  263.50      1.39700E-03
  264.50      1.38250E-03
  265.50      1.37970E-03
  266.50      1.36480E-03
  267.50      1.34000E-03
  268.50      1.35450E-03
  269.50      1.33950E-03
  270.50      1.34200E-03
  271.50      1.32910E-03
  272.50      1.32640E-03
  273.50      1.29780E-03
  274.50      1.31930E-03
  275.50      1.31030E-03
  276.50      1.30020E-03
  277.50      1.30090E-03
  278.50      1.28660E-03
  279.50      1.26130E-03
  280.50      1.27330E-03
  281.50      1.27280E-03
  282.50      1.26470E-03
  283.50      1.25500E-03
  284.50      1.25640E-03
  285.50      1.24820E-03
  286.50      1.23490E-03
  287.50      1.23130E-03
  288.50      1.22750E-03
  289.50      1.22170E-03
  291.00      1.20740E-03
  293.00      1.20280E-03
  295.00      1.18740E-03
  297.00      1.17480E-03
  299.00      1.15530E-03
  301.00      1.14150E-03
  303.00      1.12520E-03
  305.00      1.12300E-03
  307.00      1.11510E-03
  309.00      1.10310E-03
  311.00      1.09860E-03
  313.00      1.08550E-03
  315.00      1.07920E-03
  317.00      1.06730E-03
  319.00      1.05910E-03
  321.00      1.03820E-03
  323.00      1.03850E-03
  325.00      1.03290E-03
  327.00      1.01340E-03
  329.00      1.01040E-03
  331.00      9.99650E-04
  333.00      9.89300E-04
  335.00      9.74150E-04
  337.00      9.69140E-04
  339.00      9.66440E-04
  341.00      9.56800E-04
  343.00      9.50550E-04
  345.00      9.36200E-04
  347.00      9.32680E-04
  349.00      9.25410E-04
  351.00      9.18330E-04
  353.00      9.09810E-04
  355.00      9.01560E-04
  357.00      8.94930E-04
  359.00      8.84990E-04
  361.00      8.75020E-04
  363.00      8.68740E-04
  364.00      8.58090E-04
  365.00      8.02310E-04
  367.00      7.97220E-04
  369.00      7.91810E-04
  371.00      7.82150E-04
  373.00      7.83830E-04
  375.00      8.00100E-04
  377.00      8.02490E-04
  379.00      8.23810E-04
  381.00      8.41420E-04
  383.00      7.91020E-04
  385.00      8.45320E-04
  387.00      8.32910E-04
  389.00      7.70040E-04
  391.00      8.37020E-04
  393.00      8.19550E-04
  395.00      8.13510E-04
  397.00      7.39320E-04
  399.00      8.08630E-04
  401.00      8.00490E-04
  403.00      7.82330E-04
  405.00      7.90330E-04
  407.00      7.73460E-04
  409.00      7.49120E-04
  411.00      7.08140E-04
  413.00      7.56690E-04
  415.00      7.53020E-04
  417.00      7.53160E-04
  419.00      7.45810E-04
  421.00      7.35740E-04
  423.00      7.38060E-04
  425.00      7.28140E-04
  427.00      7.20610E-04
  429.00      7.15930E-04
  431.00      7.05770E-04
  433.00      6.83000E-04
  435.00      6.50020E-04
  437.00      6.92190E-04
  439.00      6.82570E-04
  441.00      6.79250E-04
  443.00      6.79770E-04
  445.00      6.73840E-04
  447.00      6.61790E-04
  449.00      6.64940E-04
  451.00      6.54260E-04
  453.00      6.52270E-04
  455.00      6.41790E-04
  457.00      6.45700E-04
  459.00      6.38610E-04
  461.00      6.34960E-04
  463.00      6.26560E-04
  465.00      6.01930E-04
  467.00      6.18200E-04
  469.00      6.05020E-04
  471.00      6.09280E-04
  473.00      6.13490E-04
  475.00      6.08850E-04
  477.00      6.05470E-04
  479.00      6.01080E-04
  481.00      5.96240E-04
  483.00      5.91210E-04
  485.00      5.76310E-04
  487.00      5.37920E-04
  489.00      5.78170E-04
  491.00      5.74390E-04
  493.00      5.65860E-04
  495.00      5.65810E-04
  497.00      5.64370E-04
  499.00      5.60640E-04
  501.00      5.50420E-04
  503.00      5.51220E-04
  505.00      5.47010E-04
  507.00      5.45320E-04
  509.00      5.41580E-04
  511.00      5.37870E-04
  513.00      5.33810E-04
  515.00      5.30260E-04
  517.00      5.26650E-04
  519.00      5.23430E-04
  521.00      5.20160E-04
  523.00      5.16860E-04
  525.00      5.11790E-04
  527.00      5.08390E-04
  529.00      5.06720E-04
  531.00      5.03270E-04
  533.00      4.99970E-04
  535.00      4.96910E-04
  537.00      4.93600E-04
  539.00      4.90230E-04
  541.00      4.81460E-04
  543.00      4.84240E-04
  545.00      4.81100E-04
  547.00      4.77810E-04
  549.00      4.74860E-04
  551.00      4.71480E-04
  553.00      4.68830E-04
  555.00      4.66070E-04
  557.00      4.62740E-04
  559.00      4.58640E-04
  561.00      4.57390E-04
  563.00      4.54520E-04
  565.00      4.51590E-04
  567.00      4.48400E-04
  569.00      4.39060E-04
  571.00      4.25030E-04
  573.00      4.22700E-04
  575.00      4.19890E-04
  577.00      4.18060E-04
  579.00      4.15720E-04
  581.00      4.12380E-04
  583.00      4.11320E-04
  585.00      4.11290E-04
  587.00      4.03970E-04
  589.00      4.08890E-04
  591.00      4.08400E-04
  593.00      4.07720E-04
  595.00      4.07470E-04
  597.00      4.07420E-04
  599.00      4.06180E-04
  601.00      4.04840E-04
  603.00      4.02090E-04
  605.00      3.99930E-04
  607.00      3.97640E-04
  609.00      3.95730E-04
  611.00      3.92970E-04
  613.00      3.90810E-04
  615.00      3.88420E-04
  617.00      3.85630E-04
  619.00      3.84530E-04
  621.00      3.82470E-04
  623.00      3.79340E-04
  625.00      3.77800E-04
  627.00      3.75850E-04
  629.00      3.73810E-04
  631.00      3.70220E-04
  633.00      3.69590E-04
  635.00      3.67290E-04
  637.00      3.65470E-04
  639.00      3.63370E-04
  641.00      3.59950E-04
  643.00      3.59390E-04
  645.00      3.57020E-04
  647.00      3.54720E-04
  649.00      3.53010E-04
  651.00      3.50910E-04
  653.00      3.47160E-04
  655.00      3.43290E-04
  657.00      3.17030E-04
  659.00      3.42610E-04
  661.00      3.41780E-04
  663.00      3.40080E-04
  665.00      3.38150E-04
  667.00      3.33540E-04
  669.00      3.30490E-04
  671.00      3.32010E-04
  673.00      3.30010E-04
  675.00      3.28540E-04
  677.00      3.27350E-04
  679.00      3.25490E-04
  681.00      3.24030E-04
  683.00      3.22300E-04
  685.00      3.20550E-04
  687.00      3.18680E-04
  689.00      3.14840E-04
  691.00      3.15090E-04
  693.00      3.13990E-04
  695.00      3.12330E-04
  697.00      3.10730E-04
  699.00      3.09090E-04
  701.00      3.07210E-04
  703.00      3.05060E-04
  705.00      3.03940E-04
  707.00      2.99360E-04
  709.00      3.01220E-04
  711.00      2.99490E-04
  713.00      2.98000E-04
  715.00      2.96650E-04
  717.00      2.93700E-04
  719.00      2.92980E-04
  721.00      2.92170E-04
  723.00      2.89740E-04
  725.00      2.89060E-04
  727.00      2.87780E-04
  729.00      2.84910E-04
  731.00      2.84720E-04
  733.00      2.83460E-04
  735.00      2.82070E-04
  737.00      2.80610E-04
  739.00      2.79300E-04
  741.00      2.77850E-04
  743.00      2.76560E-04
  745.00      2.75000E-04
  747.00      2.73590E-04
  749.00      2.71600E-04
  751.00      2.71040E-04
  753.00      2.69760E-04
  755.00      2.68520E-04
  757.00      2.67150E-04
  759.00      2.63690E-04
  761.00      2.64180E-04
  763.00      2.63210E-04
  765.00      2.62020E-04
  767.00      2.60900E-04
  769.00      2.59040E-04
  771.00      2.58080E-04
  773.00      2.56480E-04
  775.00      2.55790E-04
  777.00      2.54760E-04
  779.00      2.53540E-04
  781.00      2.52320E-04
  783.00      2.51160E-04
  785.00      2.49680E-04
  787.00      2.48540E-04
  789.00      2.47470E-04
  791.00      2.46530E-04
  793.00      2.45380E-04
  795.00      2.44350E-04
  797.00      2.42990E-04
  799.00      2.42040E-04
  801.00      2.40930E-04
  803.00      2.39620E-04
  805.00      2.38750E-04
  807.00      2.37660E-04
  809.00      2.36440E-04
  811.00      2.35030E-04
  813.00      2.34450E-04
  815.00      2.33190E-04
  817.00      2.32190E-04
  819.00      2.30460E-04
  821.00      2.24980E-04
  823.00      2.23060E-04
  825.00      2.23100E-04
  827.00      2.21680E-04
  829.00      2.21250E-04
  831.00      2.20460E-04
  833.00      2.18970E-04
  835.00      2.17610E-04
  837.00      2.17320E-04
  839.00      2.16740E-04
  841.00      2.15830E-04
  843.00      2.15010E-04
  845.00      2.13690E-04
  847.00      2.13300E-04
  849.00      2.12540E-04
  851.00      2.10630E-04
  853.00      2.11160E-04
  855.00      2.09110E-04
  857.00      2.10500E-04
  859.00      2.07040E-04
  861.00      2.06740E-04
  863.00      2.09200E-04
  865.00      2.06830E-04
  867.00      2.00490E-04
  869.00      2.07270E-04
  871.00      2.07540E-04
  873.00      2.05120E-04
  875.00      1.94540E-04
  877.00      2.02510E-04
  879.00      2.05250E-04
  881.00      2.04740E-04
  883.00      2.03550E-04
  885.00      1.97490E-04
  887.00      1.88310E-04
  889.00      2.00330E-04
  891.00      2.00680E-04
  893.00      1.99810E-04
  895.00      1.99190E-04
  897.00      1.98460E-04
  899.00      1.95840E-04
  901.00      1.82730E-04
  903.00      1.88980E-04
  905.00      1.94640E-04
  907.00      1.93490E-04
  909.00      1.93430E-04
  911.00      1.92880E-04
  913.00      1.92280E-04
  915.00      1.91550E-04
  917.00      1.90440E-04
  919.00      1.89520E-04
  921.00      1.85400E-04
  923.00      1.71150E-04
  925.00      1.84100E-04
  927.00      1.86360E-04
  929.00      1.85970E-04
  931.00      1.84940E-04
  933.00      1.84450E-04
  935.00      1.81820E-04
  937.00      1.82580E-04
  939.00      1.82350E-04
  941.00      1.81380E-04
  943.00      1.80780E-04
  945.00      1.80130E-04
  947.00      1.79010E-04
  949.00      1.78660E-04
  951.00      1.76640E-04
  953.00      1.72990E-04
  955.00      1.60110E-04
  957.00      1.73660E-04
  959.00      1.74940E-04
  961.00      1.74280E-04
  963.00      1.73310E-04
  965.00      1.73270E-04
  967.00      1.72650E-04
  969.00      1.71910E-04
  971.00      1.67840E-04
  973.00      1.70070E-04
  975.00      1.69940E-04
  977.00      1.68890E-04
  979.00      1.68640E-04
  981.00      1.67980E-04
  983.00      1.67320E-04
  985.00      1.66690E-04
  987.00      1.66050E-04
  989.00      1.65300E-04
  991.00      1.64420E-04
  993.00      1.64200E-04
  995.00      1.63590E-04
  997.00      1.62910E-04
  999.00      1.62330E-04
  1002.5      1.57490E-04
  1007.5      1.54290E-04
  1012.5      1.56370E-04
  1017.5      1.56820E-04
  1022.5      1.55310E-04
  1027.5      1.53870E-04
  1032.5      1.52090E-04
  1037.5      1.51140E-04
  1042.5      1.49530E-04
  1047.5      1.48420E-04
  1052.5      1.47060E-04
  1057.5      1.45760E-04
  1062.5      1.44460E-04
  1067.5      1.43070E-04
  1072.5      1.41920E-04
  1077.5      1.40670E-04
  1082.5      1.38380E-04
  1087.5      1.38110E-04
  1092.5      1.30100E-04
  1097.5      1.34360E-04
  1102.5      1.34310E-04
  1107.5      1.33490E-04
  1112.5      1.32360E-04
  1117.5      1.31270E-04
  1122.5      1.30120E-04
  1127.5      1.29040E-04
  1132.5      1.27910E-04
  1137.5      1.26860E-04
  1142.5      1.25810E-04
  1147.5      1.24780E-04
  1152.5      1.23770E-04
  1157.5      1.22710E-04
  1162.5      1.21140E-04
  1167.5      1.20350E-04
  1172.5      1.19770E-04
  1177.5      1.18800E-04
  1182.5      1.17780E-04
  1187.5      1.16870E-04
  1192.5      1.15930E-04
  1197.5      1.14160E-04
  1202.5      1.14120E-04
  1207.5      1.13190E-04
  1212.5      1.12240E-04
  1217.5      1.11430E-04
  1222.5      1.10560E-04
  1227.5      1.09700E-04
  1232.5      1.08840E-04
  1237.5      1.08000E-04
  1242.5      1.07180E-04
  1247.5      1.06350E-04
  1252.5      1.05380E-04
  1257.5      1.04690E-04
  1262.5      1.03930E-04
  1267.5      1.03160E-04
  1272.5      1.02370E-04
  1277.5      1.00580E-04
  1282.5      9.56780E-05
  1287.5      9.98780E-05
  1292.5      9.93560E-05
  1297.5      9.82600E-05
  1302.5      9.78510E-05
  1307.5      9.71770E-05
  1312.5      9.64670E-05
  1317.5      9.57620E-05
  1322.5      9.50670E-05
  1327.5      9.43790E-05
  1332.5      9.36880E-05
  1337.5      9.30080E-05
  1342.5      9.23020E-05
  1347.5      9.16870E-05
  1352.5      9.10180E-05
  1357.5      9.03970E-05
  1362.5      8.97330E-05
  1367.5      8.91250E-05
  1372.5      8.84460E-05
  1377.5      8.78860E-05
  1382.5      8.72740E-05
  1387.5      8.66640E-05
  1392.5      8.60360E-05
  1397.5      8.54690E-05
