 Castelli and Kurucz 2004-2012 Atmosphere
 T     36000.     G    5.00000 [+0.2] N(He)/Ntot=0.07828 VTURB=2.0  L/H=1.25 NO
 Wavelength  Eddington Hnu
   (nm)    (ergs/s/cm2/Hz/sr)
  9.0900      3.19000E-28
  9.3500      1.42960E-27
  9.6100      5.93520E-27
  9.7700      1.38560E-26
  9.9600      3.65920E-26
  10.200      1.19130E-25
  10.380      2.80000E-25
  10.560      6.41030E-25
  10.770      1.63270E-24
  11.040      5.18170E-24
  11.400      2.23720E-23
  11.780      9.60900E-23
  12.130      3.41590E-22
  12.480      1.13660E-21
  12.710      2.42150E-21
  12.840      3.67150E-21
  13.050      7.06970E-21
  13.240      1.25880E-20
  13.390      1.96330E-20
  13.660      4.26880E-20
  13.980      1.03470E-19
  14.330      2.60780E-19
  14.720      6.92090E-19
  15.100      1.72400E-18
  15.520      4.47310E-18
  15.880      9.74310E-18
  16.200      1.88930E-17
  16.600      4.19470E-17
  17.030      9.44400E-17
  17.340      1.66180E-16
  17.680      3.02890E-16
  18.020      5.37070E-16
  18.170      6.91260E-16
  18.610      1.39320E-15
  19.100      2.93400E-15
  19.390      4.47920E-15
  19.840      8.45760E-15
  20.180      1.33690E-14
  20.500      2.03130E-14
  21.050      4.05690E-14
  21.620      7.94620E-14
  21.980      1.20900E-13
  22.300      1.72500E-13
  22.680      2.62380E-13
  23.000      8.72100E-11
  23.400      2.09830E-10
  24.000      3.16960E-10
  24.650      5.00410E-10
  25.240      7.98990E-10
  25.680      1.10480E-09
  26.000      1.78220E-09
  26.400      3.25390E-09
  26.850      4.86810E-09
  27.350      6.38690E-09
  27.850      7.43320E-09
  28.400      1.41260E-08
  29.000      1.97520E-08
  29.600      2.47970E-08
  30.100      5.10270E-08
  30.800      1.11400E-07
  31.800      2.30490E-07
  32.800      3.22860E-07
  33.800      5.81140E-07
  34.800      8.77490E-07
  35.700      1.80220E-06
  36.600      3.84480E-06
  37.500      4.45700E-06
  38.500      5.70110E-06
  39.500      1.01140E-05
  40.500      1.27710E-05
  41.400      1.42360E-05
  42.200      1.58850E-05
  43.000      1.67540E-05
  44.100      2.03150E-05
  45.100      2.22050E-05
  46.000      2.18940E-05
  47.000      2.52520E-05
  48.000      2.98710E-05
  49.000      3.00390E-05
  50.000      3.66130E-05
  50.600      4.68280E-05
  51.200      2.42900E-04
  52.000      2.32620E-04
  53.000      2.16050E-04
  54.000      1.99330E-04
  55.000      2.27510E-04
  56.000      3.01470E-04
  57.000      3.29420E-04
  58.000      3.16660E-04
  59.000      3.37380E-04
  60.000      2.76540E-04
  61.000      3.31150E-04
  62.000      4.07190E-04
  63.000      4.01050E-04
  64.000      4.19570E-04
  65.000      4.19940E-04
  65.800      3.58170E-04
  66.500      4.26890E-04
  67.500      4.81900E-04
  68.500      3.89750E-04
  69.500      5.08120E-04
  70.500      4.22180E-04
  71.600      5.58850E-04
  72.600      5.59260E-04
  73.500      5.72840E-04
  74.500      5.50050E-04
  75.500      5.59740E-04
  76.500      5.66420E-04
  77.500      5.95270E-04
  78.500      6.11440E-04
  79.500      6.32710E-04
  80.500      6.19310E-04
  81.500      6.29200E-04
  82.500      6.66860E-04
  83.500      5.66210E-04
  84.500      6.60660E-04
  85.500      6.61900E-04
  86.500      6.93340E-04
  87.500      7.05210E-04
  88.500      7.20770E-04
  89.500      7.33560E-04
  90.500      7.22770E-04
  91.500      6.66590E-04
  92.500      1.36950E-03
  93.500      2.11510E-03
  94.500      2.93560E-03
  95.500      3.34550E-03
  96.500      4.03630E-03
  97.500      1.98200E-03
  98.500      3.55300E-03
  99.500      3.16610E-03
  100.50      3.34180E-03
  101.50      3.54560E-03
  102.50      2.68630E-03
  103.50      3.59820E-03
  104.50      4.11750E-03
  105.50      3.99200E-03
  106.50      3.54820E-03
  107.50      3.71790E-03
  108.50      3.40870E-03
  109.50      3.72280E-03
  110.50      3.59980E-03
  111.50      3.61850E-03
  112.50      3.12380E-03
  113.50      3.56330E-03
  114.50      3.49890E-03
  115.50      3.34250E-03
  116.50      3.24480E-03
  117.50      2.36260E-03
  118.50      3.07590E-03
  119.50      3.01510E-03
  120.50      2.93840E-03
  121.50      2.22630E-03
  122.50      2.87600E-03
  123.50      3.10850E-03
  124.50      3.06110E-03
  125.50      3.08310E-03
  126.50      3.19510E-03
  127.50      3.31390E-03
  128.50      3.34950E-03
  129.50      3.19650E-03
  130.50      3.20940E-03
  131.50      3.38610E-03
  132.50      3.31090E-03
  133.50      3.26440E-03
  134.50      3.27990E-03
  135.50      3.23340E-03
  136.50      3.16080E-03
  137.50      3.10650E-03
  138.50      3.04720E-03
  139.50      2.64340E-03
  140.50      2.66320E-03
  141.50      3.02660E-03
  142.50      2.73860E-03
  143.50      2.95010E-03
  144.20      2.92090E-03
  144.70      2.92610E-03
  145.50      2.81860E-03
  146.50      2.80010E-03
  147.50      2.82370E-03
  148.50      2.86680E-03
  149.50      2.80360E-03
  150.50      2.77200E-03
  151.20      2.74650E-03
  151.70      2.76670E-03
  152.50      2.69810E-03
  153.50      2.40470E-03
  154.50      2.05130E-03
  155.50      2.09750E-03
  156.50      2.35490E-03
  157.50      2.47280E-03
  158.50      2.50610E-03
  159.50      2.52680E-03
  160.50      2.41160E-03
  161.50      2.32410E-03
  162.50      2.40660E-03
  163.50      2.42460E-03
  164.50      2.41980E-03
  165.50      2.48540E-03
  166.50      2.46490E-03
  167.20      2.30320E-03
  167.70      2.65360E-03
  168.50      2.55880E-03
  169.50      2.50440E-03
  170.50      2.49000E-03
  171.50      2.41310E-03
  172.50      2.33890E-03
  173.50      2.44280E-03
  174.50      2.44400E-03
  175.50      2.41970E-03
  176.50      2.40570E-03
  177.50      2.35060E-03
  178.50      2.40280E-03
  179.50      2.36300E-03
  180.50      2.36930E-03
  181.50      2.33620E-03
  182.50      2.31050E-03
  183.50      2.32960E-03
  184.50      2.25880E-03
  185.50      2.29240E-03
  186.50      2.30690E-03
  187.50      2.26830E-03
  188.50      2.19850E-03
  189.50      2.19510E-03
  190.50      2.24460E-03
  191.50      2.20710E-03
  192.50      2.09200E-03
  193.50      2.21760E-03
  194.50      2.24640E-03
  195.50      2.08840E-03
  196.70      2.18410E-03
  197.60      2.22350E-03
  198.40      2.17990E-03
  199.50      2.14150E-03
  200.50      2.18860E-03
  201.50      2.19030E-03
  202.50      2.19130E-03
  203.50      2.13890E-03
  204.50      2.12520E-03
  205.50      1.69640E-03
  206.50      1.64100E-03
  207.40      1.68600E-03
  207.80      1.68120E-03
  208.50      1.75750E-03
  209.50      1.87950E-03
  210.50      2.03030E-03
  211.50      2.07760E-03
  212.50      2.04710E-03
  213.50      2.05000E-03
  214.50      2.03280E-03
  215.50      2.04260E-03
  216.50      1.96250E-03
  217.50      2.03060E-03
  218.50      1.96690E-03
  219.50      2.02710E-03
  220.50      2.01500E-03
  221.50      1.93300E-03
  222.50      1.98540E-03
  223.50      1.97370E-03
  224.50      1.95190E-03
  225.50      1.88490E-03
  226.50      1.93700E-03
  227.50      1.93300E-03
  228.50      1.89450E-03
  229.50      1.76630E-03
  230.50      1.82040E-03
  231.50      1.85380E-03
  232.50      1.86090E-03
  233.50      1.84830E-03
  234.50      1.83490E-03
  235.50      1.81090E-03
  236.50      1.79680E-03
  237.50      1.77090E-03
  238.50      1.69400E-03
  239.50      1.73560E-03
  240.50      1.74580E-03
  241.50      1.73950E-03
  242.50      1.74170E-03
  243.50      1.72350E-03
  244.50      1.71740E-03
  245.50      1.70490E-03
  246.50      1.69830E-03
  247.50      1.69010E-03
  248.50      1.66070E-03
  249.50      1.37060E-03
  250.50      1.62050E-03
  251.30      1.53290E-03
  251.80      1.58840E-03
  252.50      1.63200E-03
  253.50      1.63310E-03
  254.50      1.61500E-03
  255.50      1.60540E-03
  256.50      1.59850E-03
  257.50      1.59030E-03
  258.50      1.58330E-03
  259.50      1.56420E-03
  260.50      1.56890E-03
  261.50      1.54940E-03
  262.50      1.55080E-03
  263.50      1.54480E-03
  264.50      1.52960E-03
  265.50      1.52500E-03
  266.50      1.50450E-03
  267.50      1.47760E-03
  268.50      1.49430E-03
  269.50      1.47280E-03
  270.50      1.47300E-03
  271.50      1.46050E-03
  272.50      1.45430E-03
  273.50      1.41580E-03
  274.50      1.44690E-03
  275.50      1.43830E-03
  276.50      1.42380E-03
  277.50      1.42850E-03
  278.50      1.41400E-03
  279.50      1.37900E-03
  280.50      1.39270E-03
  281.50      1.39570E-03
  282.50      1.38330E-03
  283.50      1.36820E-03
  284.50      1.37510E-03
  285.50      1.36440E-03
  286.50      1.35020E-03
  287.50      1.34660E-03
  288.50      1.34040E-03
  289.50      1.33140E-03
  291.00      1.31500E-03
  293.00      1.31110E-03
  295.00      1.29020E-03
  297.00      1.27880E-03
  299.00      1.25680E-03
  301.00      1.23950E-03
  303.00      1.22320E-03
  305.00      1.21960E-03
  307.00      1.21280E-03
  309.00      1.19370E-03
  311.00      1.19070E-03
  313.00      1.17450E-03
  315.00      1.16640E-03
  317.00      1.15210E-03
  319.00      1.14120E-03
  321.00      1.11960E-03
  323.00      1.12020E-03
  325.00      1.11360E-03
  327.00      1.09280E-03
  329.00      1.08840E-03
  331.00      1.07680E-03
  333.00      1.06430E-03
  335.00      1.04930E-03
  337.00      1.04220E-03
  339.00      1.03890E-03
  341.00      1.02810E-03
  343.00      1.02000E-03
  345.00      1.00420E-03
  347.00      9.99270E-04
  349.00      9.90670E-04
  351.00      9.82200E-04
  353.00      9.74670E-04
  355.00      9.64530E-04
  357.00      9.58260E-04
  359.00      9.44740E-04
  361.00      9.35830E-04
  363.00      9.27650E-04
  364.00      9.20370E-04
  365.00      8.71790E-04
  367.00      8.66630E-04
  369.00      8.59520E-04
  371.00      8.41990E-04
  373.00      8.41650E-04
  375.00      8.40050E-04
  377.00      8.28430E-04
  379.00      8.53150E-04
  381.00      8.79100E-04
  383.00      8.08520E-04
  385.00      8.93570E-04
  387.00      8.88990E-04
  389.00      7.76700E-04
  391.00      9.00330E-04
  393.00      8.90150E-04
  395.00      8.73050E-04
  397.00      7.44740E-04
  399.00      8.66480E-04
  401.00      8.65270E-04
  403.00      8.35220E-04
  405.00      8.57010E-04
  407.00      8.33210E-04
  409.00      7.84470E-04
  411.00      7.25060E-04
  413.00      8.14660E-04
  415.00      8.12880E-04
  417.00      8.15750E-04
  419.00      8.06390E-04
  421.00      7.96620E-04
  423.00      7.99260E-04
  425.00      7.86070E-04
  427.00      7.76520E-04
  429.00      7.70940E-04
  431.00      7.56580E-04
  433.00      7.07670E-04
  435.00      6.67300E-04
  437.00      7.40990E-04
  439.00      7.29940E-04
  441.00      7.32350E-04
  443.00      7.32880E-04
  445.00      7.26160E-04
  447.00      7.02230E-04
  449.00      7.15630E-04
  451.00      7.05890E-04
  453.00      7.03490E-04
  455.00      6.90500E-04
  457.00      6.95960E-04
  459.00      6.88180E-04
  461.00      6.81820E-04
  463.00      6.71200E-04
  465.00      6.45350E-04
  467.00      6.63420E-04
  469.00      6.49500E-04
  471.00      6.50940E-04
  473.00      6.58300E-04
  475.00      6.52780E-04
  477.00      6.50090E-04
  479.00      6.44880E-04
  481.00      6.38340E-04
  483.00      6.29810E-04
  485.00      5.95230E-04
  487.00      5.48180E-04
  489.00      6.14630E-04
  491.00      6.13130E-04
  493.00      6.00330E-04
  495.00      6.04740E-04
  497.00      6.04010E-04
  499.00      5.99590E-04
  501.00      5.85720E-04
  503.00      5.88700E-04
  505.00      5.83770E-04
  507.00      5.82750E-04
  509.00      5.78330E-04
  511.00      5.74020E-04
  513.00      5.69380E-04
  515.00      5.65490E-04
  517.00      5.61540E-04
  519.00      5.58230E-04
  521.00      5.54650E-04
  523.00      5.50900E-04
  525.00      5.45530E-04
  527.00      5.41750E-04
  529.00      5.39710E-04
  531.00      5.35890E-04
  533.00      5.32300E-04
  535.00      5.28730E-04
  537.00      5.25200E-04
  539.00      5.21460E-04
  541.00      5.10590E-04
  543.00      5.14730E-04
  545.00      5.11310E-04
  547.00      5.07810E-04
  549.00      5.04500E-04
  551.00      5.00990E-04
  553.00      4.97830E-04
  555.00      4.94870E-04
  557.00      4.91430E-04
  559.00      4.87150E-04
  561.00      4.85330E-04
  563.00      4.82210E-04
  565.00      4.78870E-04
  567.00      4.75210E-04
  569.00      4.66210E-04
  571.00      4.56100E-04
  573.00      4.53630E-04
  575.00      4.50390E-04
  577.00      4.48450E-04
  579.00      4.45600E-04
  581.00      4.41930E-04
  583.00      4.39120E-04
  585.00      4.38060E-04
  587.00      4.26470E-04
  589.00      4.32660E-04
  591.00      4.31880E-04
  593.00      4.30180E-04
  595.00      4.28640E-04
  597.00      4.27880E-04
  599.00      4.25990E-04
  601.00      4.24960E-04
  603.00      4.23040E-04
  605.00      4.21910E-04
  607.00      4.20000E-04
  609.00      4.17650E-04
  611.00      4.14950E-04
  613.00      4.12700E-04
  615.00      4.09560E-04
  617.00      4.07320E-04
  619.00      4.05400E-04
  621.00      4.03230E-04
  623.00      4.00750E-04
  625.00      3.98140E-04
  627.00      3.96040E-04
  629.00      3.93850E-04
  631.00      3.91050E-04
  633.00      3.89280E-04
  635.00      3.86770E-04
  637.00      3.84840E-04
  639.00      3.82560E-04
  641.00      3.79950E-04
  643.00      3.78250E-04
  645.00      3.75800E-04
  647.00      3.73100E-04
  649.00      3.71240E-04
  651.00      3.68490E-04
  653.00      3.64720E-04
  655.00      3.53500E-04
  657.00      3.21700E-04
  659.00      3.57440E-04
  661.00      3.58580E-04
  663.00      3.57310E-04
  665.00      3.55300E-04
  667.00      3.49360E-04
  669.00      3.47090E-04
  671.00      3.48700E-04
  673.00      3.46670E-04
  675.00      3.45120E-04
  677.00      3.43810E-04
  679.00      3.41410E-04
  681.00      3.40140E-04
  683.00      3.38270E-04
  685.00      3.36450E-04
  687.00      3.34460E-04
  689.00      3.31200E-04
  691.00      3.30400E-04
  693.00      3.29410E-04
  695.00      3.27630E-04
  697.00      3.25910E-04
  699.00      3.24110E-04
  701.00      3.22180E-04
  703.00      3.19930E-04
  705.00      3.18640E-04
  707.00      3.13280E-04
  709.00      3.15710E-04
  711.00      3.13920E-04
  713.00      3.12330E-04
  715.00      3.10830E-04
  717.00      3.08260E-04
  719.00      3.07010E-04
  721.00      3.06030E-04
  723.00      3.02940E-04
  725.00      3.02660E-04
  727.00      3.01340E-04
  729.00      2.98020E-04
  731.00      2.98150E-04
  733.00      2.96720E-04
  735.00      2.95230E-04
  737.00      2.93730E-04
  739.00      2.92290E-04
  741.00      2.90780E-04
  743.00      2.89360E-04
  745.00      2.87780E-04
  747.00      2.86100E-04
  749.00      2.84090E-04
  751.00      2.83540E-04
  753.00      2.82100E-04
  755.00      2.80820E-04
  757.00      2.79360E-04
  759.00      2.76240E-04
  761.00      2.76170E-04
  763.00      2.75170E-04
  765.00      2.73880E-04
  767.00      2.72640E-04
  769.00      2.70720E-04
  771.00      2.69700E-04
  773.00      2.67900E-04
  775.00      2.67370E-04
  777.00      2.66130E-04
  779.00      2.64870E-04
  781.00      2.63540E-04
  783.00      2.62330E-04
  785.00      2.60940E-04
  787.00      2.59550E-04
  789.00      2.58350E-04
  791.00      2.57400E-04
  793.00      2.56160E-04
  795.00      2.55090E-04
  797.00      2.53730E-04
  799.00      2.52630E-04
  801.00      2.51460E-04
  803.00      2.50130E-04
  805.00      2.49170E-04
  807.00      2.47980E-04
  809.00      2.46720E-04
  811.00      2.44970E-04
  813.00      2.44560E-04
  815.00      2.43300E-04
  817.00      2.42250E-04
  819.00      2.40300E-04
  821.00      2.36450E-04
  823.00      2.34430E-04
  825.00      2.34320E-04
  827.00      2.32760E-04
  829.00      2.32500E-04
  831.00      2.31700E-04
  833.00      2.30150E-04
  835.00      2.28600E-04
  837.00      2.28280E-04
  839.00      2.27670E-04
  841.00      2.26580E-04
  843.00      2.25660E-04
  845.00      2.23980E-04
  847.00      2.23760E-04
  849.00      2.22630E-04
  851.00      2.21060E-04
  853.00      2.20680E-04
  855.00      2.19770E-04
  857.00      2.19280E-04
  859.00      2.16600E-04
  861.00      2.16830E-04
  863.00      2.17210E-04
  865.00      2.14800E-04
  867.00      2.12080E-04
  869.00      2.14620E-04
  871.00      2.14670E-04
  873.00      2.11660E-04
  875.00      2.05570E-04
  877.00      2.08820E-04
  879.00      2.11830E-04
  881.00      2.11830E-04
  883.00      2.09970E-04
  885.00      2.02730E-04
  887.00      1.96800E-04
  889.00      2.06040E-04
  891.00      2.07900E-04
  893.00      2.07640E-04
  895.00      2.06900E-04
  897.00      2.05650E-04
  899.00      2.01260E-04
  901.00      1.88490E-04
  903.00      1.92970E-04
  905.00      2.00690E-04
  907.00      2.00400E-04
  909.00      2.01060E-04
  911.00      2.00870E-04
  913.00      2.00110E-04
  915.00      1.99240E-04
  917.00      1.97760E-04
  919.00      1.96000E-04
  921.00      1.89160E-04
  923.00      1.75100E-04
  925.00      1.87250E-04
  927.00      1.92500E-04
  929.00      1.93020E-04
  931.00      1.92210E-04
  933.00      1.91910E-04
  935.00      1.89350E-04
  937.00      1.90540E-04
  939.00      1.89970E-04
  941.00      1.89010E-04
  943.00      1.88330E-04
  945.00      1.87550E-04
  947.00      1.85870E-04
  949.00      1.85310E-04
  951.00      1.82230E-04
  953.00      1.75450E-04
  955.00      1.62380E-04
  957.00      1.76730E-04
  959.00      1.80740E-04
  961.00      1.80780E-04
  963.00      1.79960E-04
  965.00      1.80370E-04
  967.00      1.79750E-04
  969.00      1.78940E-04
  971.00      1.75220E-04
  973.00      1.77160E-04
  975.00      1.76910E-04
  977.00      1.76180E-04
  979.00      1.75520E-04
  981.00      1.74810E-04
  983.00      1.74160E-04
  985.00      1.73450E-04
  987.00      1.72750E-04
  989.00      1.71920E-04
  991.00      1.70860E-04
  993.00      1.70820E-04
  995.00      1.70170E-04
  997.00      1.69200E-04
  999.00      1.68200E-04
  1002.5      1.60780E-04
  1007.5      1.57350E-04
  1012.5      1.62310E-04
  1017.5      1.63050E-04
  1022.5      1.61460E-04
  1027.5      1.59980E-04
  1032.5      1.57980E-04
  1037.5      1.57080E-04
  1042.5      1.55580E-04
  1047.5      1.54220E-04
  1052.5      1.52790E-04
  1057.5      1.51430E-04
  1062.5      1.50060E-04
  1067.5      1.48560E-04
  1072.5      1.47390E-04
  1077.5      1.46070E-04
  1082.5      1.43610E-04
  1087.5      1.42770E-04
  1092.5      1.31950E-04
  1097.5      1.37390E-04
  1102.5      1.39000E-04
  1107.5      1.38440E-04
  1112.5      1.37350E-04
  1117.5      1.36200E-04
  1122.5      1.34980E-04
  1127.5      1.33870E-04
  1132.5      1.32660E-04
  1137.5      1.31580E-04
  1142.5      1.30470E-04
  1147.5      1.29400E-04
  1152.5      1.28340E-04
  1157.5      1.27230E-04
  1162.5      1.25650E-04
  1167.5      1.24900E-04
  1172.5      1.24150E-04
  1177.5      1.23140E-04
  1182.5      1.22090E-04
  1187.5      1.21120E-04
  1192.5      1.20150E-04
  1197.5      1.17930E-04
  1202.5      1.18240E-04
  1207.5      1.17280E-04
  1212.5      1.16300E-04
  1217.5      1.15440E-04
  1222.5      1.14530E-04
  1227.5      1.13630E-04
  1232.5      1.12730E-04
  1237.5      1.11850E-04
  1242.5      1.10990E-04
  1247.5      1.10120E-04
  1252.5      1.09090E-04
  1257.5      1.08400E-04
  1262.5      1.07590E-04
  1267.5      1.06790E-04
  1272.5      1.05850E-04
  1277.5      1.03260E-04
  1282.5      9.66120E-05
  1287.5      1.02710E-04
  1292.5      1.02740E-04
  1297.5      1.01520E-04
  1302.5      1.01260E-04
  1307.5      1.00560E-04
  1312.5      9.98180E-05
  1317.5      9.90850E-05
  1322.5      9.83600E-05
  1327.5      9.76430E-05
  1332.5      9.69210E-05
  1337.5      9.62030E-05
  1342.5      9.54710E-05
  1347.5      9.48380E-05
  1352.5      9.41360E-05
  1357.5      9.34940E-05
  1362.5      9.27790E-05
  1367.5      9.21710E-05
  1372.5      9.14630E-05
  1377.5      9.08830E-05
  1382.5      9.02450E-05
  1387.5      8.96100E-05
  1392.5      8.89500E-05
  1397.5      8.83650E-05
