 Castelli and Kurucz 2004-2012 Atmosphere
 T     48000.     G    5.00000 [+0.2] N(He)/Ntot=0.07828 VTURB=2.0  L/H=1.25 NO
 Wavelength  Eddington Hnu
   (nm)    (ergs/s/cm2/Hz/sr)
  9.0900      1.62290E-19
  9.3500      4.59510E-19
  9.6100      1.20660E-18
  9.7700      2.19690E-18
  9.9600      4.27980E-18
  10.200      9.60980E-18
  10.380      1.72310E-17
  10.560      3.03160E-17
  10.770      5.72850E-17
  11.040      1.25470E-16
  11.400      3.37640E-16
  11.780      8.97290E-16
  12.130      2.11650E-15
  12.480      4.72580E-15
  12.710      7.85400E-15
  12.840      1.06140E-14
  13.050      1.63720E-14
  13.240      2.40180E-14
  13.390      3.24000E-14
  13.660      5.39150E-14
  13.980      9.79650E-14
  14.330      1.79060E-13
  14.720      3.27050E-13
  15.100      6.23210E-13
  15.520      1.17090E-12
  15.880      1.98600E-12
  16.200      3.60610E-12
  16.600      6.18670E-12
  17.030      1.02270E-11
  17.340      1.46140E-11
  17.680      2.20980E-11
  18.020      3.26950E-11
  18.170      3.67740E-11
  18.610      6.15740E-11
  19.100      9.87520E-11
  19.390      1.37910E-10
  19.840      2.09940E-10
  20.180      2.66910E-10
  20.500      3.69080E-10
  21.050      5.76540E-10
  21.620      8.85470E-10
  21.980      1.17850E-09
  22.300      1.44230E-09
  22.680      1.88050E-09
  23.000      1.38240E-07
  23.400      5.92370E-07
  24.000      9.53440E-07
  24.650      2.17120E-06
  25.240      8.71910E-06
  25.680      2.56960E-05
  26.000      2.12880E-05
  26.400      9.65700E-05
  26.850      1.17260E-04
  27.350      1.46300E-04
  27.850      9.82640E-05
  28.400      1.94870E-04
  29.000      3.04760E-04
  29.600      2.52070E-04
  30.100      1.93710E-04
  30.800      2.73230E-04
  31.800      7.00680E-05
  32.800      1.03590E-04
  33.800      7.11940E-05
  34.800      7.88370E-05
  35.700      2.26010E-04
  36.600      5.10770E-04
  37.500      6.97080E-04
  38.500      6.00660E-04
  39.500      1.07000E-03
  40.500      1.74440E-03
  41.400      1.70880E-03
  42.200      1.57520E-03
  43.000      1.51800E-03
  44.100      1.94810E-03
  45.100      2.05830E-03
  46.000      1.72320E-03
  47.000      2.00630E-03
  48.000      2.34840E-03
  49.000      1.92060E-03
  50.000      2.79610E-03
  50.600      2.28540E-03
  51.200      2.92240E-03
  52.000      2.79340E-03
  53.000      2.64820E-03
  54.000      2.20850E-03
  55.000      1.90200E-03
  56.000      2.58770E-03
  57.000      3.05810E-03
  58.000      3.10840E-03
  59.000      3.16590E-03
  60.000      2.77020E-03
  61.000      2.38950E-03
  62.000      3.12810E-03
  63.000      2.83180E-03
  64.000      3.35770E-03
  65.000      3.17540E-03
  65.800      2.86330E-03
  66.500      3.38030E-03
  67.500      3.47890E-03
  68.500      3.13840E-03
  69.500      3.50800E-03
  70.500      3.13780E-03
  71.600      3.52340E-03
  72.600      3.65400E-03
  73.500      3.64780E-03
  74.500      3.51230E-03
  75.500      3.48400E-03
  76.500      3.15630E-03
  77.500      3.50600E-03
  78.500      3.13190E-03
  79.500      3.47800E-03
  80.500      3.59830E-03
  81.500      3.60340E-03
  82.500      3.64730E-03
  83.500      3.32240E-03
  84.500      3.60090E-03
  85.500      3.44390E-03
  86.500      3.64310E-03
  87.500      3.67550E-03
  88.500      3.61250E-03
  89.500      3.59960E-03
  90.500      3.53080E-03
  91.500      2.62220E-03
  92.500      3.96650E-03
  93.500      5.07600E-03
  94.500      5.80520E-03
  95.500      6.71540E-03
  96.500      7.20360E-03
  97.500      5.67860E-03
  98.500      6.67060E-03
  99.500      5.94500E-03
  100.50      6.12630E-03
  101.50      6.31070E-03
  102.50      5.84550E-03
  103.50      6.78220E-03
  104.50      7.07850E-03
  105.50      7.00310E-03
  106.50      6.65640E-03
  107.50      6.96520E-03
  108.50      6.37560E-03
  109.50      6.80730E-03
  110.50      6.73790E-03
  111.50      6.75370E-03
  112.50      6.59900E-03
  113.50      6.77170E-03
  114.50      6.82750E-03
  115.50      6.56180E-03
  116.50      6.15510E-03
  117.50      5.76170E-03
  118.50      6.21250E-03
  119.50      5.90260E-03
  120.50      5.89250E-03
  121.50      5.00690E-03
  122.50      5.72450E-03
  123.50      5.55180E-03
  124.50      5.43070E-03
  125.50      5.69660E-03
  126.50      5.76010E-03
  127.50      5.79920E-03
  128.50      5.78890E-03
  129.50      5.83590E-03
  130.50      5.67280E-03
  131.50      5.65160E-03
  132.50      5.60290E-03
  133.50      5.56480E-03
  134.50      5.49870E-03
  135.50      5.34260E-03
  136.50      5.14940E-03
  137.50      4.96630E-03
  138.50      5.08760E-03
  139.50      4.99040E-03
  140.50      4.78900E-03
  141.50      5.26880E-03
  142.50      4.98540E-03
  143.50      5.19310E-03
  144.20      4.93810E-03
  144.70      4.97070E-03
  145.50      4.88430E-03
  146.50      4.88900E-03
  147.50      4.91620E-03
  148.50      4.98400E-03
  149.50      4.88520E-03
  150.50      4.84410E-03
  151.20      4.84650E-03
  151.70      4.74320E-03
  152.50      4.80410E-03
  153.50      4.54060E-03
  154.50      3.93570E-03
  155.50      4.04070E-03
  156.50      4.41830E-03
  157.50      4.51780E-03
  158.50      4.44320E-03
  159.50      4.51370E-03
  160.50      4.37090E-03
  161.50      4.30010E-03
  162.50      4.36350E-03
  163.50      4.36260E-03
  164.50      4.19420E-03
  165.50      4.36910E-03
  166.50      4.34400E-03
  167.20      4.18420E-03
  167.70      4.43430E-03
  168.50      4.40550E-03
  169.50      4.40590E-03
  170.50      4.29810E-03
  171.50      4.14670E-03
  172.50      4.13770E-03
  173.50      4.27150E-03
  174.50      4.24310E-03
  175.50      4.20030E-03
  176.50      4.15860E-03
  177.50      4.10610E-03
  178.50      4.13230E-03
  179.50      4.05490E-03
  180.50      4.02910E-03
  181.50      3.97620E-03
  182.50      3.95720E-03
  183.50      3.94350E-03
  184.50      3.94250E-03
  185.50      3.91740E-03
  186.50      3.91180E-03
  187.50      3.85340E-03
  188.50      3.81690E-03
  189.50      3.85180E-03
  190.50      3.82490E-03
  191.50      3.80040E-03
  192.50      3.66940E-03
  193.50      3.75680E-03
  194.50      3.73960E-03
  195.50      3.66500E-03
  196.70      3.66840E-03
  197.60      3.62810E-03
  198.40      3.64240E-03
  199.50      3.60340E-03
  200.50      3.59480E-03
  201.50      3.56910E-03
  202.50      3.54860E-03
  203.50      3.50360E-03
  204.50      3.46300E-03
  205.50      2.60300E-03
  206.50      2.50720E-03
  207.40      2.56270E-03
  207.80      2.62230E-03
  208.50      2.78610E-03
  209.50      3.11110E-03
  210.50      3.27780E-03
  211.50      3.31870E-03
  212.50      3.27900E-03
  213.50      3.27750E-03
  214.50      3.25000E-03
  215.50      3.26410E-03
  216.50      3.09980E-03
  217.50      3.24780E-03
  218.50      3.11150E-03
  219.50      3.21870E-03
  220.50      3.19680E-03
  221.50      3.03930E-03
  222.50      3.15900E-03
  223.50      3.14160E-03
  224.50      3.11340E-03
  225.50      2.97600E-03
  226.50      3.07150E-03
  227.50      3.07060E-03
  228.50      3.01960E-03
  229.50      2.96950E-03
  230.50      2.87740E-03
  231.50      2.94530E-03
  232.50      2.95980E-03
  233.50      2.94150E-03
  234.50      2.90530E-03
  235.50      2.87150E-03
  236.50      2.84880E-03
  237.50      2.81380E-03
  238.50      2.67180E-03
  239.50      2.76300E-03
  240.50      2.73940E-03
  241.50      2.73630E-03
  242.50      2.75250E-03
  243.50      2.72340E-03
  244.50      2.71070E-03
  245.50      2.67180E-03
  246.50      2.67090E-03
  247.50      2.67560E-03
  248.50      2.63590E-03
  249.50      2.46680E-03
  250.50      2.60020E-03
  251.30      2.40380E-03
  251.80      2.53610E-03
  252.50      2.54590E-03
  253.50      2.56750E-03
  254.50      2.56140E-03
  255.50      2.54260E-03
  256.50      2.53120E-03
  257.50      2.50920E-03
  258.50      2.49530E-03
  259.50      2.43240E-03
  260.50      2.46940E-03
  261.50      2.42480E-03
  262.50      2.44150E-03
  263.50      2.42880E-03
  264.50      2.40230E-03
  265.50      2.39740E-03
  266.50      2.38160E-03
  267.50      2.34100E-03
  268.50      2.34680E-03
  269.50      2.32400E-03
  270.50      2.33230E-03
  271.50      2.31390E-03
  272.50      2.29820E-03
  273.50      2.20580E-03
  274.50      2.27660E-03
  275.50      2.25730E-03
  276.50      2.24720E-03
  277.50      2.23000E-03
  278.50      2.20160E-03
  279.50      2.18790E-03
  280.50      2.18780E-03
  281.50      2.17580E-03
  282.50      2.15630E-03
  283.50      2.15500E-03
  284.50      2.14530E-03
  285.50      2.13100E-03
  286.50      2.10130E-03
  287.50      2.08620E-03
  288.50      2.08950E-03
  289.50      2.07420E-03
  291.00      2.06150E-03
  293.00      2.04430E-03
  295.00      2.02100E-03
  297.00      1.99350E-03
  299.00      1.96350E-03
  301.00      1.94360E-03
  303.00      1.91120E-03
  305.00      1.89940E-03
  307.00      1.86820E-03
  309.00      1.86390E-03
  311.00      1.84490E-03
  313.00      1.82400E-03
  315.00      1.81100E-03
  317.00      1.78950E-03
  319.00      1.77410E-03
  321.00      1.71890E-03
  323.00      1.73980E-03
  325.00      1.72270E-03
  327.00      1.68900E-03
  329.00      1.68340E-03
  331.00      1.66480E-03
  333.00      1.64720E-03
  335.00      1.61920E-03
  337.00      1.61170E-03
  339.00      1.59290E-03
  341.00      1.57550E-03
  343.00      1.57010E-03
  345.00      1.54450E-03
  347.00      1.53680E-03
  349.00      1.52290E-03
  351.00      1.51260E-03
  353.00      1.49410E-03
  355.00      1.48100E-03
  357.00      1.46660E-03
  359.00      1.45370E-03
  361.00      1.43820E-03
  363.00      1.42300E-03
  364.00      1.38840E-03
  365.00      1.24870E-03
  367.00      1.23870E-03
  369.00      1.23020E-03
  371.00      1.22510E-03
  373.00      1.23780E-03
  375.00      1.25420E-03
  377.00      1.27090E-03
  379.00      1.29930E-03
  381.00      1.32250E-03
  383.00      1.26730E-03
  385.00      1.32060E-03
  387.00      1.32230E-03
  389.00      1.21540E-03
  391.00      1.30860E-03
  393.00      1.28870E-03
  395.00      1.28320E-03
  397.00      1.16480E-03
  399.00      1.26380E-03
  401.00      1.25780E-03
  403.00      1.22540E-03
  405.00      1.23910E-03
  407.00      1.22610E-03
  409.00      1.17880E-03
  411.00      1.11530E-03
  413.00      1.19280E-03
  415.00      1.18690E-03
  417.00      1.17840E-03
  419.00      1.16160E-03
  421.00      1.13700E-03
  423.00      1.15100E-03
  425.00      1.14110E-03
  427.00      1.13180E-03
  429.00      1.12220E-03
  431.00      1.10890E-03
  433.00      1.06080E-03
  435.00      1.01970E-03
  437.00      1.07890E-03
  439.00      1.06850E-03
  441.00      1.05960E-03
  443.00      1.05630E-03
  445.00      1.04540E-03
  447.00      1.03560E-03
  449.00      1.03180E-03
  451.00      1.01970E-03
  453.00      1.00990E-03
  455.00      9.82110E-04
  457.00      9.97690E-04
  459.00      9.89920E-04
  461.00      9.84010E-04
  463.00      9.70610E-04
  465.00      9.48910E-04
  467.00      9.57840E-04
  469.00      9.17930E-04
  471.00      9.47300E-04
  473.00      9.42150E-04
  475.00      9.35300E-04
  477.00      9.27820E-04
  479.00      9.19110E-04
  481.00      9.13510E-04
  483.00      9.04920E-04
  485.00      8.76020E-04
  487.00      8.27270E-04
  489.00      8.83300E-04
  491.00      8.79370E-04
  493.00      8.72190E-04
  495.00      8.67410E-04
  497.00      8.61120E-04
  499.00      8.55270E-04
  501.00      8.46780E-04
  503.00      8.42130E-04
  505.00      8.35790E-04
  507.00      8.30380E-04
  509.00      8.24820E-04
  511.00      8.18710E-04
  513.00      8.12390E-04
  515.00      8.06990E-04
  517.00      8.01880E-04
  519.00      7.96150E-04
  521.00      7.90030E-04
  523.00      7.85150E-04
  525.00      7.78550E-04
  527.00      7.72910E-04
  529.00      7.68940E-04
  531.00      7.63590E-04
  533.00      7.58210E-04
  535.00      7.53290E-04
  537.00      7.48000E-04
  539.00      7.42940E-04
  541.00      7.19830E-04
  543.00      7.32620E-04
  545.00      7.28150E-04
  547.00      7.22980E-04
  549.00      7.18410E-04
  551.00      7.12850E-04
  553.00      7.08920E-04
  555.00      7.04280E-04
  557.00      6.98880E-04
  559.00      6.92690E-04
  561.00      6.90490E-04
  563.00      6.85940E-04
  565.00      6.81450E-04
  567.00      6.77020E-04
  569.00      6.61510E-04
  571.00      6.16860E-04
  573.00      6.13200E-04
  575.00      6.09420E-04
  577.00      6.06140E-04
  579.00      6.02850E-04
  581.00      5.95510E-04
  583.00      5.97620E-04
  585.00      5.96510E-04
  587.00      5.92940E-04
  589.00      5.95200E-04
  591.00      5.95290E-04
  593.00      5.95800E-04
  595.00      5.97010E-04
  597.00      5.98400E-04
  599.00      6.00460E-04
  601.00      6.00320E-04
  603.00      6.00500E-04
  605.00      5.99430E-04
  607.00      5.95960E-04
  609.00      5.93130E-04
  611.00      5.89570E-04
  613.00      5.86220E-04
  615.00      5.83600E-04
  617.00      5.78390E-04
  619.00      5.76870E-04
  621.00      5.73730E-04
  623.00      5.67730E-04
  625.00      5.66160E-04
  627.00      5.63640E-04
  629.00      5.60250E-04
  631.00      5.53400E-04
  633.00      5.53320E-04
  635.00      5.50540E-04
  637.00      5.47410E-04
  639.00      5.43270E-04
  641.00      5.36290E-04
  643.00      5.37760E-04
  645.00      5.34530E-04
  647.00      5.31430E-04
  649.00      5.28640E-04
  651.00      5.24580E-04
  653.00      5.15810E-04
  655.00      5.10940E-04
  657.00      4.77170E-04
  659.00      5.11980E-04
  661.00      5.10990E-04
  663.00      5.08120E-04
  665.00      5.05270E-04
  667.00      4.99770E-04
  669.00      4.91480E-04
  671.00      4.95990E-04
  673.00      4.93840E-04
  675.00      4.91030E-04
  677.00      4.88540E-04
  679.00      4.85990E-04
  681.00      4.83300E-04
  683.00      4.80670E-04
  685.00      4.78000E-04
  687.00      4.75210E-04
  689.00      4.64350E-04
  691.00      4.69590E-04
  693.00      4.67770E-04
  695.00      4.65240E-04
  697.00      4.62750E-04
  699.00      4.60240E-04
  701.00      4.57570E-04
  703.00      4.54700E-04
  705.00      4.52500E-04
  707.00      4.49370E-04
  709.00      4.48170E-04
  711.00      4.45410E-04
  713.00      4.43040E-04
  715.00      4.41130E-04
  717.00      4.32830E-04
  719.00      4.32710E-04
  721.00      4.34100E-04
  723.00      4.32010E-04
  725.00      4.29770E-04
  727.00      4.27550E-04
  729.00      4.25110E-04
  731.00      4.22810E-04
  733.00      4.20990E-04
  735.00      4.18850E-04
  737.00      4.16530E-04
  739.00      4.14220E-04
  741.00      4.12290E-04
  743.00      4.10400E-04
  745.00      4.07870E-04
  747.00      4.06190E-04
  749.00      4.03540E-04
  751.00      4.01980E-04
  753.00      4.00160E-04
  755.00      3.98110E-04
  757.00      3.95950E-04
  759.00      3.85540E-04
  761.00      3.91210E-04
  763.00      3.90200E-04
  765.00      3.88330E-04
  767.00      3.86330E-04
  769.00      3.83990E-04
  771.00      3.82310E-04
  773.00      3.80120E-04
  775.00      3.78740E-04
  777.00      3.77190E-04
  779.00      3.75230E-04
  781.00      3.73530E-04
  783.00      3.71680E-04
  785.00      3.69220E-04
  787.00      3.67910E-04
  789.00      3.66310E-04
  791.00      3.64670E-04
  793.00      3.62960E-04
  795.00      3.61150E-04
  797.00      3.59130E-04
  799.00      3.57820E-04
  801.00      3.56120E-04
  803.00      3.54240E-04
  805.00      3.52790E-04
  807.00      3.51140E-04
  809.00      3.49500E-04
  811.00      3.47870E-04
  813.00      3.46250E-04
  815.00      3.44640E-04
  817.00      3.42700E-04
  819.00      3.39630E-04
  821.00      3.22730E-04
  823.00      3.18700E-04
  825.00      3.19240E-04
  827.00      3.18500E-04
  829.00      3.17180E-04
  831.00      3.15850E-04
  833.00      3.14100E-04
  835.00      3.12980E-04
  837.00      3.11800E-04
  839.00      3.10570E-04
  841.00      3.09420E-04
  843.00      3.08260E-04
  845.00      3.07090E-04
  847.00      3.06090E-04
  849.00      3.05210E-04
  851.00      3.04040E-04
  853.00      3.03460E-04
  855.00      3.02390E-04
  857.00      3.01800E-04
  859.00      3.00780E-04
  861.00      3.00060E-04
  863.00      2.99980E-04
  865.00      2.98940E-04
  867.00      2.96770E-04
  869.00      2.98100E-04
  871.00      2.97920E-04
  873.00      2.96820E-04
  875.00      2.92730E-04
  877.00      2.95040E-04
  879.00      2.96070E-04
  881.00      2.95890E-04
  883.00      2.95080E-04
  885.00      2.90670E-04
  887.00      2.85240E-04
  889.00      2.91160E-04
  891.00      2.91760E-04
  893.00      2.90970E-04
  895.00      2.90080E-04
  897.00      2.88740E-04
  899.00      2.85740E-04
  901.00      2.75240E-04
  903.00      2.78270E-04
  905.00      2.83050E-04
  907.00      2.82870E-04
  909.00      2.82050E-04
  911.00      2.80610E-04
  913.00      2.80050E-04
  915.00      2.79140E-04
  917.00      2.77410E-04
  919.00      2.75540E-04
  921.00      2.71120E-04
  923.00      2.57720E-04
  925.00      2.67970E-04
  927.00      2.70840E-04
  929.00      2.70600E-04
  931.00      2.69840E-04
  933.00      2.68130E-04
  935.00      2.59900E-04
  937.00      2.65130E-04
  939.00      2.65250E-04
  941.00      2.64330E-04
  943.00      2.63380E-04
  945.00      2.62340E-04
  947.00      2.61230E-04
  949.00      2.59850E-04
  951.00      2.57730E-04
  953.00      2.52480E-04
  955.00      2.38930E-04
  957.00      2.51880E-04
  959.00      2.54010E-04
  961.00      2.53810E-04
  963.00      2.52910E-04
  965.00      2.52060E-04
  967.00      2.51080E-04
  969.00      2.50080E-04
  971.00      2.47890E-04
  973.00      2.47910E-04
  975.00      2.46540E-04
  977.00      2.44340E-04
  979.00      2.45110E-04
  981.00      2.44240E-04
  983.00      2.43160E-04
  985.00      2.42340E-04
  987.00      2.41400E-04
  989.00      2.40460E-04
  991.00      2.39480E-04
  993.00      2.38600E-04
  995.00      2.37680E-04
  997.00      2.36760E-04
  999.00      2.35650E-04
  1002.5      2.29360E-04
  1007.5      2.24970E-04
  1012.5      2.25000E-04
  1017.5      2.27650E-04
  1022.5      2.25520E-04
  1027.5      2.23310E-04
  1032.5      2.21160E-04
  1037.5      2.19270E-04
  1042.5      2.15780E-04
  1047.5      2.15280E-04
  1052.5      2.13300E-04
  1057.5      2.11370E-04
  1062.5      2.09460E-04
  1067.5      2.07570E-04
  1072.5      2.05710E-04
  1077.5      2.03870E-04
  1082.5      2.01660E-04
  1087.5      1.99970E-04
  1092.5      1.89910E-04
  1097.5      1.94410E-04
  1102.5      1.94960E-04
  1107.5      1.93330E-04
  1112.5      1.91660E-04
  1117.5      1.90140E-04
  1122.5      1.88480E-04
  1127.5      1.86850E-04
  1132.5      1.85250E-04
  1137.5      1.83710E-04
  1142.5      1.82160E-04
  1147.5      1.80630E-04
  1152.5      1.79120E-04
  1157.5      1.77550E-04
  1162.5      1.73520E-04
  1167.5      1.72750E-04
  1172.5      1.73210E-04
  1177.5      1.71810E-04
  1182.5      1.70360E-04
  1187.5      1.69000E-04
  1192.5      1.67630E-04
  1197.5      1.66060E-04
  1202.5      1.64950E-04
  1207.5      1.63600E-04
  1212.5      1.62270E-04
  1217.5      1.61020E-04
  1222.5      1.59740E-04
  1227.5      1.58480E-04
  1232.5      1.57230E-04
  1237.5      1.56000E-04
  1242.5      1.54780E-04
  1247.5      1.53580E-04
  1252.5      1.52380E-04
  1257.5      1.51200E-04
  1262.5      1.50050E-04
  1267.5      1.48900E-04
  1272.5      1.47750E-04
  1277.5      1.45710E-04
  1282.5      1.38360E-04
  1287.5      1.43960E-04
  1292.5      1.43340E-04
  1297.5      1.42240E-04
  1302.5      1.41210E-04
  1307.5      1.40160E-04
  1312.5      1.39120E-04
  1317.5      1.38090E-04
  1322.5      1.37080E-04
  1327.5      1.36070E-04
  1332.5      1.35080E-04
  1337.5      1.34090E-04
  1342.5      1.33120E-04
  1347.5      1.32160E-04
  1352.5      1.31210E-04
  1357.5      1.30270E-04
  1362.5      1.29330E-04
  1367.5      1.28410E-04
  1372.5      1.27500E-04
  1377.5      1.26600E-04
  1382.5      1.25700E-04
  1387.5      1.24820E-04
  1392.5      1.23950E-04
  1397.5      1.23080E-04
