 Castelli and Kurucz 2004-2012 Atmosphere
 T     39000.     G    5.00000 [+0.2] N(He)/Ntot=0.07828 VTURB=2.0  L/H=1.25 NO
 Wavelength  Eddington Hnu
   (nm)    (ergs/s/cm2/Hz/sr)
  9.0900      1.47880E-25
  9.3500      5.70290E-25
  9.6100      2.03540E-24
  9.7700      4.37530E-24
  9.9600      1.04300E-23
  10.200      2.99190E-23
  10.380      6.40560E-23
  10.560      1.33870E-22
  10.770      3.07200E-22
  11.040      8.55720E-22
  11.400      3.12350E-21
  11.780      1.13250E-20
  12.130      3.47400E-20
  12.480      1.00380E-19
  12.710      1.95760E-19
  12.840      2.82730E-19
  13.050      5.04110E-19
  13.240      8.38880E-19
  13.390      1.24340E-18
  13.660      2.46580E-18
  13.980      5.41830E-18
  14.330      1.22840E-17
  14.720      2.89430E-17
  15.100      6.59790E-17
  15.520      1.54480E-16
  15.880      3.09700E-16
  16.200      5.58190E-16
  16.600      1.14690E-15
  17.030      2.37650E-15
  17.340      3.95340E-15
  17.680      6.80670E-15
  18.020      1.14260E-14
  18.170      1.43000E-14
  18.610      2.70970E-14
  19.100      5.33270E-14
  19.390      7.86140E-14
  19.840      1.40210E-13
  20.180      2.12520E-13
  20.500      3.11760E-13
  21.050      5.86700E-13
  21.620      1.08450E-12
  21.980      1.59490E-12
  22.300      2.20590E-12
  22.680      3.23580E-12
  23.000      1.28310E-09
  23.400      3.60190E-09
  24.000      5.23360E-09
  24.650      7.72150E-09
  25.240      1.25720E-08
  25.680      1.75160E-08
  26.000      2.37230E-08
  26.400      5.02510E-08
  26.850      7.65330E-08
  27.350      9.54830E-08
  27.850      9.83750E-08
  28.400      1.90600E-07
  29.000      2.60430E-07
  29.600      2.95850E-07
  30.100      6.10850E-07
  30.800      3.30170E-06
  31.800      2.57440E-06
  32.800      4.28170E-06
  33.800      5.61700E-06
  34.800      7.59070E-06
  35.700      1.85060E-05
  36.600      4.10360E-05
  37.500      5.39770E-05
  38.500      5.80640E-05
  39.500      1.02270E-04
  40.500      1.51960E-04
  41.400      1.44400E-04
  42.200      1.49630E-04
  43.000      1.43320E-04
  44.100      1.72100E-04
  45.100      1.84680E-04
  46.000      1.60040E-04
  47.000      1.76630E-04
  48.000      2.09790E-04
  49.000      1.70780E-04
  50.000      2.23810E-04
  50.600      2.06650E-04
  51.200      6.05080E-04
  52.000      5.74140E-04
  53.000      5.29950E-04
  54.000      4.79950E-04
  55.000      4.88770E-04
  56.000      6.73930E-04
  57.000      7.60180E-04
  58.000      7.41500E-04
  59.000      7.75340E-04
  60.000      6.26010E-04
  61.000      6.96390E-04
  62.000      8.88570E-04
  63.000      8.62550E-04
  64.000      9.38450E-04
  65.000      9.08860E-04
  65.800      7.80300E-04
  66.500      9.40330E-04
  67.500      1.05230E-03
  68.500      8.69570E-04
  69.500      1.07580E-03
  70.500      8.90840E-04
  71.600      1.16210E-03
  72.600      1.17560E-03
  73.500      1.20780E-03
  74.500      1.14170E-03
  75.500      1.15530E-03
  76.500      1.11930E-03
  77.500      1.19740E-03
  78.500      1.16600E-03
  79.500      1.24910E-03
  80.500      1.24030E-03
  81.500      1.26160E-03
  82.500      1.30990E-03
  83.500      1.11900E-03
  84.500      1.30080E-03
  85.500      1.28640E-03
  86.500      1.34940E-03
  87.500      1.36480E-03
  88.500      1.37430E-03
  89.500      1.38760E-03
  90.500      1.36580E-03
  91.500      1.12590E-03
  92.500      1.98930E-03
  93.500      2.88500E-03
  94.500      3.68080E-03
  95.500      4.18290E-03
  96.500      4.90440E-03
  97.500      2.99630E-03
  98.500      4.38970E-03
  99.500      3.90200E-03
  100.50      4.03600E-03
  101.50      4.28120E-03
  102.50      3.51070E-03
  103.50      4.44090E-03
  104.50      4.86890E-03
  105.50      4.75410E-03
  106.50      4.37530E-03
  107.50      4.51570E-03
  108.50      4.13850E-03
  109.50      4.47830E-03
  110.50      4.34590E-03
  111.50      4.36470E-03
  112.50      3.98440E-03
  113.50      4.33140E-03
  114.50      4.32730E-03
  115.50      4.07390E-03
  116.50      3.92310E-03
  117.50      3.13710E-03
  118.50      3.76720E-03
  119.50      3.66430E-03
  120.50      3.61820E-03
  121.50      2.88980E-03
  122.50      3.50190E-03
  123.50      3.69410E-03
  124.50      3.66070E-03
  125.50      3.69380E-03
  126.50      3.80250E-03
  127.50      3.92600E-03
  128.50      3.95320E-03
  129.50      3.86590E-03
  130.50      3.82760E-03
  131.50      3.96410E-03
  132.50      3.90970E-03
  133.50      3.86500E-03
  134.50      3.87550E-03
  135.50      3.78340E-03
  136.50      3.70650E-03
  137.50      3.62360E-03
  138.50      3.59100E-03
  139.50      3.32920E-03
  140.50      3.25810E-03
  141.50      3.61510E-03
  142.50      3.28900E-03
  143.50      3.51750E-03
  144.20      3.43330E-03
  144.70      3.44980E-03
  145.50      3.33580E-03
  146.50      3.34470E-03
  147.50      3.35740E-03
  148.50      3.41740E-03
  149.50      3.34330E-03
  150.50      3.35130E-03
  151.20      3.34360E-03
  151.70      3.33650E-03
  152.50      3.27580E-03
  153.50      2.97540E-03
  154.50      2.48960E-03
  155.50      2.57270E-03
  156.50      2.87540E-03
  157.50      2.99930E-03
  158.50      3.01080E-03
  159.50      3.04540E-03
  160.50      2.89740E-03
  161.50      2.81240E-03
  162.50      2.89360E-03
  163.50      2.89470E-03
  164.50      2.86300E-03
  165.50      2.96330E-03
  166.50      2.93060E-03
  167.20      2.75450E-03
  167.70      3.11430E-03
  168.50      3.03130E-03
  169.50      2.98780E-03
  170.50      2.95770E-03
  171.50      2.86380E-03
  172.50      2.80370E-03
  173.50      2.91520E-03
  174.50      2.91600E-03
  175.50      2.87590E-03
  176.50      2.86150E-03
  177.50      2.80470E-03
  178.50      2.85740E-03
  179.50      2.79830E-03
  180.50      2.79430E-03
  181.50      2.77180E-03
  182.50      2.73110E-03
  183.50      2.75370E-03
  184.50      2.72600E-03
  185.50      2.74020E-03
  186.50      2.74130E-03
  187.50      2.68580E-03
  188.50      2.64490E-03
  189.50      2.67570E-03
  190.50      2.68910E-03
  191.50      2.66140E-03
  192.50      2.54060E-03
  193.50      2.65380E-03
  194.50      2.66190E-03
  195.50      2.52550E-03
  196.70      2.60140E-03
  197.60      2.60660E-03
  198.40      2.59570E-03
  199.50      2.55620E-03
  200.50      2.58970E-03
  201.50      2.57570E-03
  202.50      2.56170E-03
  203.50      2.52660E-03
  204.50      2.50230E-03
  205.50      1.89680E-03
  206.50      1.82380E-03
  207.40      1.86800E-03
  207.80      1.89220E-03
  208.50      2.00470E-03
  209.50      2.21440E-03
  210.50      2.37800E-03
  211.50      2.42550E-03
  212.50      2.38590E-03
  213.50      2.39110E-03
  214.50      2.37510E-03
  215.50      2.38700E-03
  216.50      2.27140E-03
  217.50      2.37830E-03
  218.50      2.27960E-03
  219.50      2.36720E-03
  220.50      2.35270E-03
  221.50      2.23580E-03
  222.50      2.31950E-03
  223.50      2.30980E-03
  224.50      2.28000E-03
  225.50      2.18530E-03
  226.50      2.26140E-03
  227.50      2.25860E-03
  228.50      2.21470E-03
  229.50      2.11650E-03
  230.50      2.11260E-03
  231.50      2.16450E-03
  232.50      2.17500E-03
  233.50      2.16270E-03
  234.50      2.13870E-03
  235.50      2.10950E-03
  236.50      2.09200E-03
  237.50      2.06070E-03
  238.50      1.95430E-03
  239.50      2.02030E-03
  240.50      2.02810E-03
  241.50      2.02440E-03
  242.50      2.03080E-03
  243.50      2.01100E-03
  244.50      2.00180E-03
  245.50      1.98350E-03
  246.50      1.97800E-03
  247.50      1.97350E-03
  248.50      1.93930E-03
  249.50      1.64880E-03
  250.50      1.89790E-03
  251.30      1.77320E-03
  251.80      1.85760E-03
  252.50      1.89540E-03
  253.50      1.90090E-03
  254.50      1.88880E-03
  255.50      1.87410E-03
  256.50      1.86480E-03
  257.50      1.85360E-03
  258.50      1.84430E-03
  259.50      1.81320E-03
  260.50      1.82550E-03
  261.50      1.80080E-03
  262.50      1.80510E-03
  263.50      1.79910E-03
  264.50      1.78020E-03
  265.50      1.77620E-03
  266.50      1.75880E-03
  267.50      1.72360E-03
  268.50      1.73820E-03
  269.50      1.72140E-03
  270.50      1.72560E-03
  271.50      1.70830E-03
  272.50      1.69890E-03
  273.50      1.63880E-03
  274.50      1.68900E-03
  275.50      1.67670E-03
  276.50      1.66360E-03
  277.50      1.66090E-03
  278.50      1.64310E-03
  279.50      1.61270E-03
  280.50      1.62440E-03
  281.50      1.62220E-03
  282.50      1.60990E-03
  283.50      1.60060E-03
  284.50      1.60000E-03
  285.50      1.58920E-03
  286.50      1.57090E-03
  287.50      1.56670E-03
  288.50      1.56100E-03
  289.50      1.54990E-03
  291.00      1.53320E-03
  293.00      1.52520E-03
  295.00      1.50480E-03
  297.00      1.48700E-03
  299.00      1.46180E-03
  301.00      1.44490E-03
  303.00      1.42200E-03
  305.00      1.41690E-03
  307.00      1.40480E-03
  309.00      1.39170E-03
  311.00      1.38240E-03
  313.00      1.36530E-03
  315.00      1.35640E-03
  317.00      1.34030E-03
  319.00      1.32810E-03
  321.00      1.29360E-03
  323.00      1.30320E-03
  325.00      1.29360E-03
  327.00      1.26760E-03
  329.00      1.26410E-03
  331.00      1.25000E-03
  333.00      1.23680E-03
  335.00      1.21660E-03
  337.00      1.21030E-03
  339.00      1.20400E-03
  341.00      1.19160E-03
  343.00      1.18320E-03
  345.00      1.16380E-03
  347.00      1.15990E-03
  349.00      1.15040E-03
  351.00      1.14140E-03
  353.00      1.12950E-03
  355.00      1.11830E-03
  357.00      1.11020E-03
  359.00      1.09750E-03
  361.00      1.08490E-03
  363.00      1.07570E-03
  364.00      1.05790E-03
  365.00      9.74710E-04
  367.00      9.67910E-04
  369.00      9.60190E-04
  371.00      9.47370E-04
  373.00      9.53670E-04
  375.00      9.58820E-04
  377.00      9.58310E-04
  379.00      9.84740E-04
  381.00      1.01000E-03
  383.00      9.46050E-04
  385.00      1.01830E-03
  387.00      1.01470E-03
  389.00      9.08120E-04
  391.00      1.01880E-03
  393.00      1.00590E-03
  395.00      9.91500E-04
  397.00      8.70340E-04
  399.00      9.82530E-04
  401.00      9.78280E-04
  403.00      9.48530E-04
  405.00      9.67970E-04
  407.00      9.48060E-04
  409.00      9.00650E-04
  411.00      8.41890E-04
  413.00      9.24520E-04
  415.00      9.20980E-04
  417.00      9.21000E-04
  419.00      9.08250E-04
  421.00      8.92630E-04
  423.00      9.01640E-04
  425.00      8.90160E-04
  427.00      8.81870E-04
  429.00      8.74670E-04
  431.00      8.60980E-04
  433.00      8.13680E-04
  435.00      7.73470E-04
  437.00      8.42100E-04
  439.00      8.28970E-04
  441.00      8.27930E-04
  443.00      8.27270E-04
  445.00      8.19910E-04
  447.00      7.99960E-04
  449.00      8.08000E-04
  451.00      7.95420E-04
  453.00      7.90780E-04
  455.00      7.71800E-04
  457.00      7.83210E-04
  459.00      7.74890E-04
  461.00      7.70250E-04
  463.00      7.58720E-04
  465.00      7.32030E-04
  467.00      7.49090E-04
  469.00      7.25290E-04
  471.00      7.38350E-04
  473.00      7.42110E-04
  475.00      7.36550E-04
  477.00      7.31520E-04
  479.00      7.25810E-04
  481.00      7.19770E-04
  483.00      7.11550E-04
  485.00      6.79590E-04
  487.00      6.32680E-04
  489.00      6.94090E-04
  491.00      6.91780E-04
  493.00      6.80660E-04
  495.00      6.82450E-04
  497.00      6.79750E-04
  499.00      6.75040E-04
  501.00      6.63600E-04
  503.00      6.63480E-04
  505.00      6.58440E-04
  507.00      6.55860E-04
  509.00      6.51290E-04
  511.00      6.46640E-04
  513.00      6.41880E-04
  515.00      6.37350E-04
  517.00      6.32780E-04
  519.00      6.28630E-04
  521.00      6.24440E-04
  523.00      6.20360E-04
  525.00      6.14430E-04
  527.00      6.10060E-04
  529.00      6.07690E-04
  531.00      6.03450E-04
  533.00      5.99380E-04
  535.00      5.95460E-04
  537.00      5.91430E-04
  539.00      5.87360E-04
  541.00      5.71060E-04
  543.00      5.79410E-04
  545.00      5.75850E-04
  547.00      5.71910E-04
  549.00      5.68230E-04
  551.00      5.63900E-04
  553.00      5.60780E-04
  555.00      5.57240E-04
  557.00      5.53260E-04
  559.00      5.48090E-04
  561.00      5.46470E-04
  563.00      5.42940E-04
  565.00      5.39370E-04
  567.00      5.35740E-04
  569.00      5.24150E-04
  571.00      5.00740E-04
  573.00      4.97860E-04
  575.00      4.94720E-04
  577.00      4.92180E-04
  579.00      4.89290E-04
  581.00      4.84570E-04
  583.00      4.83240E-04
  585.00      4.82350E-04
  587.00      4.73640E-04
  589.00      4.79070E-04
  591.00      4.78520E-04
  593.00      4.77780E-04
  595.00      4.77340E-04
  597.00      4.77350E-04
  599.00      4.77150E-04
  601.00      4.76780E-04
  603.00      4.75640E-04
  605.00      4.74980E-04
  607.00      4.72560E-04
  609.00      4.70300E-04
  611.00      4.67330E-04
  613.00      4.64940E-04
  615.00      4.62040E-04
  617.00      4.58930E-04
  619.00      4.57080E-04
  621.00      4.54600E-04
  623.00      4.51050E-04
  625.00      4.48860E-04
  627.00      4.46610E-04
  629.00      4.44030E-04
  631.00      4.39950E-04
  633.00      4.38780E-04
  635.00      4.36150E-04
  637.00      4.33870E-04
  639.00      4.31120E-04
  641.00      4.26970E-04
  643.00      4.26440E-04
  645.00      4.23590E-04
  647.00      4.20960E-04
  649.00      4.18850E-04
  651.00      4.15580E-04
  653.00      4.10470E-04
  655.00      4.01580E-04
  657.00      3.69880E-04
  659.00      4.04710E-04
  661.00      4.04860E-04
  663.00      4.03010E-04
  665.00      4.00740E-04
  667.00      3.94560E-04
  669.00      3.90510E-04
  671.00      3.93150E-04
  673.00      3.91150E-04
  675.00      3.89120E-04
  677.00      3.87600E-04
  679.00      3.85520E-04
  681.00      3.83580E-04
  683.00      3.81490E-04
  685.00      3.79340E-04
  687.00      3.77090E-04
  689.00      3.71240E-04
  691.00      3.72690E-04
  693.00      3.71380E-04
  695.00      3.69370E-04
  697.00      3.67440E-04
  699.00      3.65440E-04
  701.00      3.63210E-04
  703.00      3.60710E-04
  705.00      3.59240E-04
  707.00      3.54290E-04
  709.00      3.55950E-04
  711.00      3.54020E-04
  713.00      3.52160E-04
  715.00      3.50430E-04
  717.00      3.45870E-04
  719.00      3.45050E-04
  721.00      3.45030E-04
  723.00      3.42810E-04
  725.00      3.41410E-04
  727.00      3.39740E-04
  729.00      3.36590E-04
  731.00      3.36060E-04
  733.00      3.34560E-04
  735.00      3.32870E-04
  737.00      3.31100E-04
  739.00      3.29530E-04
  741.00      3.27770E-04
  743.00      3.26240E-04
  745.00      3.24320E-04
  747.00      3.22800E-04
  749.00      3.20250E-04
  751.00      3.19640E-04
  753.00      3.18130E-04
  755.00      3.16560E-04
  757.00      3.14890E-04
  759.00      3.08930E-04
  761.00      3.11180E-04
  763.00      3.10240E-04
  765.00      3.08790E-04
  767.00      3.07380E-04
  769.00      3.05120E-04
  771.00      3.04060E-04
  773.00      3.02010E-04
  775.00      3.01300E-04
  777.00      3.00070E-04
  779.00      2.98590E-04
  781.00      2.97160E-04
  783.00      2.95740E-04
  785.00      2.93870E-04
  787.00      2.92660E-04
  789.00      2.91430E-04
  791.00      2.90250E-04
  793.00      2.88890E-04
  795.00      2.87570E-04
  797.00      2.85990E-04
  799.00      2.84820E-04
  801.00      2.83520E-04
  803.00      2.81940E-04
  805.00      2.80910E-04
  807.00      2.79590E-04
  809.00      2.78290E-04
  811.00      2.76790E-04
  813.00      2.75740E-04
  815.00      2.74420E-04
  817.00      2.72990E-04
  819.00      2.70890E-04
  821.00      2.62500E-04
  823.00      2.59580E-04
  825.00      2.59780E-04
  827.00      2.58810E-04
  829.00      2.58060E-04
  831.00      2.57090E-04
  833.00      2.55370E-04
  835.00      2.54050E-04
  837.00      2.53520E-04
  839.00      2.52710E-04
  841.00      2.51620E-04
  843.00      2.50610E-04
  845.00      2.49190E-04
  847.00      2.48610E-04
  849.00      2.47600E-04
  851.00      2.46060E-04
  853.00      2.45760E-04
  855.00      2.44810E-04
  857.00      2.44230E-04
  859.00      2.42310E-04
  861.00      2.42150E-04
  863.00      2.42290E-04
  865.00      2.40480E-04
  867.00      2.38070E-04
  869.00      2.40000E-04
  871.00      2.39930E-04
  873.00      2.37710E-04
  875.00      2.32630E-04
  877.00      2.35330E-04
  879.00      2.37460E-04
  881.00      2.37340E-04
  883.00      2.35950E-04
  885.00      2.30000E-04
  887.00      2.24420E-04
  889.00      2.32200E-04
  891.00      2.33500E-04
  893.00      2.33030E-04
  895.00      2.32250E-04
  897.00      2.31080E-04
  899.00      2.27260E-04
  901.00      2.15520E-04
  903.00      2.19450E-04
  905.00      2.25990E-04
  907.00      2.25650E-04
  909.00      2.25830E-04
  911.00      2.25250E-04
  913.00      2.24610E-04
  915.00      2.23670E-04
  917.00      2.22100E-04
  919.00      2.20410E-04
  921.00      2.14440E-04
  923.00      2.00940E-04
  925.00      2.12280E-04
  927.00      2.16560E-04
  929.00      2.16750E-04
  931.00      2.15980E-04
  933.00      2.15250E-04
  935.00      2.10340E-04
  937.00      2.13210E-04
  939.00      2.13050E-04
  941.00      2.11980E-04
  943.00      2.11250E-04
  945.00      2.10470E-04
  947.00      2.09000E-04
  949.00      2.08140E-04
  951.00      2.05390E-04
  953.00      1.99300E-04
  955.00      1.86290E-04
  957.00      1.99990E-04
  959.00      2.03260E-04
  961.00      2.03160E-04
  963.00      2.02390E-04
  965.00      2.02320E-04
  967.00      2.01610E-04
  969.00      2.00760E-04
  971.00      1.96960E-04
  973.00      1.98750E-04
  975.00      1.98320E-04
  977.00      1.97120E-04
  979.00      1.96880E-04
  981.00      1.96110E-04
  983.00      1.95300E-04
  985.00      1.94580E-04
  987.00      1.93840E-04
  989.00      1.93000E-04
  991.00      1.92100E-04
  993.00      1.91630E-04
  995.00      1.90910E-04
  997.00      1.90080E-04
  999.00      1.88880E-04
  1002.5      1.82010E-04
  1007.5      1.78320E-04
  1012.5      1.81330E-04
  1017.5      1.82900E-04
  1022.5      1.81150E-04
  1027.5      1.79440E-04
  1032.5      1.77360E-04
  1037.5      1.76210E-04
  1042.5      1.74160E-04
  1047.5      1.73010E-04
  1052.5      1.71420E-04
  1057.5      1.69880E-04
  1062.5      1.68350E-04
  1067.5      1.66740E-04
  1072.5      1.65360E-04
  1077.5      1.63880E-04
  1082.5      1.61400E-04
  1087.5      1.60420E-04
  1092.5      1.49970E-04
  1097.5      1.55070E-04
  1102.5      1.56310E-04
  1107.5      1.55390E-04
  1112.5      1.54110E-04
  1117.5      1.52840E-04
  1122.5      1.51490E-04
  1127.5      1.50220E-04
  1132.5      1.48910E-04
  1137.5      1.47680E-04
  1142.5      1.46450E-04
  1147.5      1.45230E-04
  1152.5      1.44030E-04
  1157.5      1.42790E-04
  1162.5      1.40330E-04
  1167.5      1.39720E-04
  1172.5      1.39330E-04
  1177.5      1.38190E-04
  1182.5      1.37010E-04
  1187.5      1.35930E-04
  1192.5      1.34840E-04
  1197.5      1.32760E-04
  1202.5      1.32710E-04
  1207.5      1.31620E-04
  1212.5      1.30520E-04
  1217.5      1.29560E-04
  1222.5      1.28540E-04
  1227.5      1.27540E-04
  1232.5      1.26530E-04
  1237.5      1.25550E-04
  1242.5      1.24580E-04
  1247.5      1.23610E-04
  1252.5      1.22520E-04
  1257.5      1.21680E-04
  1262.5      1.20780E-04
  1267.5      1.19870E-04
  1272.5      1.18880E-04
  1277.5      1.16390E-04
  1282.5      1.09700E-04
  1287.5      1.15550E-04
  1292.5      1.15410E-04
  1297.5      1.14210E-04
  1302.5      1.13680E-04
  1307.5      1.12870E-04
  1312.5      1.12040E-04
  1317.5      1.11210E-04
  1322.5      1.10400E-04
  1327.5      1.09600E-04
  1332.5      1.08800E-04
  1337.5      1.08010E-04
  1342.5      1.07190E-04
  1347.5      1.06450E-04
  1352.5      1.05680E-04
  1357.5      1.04950E-04
  1362.5      1.04180E-04
  1367.5      1.03460E-04
  1372.5      1.02690E-04
  1377.5      1.02010E-04
  1382.5      1.01290E-04
  1387.5      1.00580E-04
  1392.5      9.98650E-05
  1397.5      9.91880E-05
