 Castelli and Kurucz 2004-2012 Atmosphere
 T     35000.     G    4.50000 [+0.2] N(He)/Ntot=0.07828 VTURB=2.0  L/H=1.25 NO
 Wavelength  Eddington Hnu
   (nm)    (ergs/s/cm2/Hz/sr)
  9.0900      1.18890E-29
  9.3500      5.80260E-29
  9.6100      2.61330E-28
  9.7700      6.40130E-28
  9.9600      1.78700E-27
  10.200      6.22200E-27
  10.380      1.53470E-26
  10.560      3.68180E-26
  10.770      9.88250E-26
  11.040      3.34600E-25
  11.400      1.56680E-24
  11.780      7.29160E-24
  12.130      2.77860E-23
  12.480      9.86830E-23
  12.710      2.19040E-22
  12.840      3.39660E-22
  13.050      6.77530E-22
  13.240      1.24440E-21
  13.390      1.98750E-21
  13.660      4.50450E-21
  13.980      1.14430E-20
  14.330      3.02670E-20
  14.720      8.46110E-20
  15.100      2.20890E-19
  15.520      6.02330E-19
  15.880      1.36660E-18
  16.200      2.74340E-18
  16.600      6.34600E-18
  17.030      1.48950E-17
  17.340      2.69840E-17
  17.680      5.07210E-17
  18.020      9.26220E-17
  18.170      1.20770E-16
  18.610      2.52260E-16
  19.100      5.51950E-16
  19.390      8.61260E-16
  19.840      1.68070E-15
  20.180      2.72070E-15
  20.500      4.22500E-15
  21.050      8.75170E-15
  21.620      1.77740E-14
  21.980      2.76540E-14
  22.300      4.02250E-14
  22.680      6.26510E-14
  23.000      3.01750E-11
  23.400      6.89750E-11
  24.000      1.05700E-10
  24.650      1.70980E-10
  25.240      2.79370E-10
  25.680      3.92160E-10
  26.000      6.72110E-10
  26.400      1.33620E-09
  26.850      2.04850E-09
  27.350      2.71230E-09
  27.850      3.15820E-09
  28.400      6.27230E-09
  29.000      8.90040E-09
  29.600      1.12720E-08
  30.100      2.53590E-08
  30.800      5.46400E-08
  31.800      1.24120E-07
  32.800      1.78230E-07
  33.800      3.37540E-07
  34.800      5.23310E-07
  35.700      1.10100E-06
  36.600      2.47250E-06
  37.500      2.87880E-06
  38.500      3.76980E-06
  39.500      7.04600E-06
  40.500      9.29660E-06
  41.400      1.03470E-05
  42.200      1.17790E-05
  43.000      1.23260E-05
  44.100      1.52060E-05
  45.100      1.64800E-05
  46.000      1.61110E-05
  47.000      1.88430E-05
  48.000      2.25900E-05
  49.000      2.21520E-05
  50.000      2.78870E-05
  50.600      3.71190E-05
  51.200      1.91460E-04
  52.000      1.84430E-04
  53.000      1.69240E-04
  54.000      1.57330E-04
  55.000      1.75950E-04
  56.000      2.42620E-04
  57.000      2.74150E-04
  58.000      2.63400E-04
  59.000      2.80380E-04
  60.000      2.18840E-04
  61.000      2.69800E-04
  62.000      3.43370E-04
  63.000      3.37240E-04
  64.000      3.57520E-04
  65.000      3.52800E-04
  65.800      2.90450E-04
  66.500      3.60390E-04
  67.500      4.18690E-04
  68.500      3.27790E-04
  69.500      4.42140E-04
  70.500      3.50440E-04
  71.600      4.92800E-04
  72.600      4.94200E-04
  73.500      5.07000E-04
  74.500      4.77820E-04
  75.500      4.88990E-04
  76.500      4.91370E-04
  77.500      5.26190E-04
  78.500      5.35970E-04
  79.500      5.64150E-04
  80.500      5.48850E-04
  81.500      5.57320E-04
  82.500      5.96160E-04
  83.500      4.90020E-04
  84.500      5.89010E-04
  85.500      5.90010E-04
  86.500      6.21050E-04
  87.500      6.32720E-04
  88.500      6.48350E-04
  89.500      6.60320E-04
  90.500      6.50150E-04
  91.500      6.20760E-04
  92.500      1.39300E-03
  93.500      2.13340E-03
  94.500      2.71630E-03
  95.500      3.02080E-03
  96.500      3.46410E-03
  97.500      1.77130E-03
  98.500      2.97000E-03
  99.500      2.68460E-03
  100.50      2.80590E-03
  101.50      3.00790E-03
  102.50      2.51400E-03
  103.50      3.08470E-03
  104.50      3.49280E-03
  105.50      3.38470E-03
  106.50      3.05610E-03
  107.50      3.17170E-03
  108.50      2.95270E-03
  109.50      3.17230E-03
  110.50      3.08630E-03
  111.50      3.09470E-03
  112.50      2.68510E-03
  113.50      3.05990E-03
  114.50      3.03270E-03
  115.50      2.88820E-03
  116.50      2.81720E-03
  117.50      2.02570E-03
  118.50      2.65900E-03
  119.50      2.60880E-03
  120.50      2.56300E-03
  121.50      2.08860E-03
  122.50      2.51890E-03
  123.50      2.70740E-03
  124.50      2.65910E-03
  125.50      2.68060E-03
  126.50      2.78670E-03
  127.50      2.90570E-03
  128.50      2.93700E-03
  129.50      2.82650E-03
  130.50      2.82250E-03
  131.50      2.98240E-03
  132.50      2.92800E-03
  133.50      2.87970E-03
  134.50      2.91340E-03
  135.50      2.85670E-03
  136.50      2.80350E-03
  137.50      2.74830E-03
  138.50      2.70710E-03
  139.50      2.33800E-03
  140.50      2.35370E-03
  141.50      2.70170E-03
  142.50      2.44240E-03
  143.50      2.63600E-03
  144.20      2.59980E-03
  144.70      2.60930E-03
  145.50      2.51050E-03
  146.50      2.49670E-03
  147.50      2.53350E-03
  148.50      2.57130E-03
  149.50      2.51480E-03
  150.50      2.49580E-03
  151.20      2.47600E-03
  151.70      2.49900E-03
  152.50      2.43160E-03
  153.50      2.16860E-03
  154.50      1.81630E-03
  155.50      1.86570E-03
  156.50      2.12640E-03
  157.50      2.24480E-03
  158.50      2.27600E-03
  159.50      2.29090E-03
  160.50      2.18150E-03
  161.50      2.10730E-03
  162.50      2.18370E-03
  163.50      2.21040E-03
  164.50      2.21180E-03
  165.50      2.25930E-03
  166.50      2.24390E-03
  167.20      2.08610E-03
  167.70      2.42920E-03
  168.50      2.33720E-03
  169.50      2.28780E-03
  170.50      2.28170E-03
  171.50      2.19950E-03
  172.50      2.14470E-03
  173.50      2.23980E-03
  174.50      2.24130E-03
  175.50      2.22060E-03
  176.50      2.21290E-03
  177.50      2.16010E-03
  178.50      2.21120E-03
  179.50      2.17280E-03
  180.50      2.18110E-03
  181.50      2.15250E-03
  182.50      2.12910E-03
  183.50      2.15000E-03
  184.50      2.09090E-03
  185.50      2.12640E-03
  186.50      2.13870E-03
  187.50      2.10170E-03
  188.50      2.03950E-03
  189.50      2.04080E-03
  190.50      2.08700E-03
  191.50      2.05590E-03
  192.50      1.94970E-03
  193.50      2.06770E-03
  194.50      2.09330E-03
  195.50      1.94280E-03
  196.70      2.03710E-03
  197.60      2.07190E-03
  198.40      2.03710E-03
  199.50      1.99990E-03
  200.50      2.04780E-03
  201.50      2.05000E-03
  202.50      2.05220E-03
  203.50      2.00380E-03
  204.50      1.99010E-03
  205.50      1.57780E-03
  206.50      1.52820E-03
  207.40      1.59160E-03
  207.80      1.59570E-03
  208.50      1.70250E-03
  209.50      1.84370E-03
  210.50      1.92090E-03
  211.50      1.95320E-03
  212.50      1.92610E-03
  213.50      1.92970E-03
  214.50      1.91450E-03
  215.50      1.92960E-03
  216.50      1.85110E-03
  217.50      1.91740E-03
  218.50      1.86040E-03
  219.50      1.91760E-03
  220.50      1.90480E-03
  221.50      1.83430E-03
  222.50      1.87670E-03
  223.50      1.86550E-03
  224.50      1.84620E-03
  225.50      1.79330E-03
  226.50      1.83250E-03
  227.50      1.83010E-03
  228.50      1.79590E-03
  229.50      1.66340E-03
  230.50      1.73380E-03
  231.50      1.75560E-03
  232.50      1.76380E-03
  233.50      1.75150E-03
  234.50      1.73770E-03
  235.50      1.71460E-03
  236.50      1.70070E-03
  237.50      1.67670E-03
  238.50      1.61090E-03
  239.50      1.64460E-03
  240.50      1.65380E-03
  241.50      1.64870E-03
  242.50      1.65220E-03
  243.50      1.63580E-03
  244.50      1.62980E-03
  245.50      1.61820E-03
  246.50      1.61100E-03
  247.50      1.60440E-03
  248.50      1.57090E-03
  249.50      1.25370E-03
  250.50      1.53280E-03
  251.30      1.46940E-03
  251.80      1.51400E-03
  252.50      1.55120E-03
  253.50      1.55300E-03
  254.50      1.53730E-03
  255.50      1.52840E-03
  256.50      1.52240E-03
  257.50      1.51420E-03
  258.50      1.50740E-03
  259.50      1.48800E-03
  260.50      1.49440E-03
  261.50      1.47470E-03
  262.50      1.47710E-03
  263.50      1.47280E-03
  264.50      1.45770E-03
  265.50      1.45380E-03
  266.50      1.43540E-03
  267.50      1.40910E-03
  268.50      1.42570E-03
  269.50      1.40640E-03
  270.50      1.40780E-03
  271.50      1.39510E-03
  272.50      1.39100E-03
  273.50      1.35780E-03
  274.50      1.38380E-03
  275.50      1.37490E-03
  276.50      1.36230E-03
  277.50      1.36560E-03
  278.50      1.35100E-03
  279.50      1.31960E-03
  280.50      1.33330E-03
  281.50      1.33480E-03
  282.50      1.32460E-03
  283.50      1.31160E-03
  284.50      1.31610E-03
  285.50      1.30640E-03
  286.50      1.29250E-03
  287.50      1.28910E-03
  288.50      1.28390E-03
  289.50      1.27640E-03
  291.00      1.26060E-03
  293.00      1.25680E-03
  295.00      1.23830E-03
  297.00      1.22630E-03
  299.00      1.20520E-03
  301.00      1.18910E-03
  303.00      1.17290E-03
  305.00      1.17030E-03
  307.00      1.16320E-03
  309.00      1.14690E-03
  311.00      1.14370E-03
  313.00      1.12870E-03
  315.00      1.12180E-03
  317.00      1.10850E-03
  319.00      1.09890E-03
  321.00      1.07770E-03
  323.00      1.07770E-03
  325.00      1.07180E-03
  327.00      1.05140E-03
  329.00      1.04780E-03
  331.00      1.03650E-03
  333.00      1.02490E-03
  335.00      1.00970E-03
  337.00      1.00360E-03
  339.00      1.00090E-03
  341.00      9.90640E-04
  343.00      9.83410E-04
  345.00      9.68160E-04
  347.00      9.63930E-04
  349.00      9.55750E-04
  351.00      9.48180E-04
  353.00      9.40300E-04
  355.00      9.31040E-04
  357.00      9.24570E-04
  359.00      9.12830E-04
  361.00      9.03180E-04
  363.00      8.96120E-04
  364.00      8.87320E-04
  365.00      8.35410E-04
  367.00      8.30380E-04
  369.00      8.23700E-04
  371.00      8.09180E-04
  373.00      8.08380E-04
  375.00      8.15110E-04
  377.00      8.10880E-04
  379.00      8.40160E-04
  381.00      8.63040E-04
  383.00      7.98720E-04
  385.00      8.73480E-04
  387.00      8.63650E-04
  389.00      7.72870E-04
  391.00      8.72850E-04
  393.00      8.56840E-04
  395.00      8.46240E-04
  397.00      7.41560E-04
  399.00      8.41290E-04
  401.00      8.35270E-04
  403.00      8.11070E-04
  405.00      8.25860E-04
  407.00      8.04790E-04
  409.00      7.68910E-04
  411.00      7.16830E-04
  413.00      7.87180E-04
  415.00      7.84340E-04
  417.00      7.86030E-04
  419.00      7.77610E-04
  421.00      7.67290E-04
  423.00      7.70130E-04
  425.00      7.58220E-04
  427.00      7.49420E-04
  429.00      7.44220E-04
  431.00      7.31900E-04
  433.00      6.96390E-04
  435.00      6.58530E-04
  437.00      7.17600E-04
  439.00      7.07060E-04
  441.00      7.06410E-04
  443.00      7.07090E-04
  445.00      7.00680E-04
  447.00      6.83240E-04
  449.00      6.91030E-04
  451.00      6.80400E-04
  453.00      6.78460E-04
  455.00      6.66470E-04
  457.00      6.71380E-04
  459.00      6.63820E-04
  461.00      6.58700E-04
  463.00      6.49170E-04
  465.00      6.23270E-04
  467.00      6.40870E-04
  469.00      6.27820E-04
  471.00      6.30230E-04
  473.00      6.36350E-04
  475.00      6.31140E-04
  477.00      6.28290E-04
  479.00      6.23520E-04
  481.00      6.17960E-04
  483.00      6.11070E-04
  485.00      5.86770E-04
  487.00      5.42570E-04
  489.00      5.97090E-04
  491.00      5.94430E-04
  493.00      5.83510E-04
  495.00      5.85350E-04
  497.00      5.84430E-04
  499.00      5.80300E-04
  501.00      5.67890E-04
  503.00      5.70020E-04
  505.00      5.65410E-04
  507.00      5.64140E-04
  509.00      5.60010E-04
  511.00      5.55930E-04
  513.00      5.51520E-04
  515.00      5.47790E-04
  517.00      5.43970E-04
  519.00      5.40760E-04
  521.00      5.37340E-04
  523.00      5.33780E-04
  525.00      5.28460E-04
  527.00      5.24850E-04
  529.00      5.23060E-04
  531.00      5.19400E-04
  533.00      5.15950E-04
  535.00      5.12600E-04
  537.00      5.09180E-04
  539.00      5.05600E-04
  541.00      4.95800E-04
  543.00      4.99200E-04
  545.00      4.95900E-04
  547.00      4.92520E-04
  549.00      4.89360E-04
  551.00      4.85900E-04
  553.00      4.82980E-04
  555.00      4.80130E-04
  557.00      4.76700E-04
  559.00      4.72520E-04
  561.00      4.70980E-04
  563.00      4.67980E-04
  565.00      4.64800E-04
  567.00      4.61320E-04
  569.00      4.52070E-04
  571.00      4.40370E-04
  573.00      4.37980E-04
  575.00      4.34910E-04
  577.00      4.33070E-04
  579.00      4.30390E-04
  581.00      4.26730E-04
  583.00      4.24580E-04
  585.00      4.24090E-04
  587.00      4.14680E-04
  589.00      4.20180E-04
  591.00      4.19460E-04
  593.00      4.18170E-04
  595.00      4.17140E-04
  597.00      4.16810E-04
  599.00      4.15490E-04
  601.00      4.14430E-04
  603.00      4.12140E-04
  605.00      4.10470E-04
  607.00      4.08350E-04
  609.00      4.06080E-04
  611.00      4.03400E-04
  613.00      4.01140E-04
  615.00      3.98260E-04
  617.00      3.95830E-04
  619.00      3.94250E-04
  621.00      3.92170E-04
  623.00      3.89420E-04
  625.00      3.87250E-04
  627.00      3.85230E-04
  629.00      3.83070E-04
  631.00      3.79970E-04
  633.00      3.78720E-04
  635.00      3.76290E-04
  637.00      3.74440E-04
  639.00      3.72230E-04
  641.00      3.69250E-04
  643.00      3.68080E-04
  645.00      3.65660E-04
  647.00      3.63120E-04
  649.00      3.61330E-04
  651.00      3.58950E-04
  653.00      3.55340E-04
  655.00      3.47950E-04
  657.00      3.18150E-04
  659.00      3.49330E-04
  661.00      3.49540E-04
  663.00      3.47940E-04
  665.00      3.45930E-04
  667.00      3.40710E-04
  669.00      3.38040E-04
  671.00      3.39540E-04
  673.00      3.37500E-04
  675.00      3.36010E-04
  677.00      3.34780E-04
  679.00      3.32610E-04
  681.00      3.31280E-04
  683.00      3.29480E-04
  685.00      3.27690E-04
  687.00      3.25750E-04
  689.00      3.22200E-04
  691.00      3.21910E-04
  693.00      3.20900E-04
  695.00      3.19170E-04
  697.00      3.17510E-04
  699.00      3.15800E-04
  701.00      3.13860E-04
  703.00      3.11660E-04
  705.00      3.10470E-04
  707.00      3.05450E-04
  709.00      3.07640E-04
  711.00      3.05900E-04
  713.00      3.04310E-04
  715.00      3.02920E-04
  717.00      3.00180E-04
  719.00      2.99150E-04
  721.00      2.98280E-04
  723.00      2.95390E-04
  725.00      2.95010E-04
  727.00      2.93740E-04
  729.00      2.90590E-04
  731.00      2.90610E-04
  733.00      2.89250E-04
  735.00      2.87820E-04
  737.00      2.86350E-04
  739.00      2.84970E-04
  741.00      2.83490E-04
  743.00      2.82130E-04
  745.00      2.80570E-04
  747.00      2.78990E-04
  749.00      2.77000E-04
  751.00      2.76440E-04
  753.00      2.75090E-04
  755.00      2.73830E-04
  757.00      2.72420E-04
  759.00      2.69100E-04
  761.00      2.69330E-04
  763.00      2.68340E-04
  765.00      2.67110E-04
  767.00      2.65940E-04
  769.00      2.64040E-04
  771.00      2.63050E-04
  773.00      2.61330E-04
  775.00      2.60750E-04
  777.00      2.59610E-04
  779.00      2.58380E-04
  781.00      2.57090E-04
  783.00      2.55910E-04
  785.00      2.54490E-04
  787.00      2.53200E-04
  789.00      2.52060E-04
  791.00      2.51130E-04
  793.00      2.49920E-04
  795.00      2.48890E-04
  797.00      2.47530E-04
  799.00      2.46510E-04
  801.00      2.45330E-04
  803.00      2.44050E-04
  805.00      2.43130E-04
  807.00      2.41990E-04
  809.00      2.40740E-04
  811.00      2.39120E-04
  813.00      2.38670E-04
  815.00      2.37370E-04
  817.00      2.36400E-04
  819.00      2.34550E-04
  821.00      2.30100E-04
  823.00      2.28130E-04
  825.00      2.28130E-04
  827.00      2.26570E-04
  829.00      2.26290E-04
  831.00      2.25500E-04
  833.00      2.23970E-04
  835.00      2.22460E-04
  837.00      2.22180E-04
  839.00      2.21600E-04
  841.00      2.20580E-04
  843.00      2.19700E-04
  845.00      2.18100E-04
  847.00      2.17870E-04
  849.00      2.16820E-04
  851.00      2.15170E-04
  853.00      2.15090E-04
  855.00      2.13770E-04
  857.00      2.14120E-04
  859.00      2.10900E-04
  861.00      2.10980E-04
  863.00      2.12460E-04
  865.00      2.09790E-04
  867.00      2.05230E-04
  869.00      2.10090E-04
  871.00      2.10440E-04
  873.00      2.07430E-04
  875.00      1.98480E-04
  877.00      2.04460E-04
  879.00      2.07960E-04
  881.00      2.07810E-04
  883.00      2.06260E-04
  885.00      1.98840E-04
  887.00      1.90760E-04
  889.00      2.02510E-04
  891.00      2.03830E-04
  893.00      2.03230E-04
  895.00      2.02450E-04
  897.00      2.01540E-04
  899.00      1.98000E-04
  901.00      1.84010E-04
  903.00      1.89750E-04
  905.00      1.97220E-04
  907.00      1.96360E-04
  909.00      1.96650E-04
  911.00      1.96440E-04
  913.00      1.95770E-04
  915.00      1.95040E-04
  917.00      1.93580E-04
  919.00      1.92300E-04
  921.00      1.86610E-04
  923.00      1.71510E-04
  925.00      1.84950E-04
  927.00      1.88970E-04
  929.00      1.88990E-04
  931.00      1.88070E-04
  933.00      1.87650E-04
  935.00      1.85040E-04
  937.00      1.86070E-04
  939.00      1.85560E-04
  941.00      1.84610E-04
  943.00      1.83970E-04
  945.00      1.83280E-04
  947.00      1.81950E-04
  949.00      1.81440E-04
  951.00      1.78950E-04
  953.00      1.73540E-04
  955.00      1.59860E-04
  957.00      1.74670E-04
  959.00      1.77390E-04
  961.00      1.76990E-04
  963.00      1.76120E-04
  965.00      1.76240E-04
  967.00      1.75630E-04
  969.00      1.74840E-04
  971.00      1.70890E-04
  973.00      1.73030E-04
  975.00      1.72850E-04
  977.00      1.72020E-04
  979.00      1.71510E-04
  981.00      1.70810E-04
  983.00      1.70170E-04
  985.00      1.69490E-04
  987.00      1.68830E-04
  989.00      1.68030E-04
  991.00      1.67050E-04
  993.00      1.66940E-04
  995.00      1.66320E-04
  997.00      1.65570E-04
  999.00      1.64770E-04
  1002.5      1.58520E-04
  1007.5      1.55170E-04
  1012.5      1.58830E-04
  1017.5      1.59380E-04
  1022.5      1.57820E-04
  1027.5      1.56370E-04
  1032.5      1.54490E-04
  1037.5      1.53560E-04
  1042.5      1.52010E-04
  1047.5      1.50770E-04
  1052.5      1.49380E-04
  1057.5      1.48050E-04
  1062.5      1.46710E-04
  1067.5      1.45260E-04
  1072.5      1.44120E-04
  1077.5      1.42830E-04
  1082.5      1.40450E-04
  1087.5      1.39970E-04
  1092.5      1.30350E-04
  1097.5      1.35420E-04
  1102.5      1.36140E-04
  1107.5      1.35440E-04
  1112.5      1.34330E-04
  1117.5      1.33210E-04
  1122.5      1.32020E-04
  1127.5      1.30930E-04
  1132.5      1.29760E-04
  1137.5      1.28700E-04
  1142.5      1.27620E-04
  1147.5      1.26580E-04
  1152.5      1.25550E-04
  1157.5      1.24460E-04
  1162.5      1.22910E-04
  1167.5      1.22130E-04
  1172.5      1.21460E-04
  1177.5      1.20470E-04
  1182.5      1.19430E-04
  1187.5      1.18500E-04
  1192.5      1.17550E-04
  1197.5      1.15560E-04
  1202.5      1.15690E-04
  1207.5      1.14750E-04
  1212.5      1.13790E-04
  1217.5      1.12960E-04
  1222.5      1.12070E-04
  1227.5      1.11190E-04
  1232.5      1.10310E-04
  1237.5      1.09460E-04
  1242.5      1.08620E-04
  1247.5      1.07770E-04
  1252.5      1.06770E-04
  1257.5      1.06090E-04
  1262.5      1.05300E-04
  1267.5      1.04520E-04
  1272.5      1.03710E-04
  1277.5      1.01500E-04
  1282.5      9.56190E-05
  1287.5      1.00880E-04
  1292.5      1.00640E-04
  1297.5      9.94430E-05
  1302.5      9.91110E-05
  1307.5      9.84290E-05
  1312.5      9.77060E-05
  1317.5      9.69890E-05
  1322.5      9.62810E-05
  1327.5      9.55810E-05
  1332.5      9.48750E-05
  1337.5      9.41760E-05
  1342.5      9.34590E-05
  1347.5      9.28400E-05
  1352.5      9.21540E-05
  1357.5      9.15270E-05
  1362.5      9.08350E-05
  1367.5      9.02340E-05
  1372.5      8.95400E-05
  1377.5      8.89750E-05
  1382.5      8.83520E-05
  1387.5      8.77310E-05
  1392.5      8.70870E-05
  1397.5      8.65150E-05
