 Castelli and Kurucz 2004-2012 Atmosphere
 T     34000.     G    4.50000 [+0.2] N(He)/Ntot=0.07828 VTURB=2.0  L/H=1.25 NO
 Wavelength  Eddington Hnu
   (nm)    (ergs/s/cm2/Hz/sr)
  9.0900      9.28140E-31
  9.3500      4.83910E-30
  9.6100      2.32540E-29
  9.7700      5.90290E-29
  9.9600      1.72030E-28
  10.200      6.31330E-28
  10.380      1.61770E-27
  10.560      4.02770E-27
  10.770      1.12740E-26
  11.040      4.01970E-26
  11.400      2.01040E-25
  11.780      9.98930E-25
  12.130      4.02980E-24
  12.480      1.51060E-23
  12.710      3.46800E-23
  12.840      5.47880E-23
  13.050      1.12540E-22
  13.240      2.12110E-22
  13.390      3.45510E-22
  13.660      8.10750E-22
  13.980      2.14060E-21
  14.330      5.89840E-21
  14.720      1.72430E-20
  15.100      4.67190E-20
  15.520      1.32770E-19
  15.880      3.11430E-19
  16.200      6.43960E-19
  16.600      1.53960E-18
  17.030      3.74390E-18
  17.340      6.94610E-18
  17.680      1.33810E-17
  18.020      2.50370E-17
  18.170      3.29860E-17
  18.610      7.09550E-17
  19.100      1.60190E-16
  19.390      2.54230E-16
  19.840      5.09570E-16
  20.180      8.41580E-16
  20.500      1.33080E-15
  21.050      2.83910E-15
  21.620      5.94480E-15
  21.980      9.40680E-15
  22.300      1.38980E-14
  22.680      2.20740E-14
  23.000      9.07900E-12
  23.400      2.03440E-11
  24.000      3.23340E-11
  24.650      5.44400E-11
  25.240      9.02600E-11
  25.680      1.27320E-10
  26.000      2.24980E-10
  26.400      4.15280E-10
  26.850      6.34200E-10
  27.350      8.63790E-10
  27.850      1.05650E-09
  28.400      2.18070E-09
  29.000      3.15740E-09
  29.600      4.13730E-09
  30.100      8.07450E-09
  30.800      1.78930E-08
  31.800      4.07400E-08
  32.800      5.93120E-08
  33.800      1.12140E-07
  34.800      1.77630E-07
  35.700      3.61220E-07
  36.600      7.69110E-07
  37.500      9.05390E-07
  38.500      1.27950E-06
  39.500      2.31300E-06
  40.500      2.93220E-06
  41.400      3.63090E-06
  42.200      4.19940E-06
  43.000      4.70850E-06
  44.100      5.94290E-06
  45.100      6.65440E-06
  46.000      6.92500E-06
  47.000      8.35790E-06
  48.000      1.00910E-05
  49.000      1.07020E-05
  50.000      1.33420E-05
  50.600      2.02830E-05
  51.200      1.24250E-04
  52.000      1.19940E-04
  53.000      1.10710E-04
  54.000      1.03800E-04
  55.000      1.21590E-04
  56.000      1.64250E-04
  57.000      1.82420E-04
  58.000      1.74030E-04
  59.000      1.87390E-04
  60.000      1.48970E-04
  61.000      1.87000E-04
  62.000      2.33410E-04
  63.000      2.30150E-04
  64.000      2.39060E-04
  65.000      2.38660E-04
  65.800      1.99110E-04
  66.500      2.44630E-04
  67.500      2.82760E-04
  68.500      2.23190E-04
  69.500      3.05020E-04
  70.500      2.45080E-04
  71.600      3.41820E-04
  72.600      3.41650E-04
  73.500      3.49630E-04
  74.500      3.35360E-04
  75.500      3.43530E-04
  76.500      3.51750E-04
  77.500      3.74060E-04
  78.500      3.88680E-04
  79.500      4.03210E-04
  80.500      3.92140E-04
  81.500      3.97820E-04
  82.500      4.28500E-04
  83.500      3.53700E-04
  84.500      4.24060E-04
  85.500      4.26690E-04
  86.500      4.49230E-04
  87.500      4.59340E-04
  88.500      4.74110E-04
  89.500      4.84830E-04
  90.500      4.77950E-04
  91.500      4.79080E-04
  92.500      1.19500E-03
  93.500      1.88070E-03
  94.500      2.47850E-03
  95.500      2.75790E-03
  96.500      3.18900E-03
  97.500      1.45960E-03
  98.500      2.70230E-03
  99.500      2.45780E-03
  100.50      2.59870E-03
  101.50      2.78710E-03
  102.50      2.25920E-03
  103.50      2.82530E-03
  104.50      3.26400E-03
  105.50      3.15130E-03
  106.50      2.80030E-03
  107.50      2.93480E-03
  108.50      2.72870E-03
  109.50      2.94610E-03
  110.50      2.86320E-03
  111.50      2.87120E-03
  112.50      2.43410E-03
  113.50      2.83250E-03
  114.50      2.78620E-03
  115.50      2.67390E-03
  116.50      2.61330E-03
  117.50      1.80650E-03
  118.50      2.45890E-03
  119.50      2.41940E-03
  120.50      2.35820E-03
  121.50      1.88720E-03
  122.50      2.33790E-03
  123.50      2.52990E-03
  124.50      2.47590E-03
  125.50      2.49820E-03
  126.50      2.60190E-03
  127.50      2.71590E-03
  128.50      2.74840E-03
  129.50      2.61270E-03
  130.50      2.62660E-03
  131.50      2.79680E-03
  132.50      2.73580E-03
  133.50      2.68900E-03
  134.50      2.71910E-03
  135.50      2.67860E-03
  136.50      2.62170E-03
  137.50      2.57370E-03
  138.50      2.52570E-03
  139.50      2.10650E-03
  140.50      2.15400E-03
  141.50      2.50520E-03
  142.50      2.26720E-03
  143.50      2.45100E-03
  144.20      2.43100E-03
  144.70      2.43630E-03
  145.50      2.34200E-03
  146.50      2.31660E-03
  147.50      2.35750E-03
  148.50      2.38880E-03
  149.50      2.33680E-03
  150.50      2.29980E-03
  151.20      2.26970E-03
  151.70      2.29910E-03
  152.50      2.23780E-03
  153.50      1.97910E-03
  154.50      1.68240E-03
  155.50      1.71690E-03
  156.50      1.95520E-03
  157.50      2.07070E-03
  158.50      2.10430E-03
  159.50      2.11630E-03
  160.50      2.02310E-03
  161.50      1.94950E-03
  162.50      2.02290E-03
  163.50      2.05600E-03
  164.50      2.06330E-03
  165.50      2.10120E-03
  166.50      2.09070E-03
  167.20      1.94210E-03
  167.70      2.27250E-03
  168.50      2.17940E-03
  169.50      2.12710E-03
  170.50      2.12310E-03
  171.50      2.04580E-03
  172.50      1.98910E-03
  173.50      2.07980E-03
  174.50      2.08080E-03
  175.50      2.06680E-03
  176.50      2.05870E-03
  177.50      2.00560E-03
  178.50      2.05570E-03
  179.50      2.02570E-03
  180.50      2.03690E-03
  181.50      2.00050E-03
  182.50      1.98570E-03
  183.50      2.00230E-03
  184.50      1.92630E-03
  185.50      1.96940E-03
  186.50      1.98640E-03
  187.50      1.95760E-03
  188.50      1.88290E-03
  189.50      1.86920E-03
  190.50      1.92750E-03
  191.50      1.89300E-03
  192.50      1.79110E-03
  193.50      1.91170E-03
  194.50      1.94440E-03
  195.50      1.79040E-03
  196.70      1.88840E-03
  197.60      1.93650E-03
  198.40      1.88730E-03
  199.50      1.85510E-03
  200.50      1.90200E-03
  201.50      1.90940E-03
  202.50      1.91910E-03
  203.50      1.86010E-03
  204.50      1.85190E-03
  205.50      1.50140E-03
  206.50      1.45880E-03
  207.40      1.52110E-03
  207.80      1.51240E-03
  208.50      1.60240E-03
  209.50      1.71350E-03
  210.50      1.79470E-03
  211.50      1.82520E-03
  212.50      1.80440E-03
  213.50      1.80510E-03
  214.50      1.78740E-03
  215.50      1.80450E-03
  216.50      1.73830E-03
  217.50      1.79180E-03
  218.50      1.74470E-03
  219.50      1.79460E-03
  220.50      1.78250E-03
  221.50      1.72260E-03
  222.50      1.75560E-03
  223.50      1.74320E-03
  224.50      1.72820E-03
  225.50      1.68210E-03
  226.50      1.71520E-03
  227.50      1.71240E-03
  228.50      1.68100E-03
  229.50      1.54010E-03
  230.50      1.62610E-03
  231.50      1.64260E-03
  232.50      1.64980E-03
  233.50      1.63700E-03
  234.50      1.62820E-03
  235.50      1.60710E-03
  236.50      1.59470E-03
  237.50      1.57220E-03
  238.50      1.51620E-03
  239.50      1.54240E-03
  240.50      1.55120E-03
  241.50      1.54500E-03
  242.50      1.54760E-03
  243.50      1.53120E-03
  244.50      1.52670E-03
  245.50      1.51710E-03
  246.50      1.50980E-03
  247.50      1.50200E-03
  248.50      1.47070E-03
  249.50      1.16250E-03
  250.50      1.43250E-03
  251.30      1.37850E-03
  251.80      1.41790E-03
  252.50      1.45470E-03
  253.50      1.45550E-03
  254.50      1.43680E-03
  255.50      1.43050E-03
  256.50      1.42530E-03
  257.50      1.41830E-03
  258.50      1.41240E-03
  259.50      1.39680E-03
  260.50      1.40090E-03
  261.50      1.38290E-03
  262.50      1.38450E-03
  263.50      1.37990E-03
  264.50      1.36610E-03
  265.50      1.36210E-03
  266.50      1.34170E-03
  267.50      1.31960E-03
  268.50      1.33610E-03
  269.50      1.31470E-03
  270.50      1.31400E-03
  271.50      1.30420E-03
  272.50      1.30130E-03
  273.50      1.27430E-03
  274.50      1.29440E-03
  275.50      1.28710E-03
  276.50      1.27440E-03
  277.50      1.28000E-03
  278.50      1.26640E-03
  279.50      1.23410E-03
  280.50      1.24800E-03
  281.50      1.25140E-03
  282.50      1.24090E-03
  283.50      1.22540E-03
  284.50      1.23290E-03
  285.50      1.22320E-03
  286.50      1.21140E-03
  287.50      1.20770E-03
  288.50      1.20250E-03
  289.50      1.19570E-03
  291.00      1.18010E-03
  293.00      1.17770E-03
  295.00      1.15900E-03
  297.00      1.14910E-03
  299.00      1.12960E-03
  301.00      1.11300E-03
  303.00      1.09960E-03
  305.00      1.09740E-03
  307.00      1.09190E-03
  309.00      1.07310E-03
  311.00      1.07260E-03
  313.00      1.05780E-03
  315.00      1.05120E-03
  317.00      1.03850E-03
  319.00      1.02950E-03
  321.00      1.01240E-03
  323.00      1.00950E-03
  325.00      1.00460E-03
  327.00      9.86370E-04
  329.00      9.82160E-04
  331.00      9.71970E-04
  333.00      9.60430E-04
  335.00      9.47480E-04
  337.00      9.41020E-04
  339.00      9.38930E-04
  341.00      9.29340E-04
  343.00      9.22320E-04
  345.00      9.08330E-04
  347.00      9.03700E-04
  349.00      8.95730E-04
  351.00      8.88590E-04
  353.00      8.82390E-04
  355.00      8.73470E-04
  357.00      8.67520E-04
  359.00      8.55550E-04
  361.00      8.47460E-04
  363.00      8.40710E-04
  364.00      8.34990E-04
  365.00      7.94410E-04
  367.00      7.90120E-04
  369.00      7.83590E-04
  371.00      7.67290E-04
  373.00      7.63120E-04
  375.00      7.68660E-04
  377.00      7.61700E-04
  379.00      7.91420E-04
  381.00      8.15040E-04
  383.00      7.48830E-04
  385.00      8.27600E-04
  387.00      8.17420E-04
  389.00      7.24900E-04
  391.00      8.29120E-04
  393.00      8.13760E-04
  395.00      8.02780E-04
  397.00      6.95640E-04
  399.00      7.98490E-04
  401.00      7.93780E-04
  403.00      7.69430E-04
  405.00      7.84720E-04
  407.00      7.62450E-04
  409.00      7.26240E-04
  411.00      6.74060E-04
  413.00      7.46780E-04
  415.00      7.44610E-04
  417.00      7.46990E-04
  419.00      7.39680E-04
  421.00      7.31360E-04
  423.00      7.31980E-04
  425.00      7.19670E-04
  427.00      7.10640E-04
  429.00      7.05600E-04
  431.00      6.93150E-04
  433.00      6.57030E-04
  435.00      6.19530E-04
  437.00      6.79680E-04
  439.00      6.70880E-04
  441.00      6.70980E-04
  443.00      6.71920E-04
  445.00      6.65740E-04
  447.00      6.47500E-04
  449.00      6.56770E-04
  451.00      6.47590E-04
  453.00      6.45970E-04
  455.00      6.35810E-04
  457.00      6.38690E-04
  459.00      6.31620E-04
  461.00      6.25730E-04
  463.00      6.16760E-04
  465.00      5.92120E-04
  467.00      6.09250E-04
  469.00      5.99190E-04
  471.00      5.97860E-04
  473.00      6.04760E-04
  475.00      5.99560E-04
  477.00      5.97870E-04
  479.00      5.93220E-04
  481.00      5.87500E-04
  483.00      5.80410E-04
  485.00      5.55430E-04
  487.00      5.11520E-04
  489.00      5.67480E-04
  491.00      5.65200E-04
  493.00      5.53850E-04
  495.00      5.56290E-04
  497.00      5.56070E-04
  499.00      5.52020E-04
  501.00      5.38740E-04
  503.00      5.42000E-04
  505.00      5.37420E-04
  507.00      5.36720E-04
  509.00      5.32610E-04
  511.00      5.28630E-04
  513.00      5.24180E-04
  515.00      5.20710E-04
  517.00      5.17220E-04
  519.00      5.14280E-04
  521.00      5.11110E-04
  523.00      5.07670E-04
  525.00      5.02690E-04
  527.00      4.99140E-04
  529.00      4.97430E-04
  531.00      4.93980E-04
  533.00      4.90740E-04
  535.00      4.87500E-04
  537.00      4.84290E-04
  539.00      4.80810E-04
  541.00      4.72720E-04
  543.00      4.74820E-04
  545.00      4.71630E-04
  547.00      4.68410E-04
  549.00      4.65390E-04
  551.00      4.62260E-04
  553.00      4.59250E-04
  555.00      4.56680E-04
  557.00      4.53450E-04
  559.00      4.49640E-04
  561.00      4.47960E-04
  563.00      4.45120E-04
  565.00      4.42040E-04
  567.00      4.38490E-04
  569.00      4.30230E-04
  571.00      4.22530E-04
  573.00      4.20320E-04
  575.00      4.17160E-04
  577.00      4.15610E-04
  579.00      4.12950E-04
  581.00      4.09670E-04
  583.00      4.07060E-04
  585.00      4.06380E-04
  587.00      3.96260E-04
  589.00      4.01640E-04
  591.00      4.00890E-04
  593.00      3.99270E-04
  595.00      3.97870E-04
  597.00      3.97340E-04
  599.00      3.95430E-04
  601.00      3.94300E-04
  603.00      3.92070E-04
  605.00      3.90320E-04
  607.00      3.88350E-04
  609.00      3.86120E-04
  611.00      3.83600E-04
  613.00      3.81510E-04
  615.00      3.78510E-04
  617.00      3.76400E-04
  619.00      3.74820E-04
  621.00      3.72820E-04
  623.00      3.70500E-04
  625.00      3.68140E-04
  627.00      3.66250E-04
  629.00      3.64220E-04
  631.00      3.61510E-04
  633.00      3.60050E-04
  635.00      3.57740E-04
  637.00      3.56030E-04
  639.00      3.53930E-04
  641.00      3.51470E-04
  643.00      3.49990E-04
  645.00      3.47730E-04
  647.00      3.45160E-04
  649.00      3.43470E-04
  651.00      3.41280E-04
  653.00      3.38080E-04
  655.00      3.30020E-04
  657.00      3.00420E-04
  659.00      3.31610E-04
  661.00      3.32270E-04
  663.00      3.30820E-04
  665.00      3.28880E-04
  667.00      3.23860E-04
  669.00      3.21720E-04
  671.00      3.22930E-04
  673.00      3.20840E-04
  675.00      3.19590E-04
  677.00      3.18380E-04
  679.00      3.15960E-04
  681.00      3.14980E-04
  683.00      3.13250E-04
  685.00      3.11610E-04
  687.00      3.09780E-04
  689.00      3.06920E-04
  691.00      3.06000E-04
  693.00      3.05160E-04
  695.00      3.03520E-04
  697.00      3.01940E-04
  699.00      3.00320E-04
  701.00      2.98510E-04
  703.00      2.96440E-04
  705.00      2.95290E-04
  707.00      2.90240E-04
  709.00      2.92560E-04
  711.00      2.90610E-04
  713.00      2.89290E-04
  715.00      2.88070E-04
  717.00      2.85830E-04
  719.00      2.84720E-04
  721.00      2.83660E-04
  723.00      2.80380E-04
  725.00      2.80460E-04
  727.00      2.79340E-04
  729.00      2.76210E-04
  731.00      2.76400E-04
  733.00      2.75060E-04
  735.00      2.73710E-04
  737.00      2.72340E-04
  739.00      2.71010E-04
  741.00      2.69620E-04
  743.00      2.68310E-04
  745.00      2.66870E-04
  747.00      2.65180E-04
  749.00      2.63520E-04
  751.00      2.62920E-04
  753.00      2.61600E-04
  755.00      2.60450E-04
  757.00      2.59100E-04
  759.00      2.56560E-04
  761.00      2.56180E-04
  763.00      2.55230E-04
  765.00      2.54040E-04
  767.00      2.52930E-04
  769.00      2.51210E-04
  771.00      2.50210E-04
  773.00      2.48610E-04
  775.00      2.48050E-04
  777.00      2.46900E-04
  779.00      2.45760E-04
  781.00      2.44510E-04
  783.00      2.43410E-04
  785.00      2.42150E-04
  787.00      2.40820E-04
  789.00      2.39650E-04
  791.00      2.38810E-04
  793.00      2.37690E-04
  795.00      2.36720E-04
  797.00      2.35430E-04
  799.00      2.34470E-04
  801.00      2.33340E-04
  803.00      2.32120E-04
  805.00      2.31220E-04
  807.00      2.30140E-04
  809.00      2.28930E-04
  811.00      2.27160E-04
  813.00      2.26990E-04
  815.00      2.25770E-04
  817.00      2.24870E-04
  819.00      2.23050E-04
  821.00      2.19920E-04
  823.00      2.18230E-04
  825.00      2.18170E-04
  827.00      2.16370E-04
  829.00      2.16310E-04
  831.00      2.15580E-04
  833.00      2.14170E-04
  835.00      2.12600E-04
  837.00      2.12340E-04
  839.00      2.11830E-04
  841.00      2.10810E-04
  843.00      2.09950E-04
  845.00      2.08270E-04
  847.00      2.08160E-04
  849.00      2.07060E-04
  851.00      2.05480E-04
  853.00      2.05320E-04
  855.00      2.03960E-04
  857.00      2.04440E-04
  859.00      2.00910E-04
  861.00      2.01100E-04
  863.00      2.02790E-04
  865.00      1.99890E-04
  867.00      1.95110E-04
  869.00      2.00350E-04
  871.00      2.00780E-04
  873.00      1.97520E-04
  875.00      1.88160E-04
  877.00      1.94430E-04
  879.00      1.98250E-04
  881.00      1.98150E-04
  883.00      1.96480E-04
  885.00      1.88750E-04
  887.00      1.80610E-04
  889.00      1.92760E-04
  891.00      1.94260E-04
  893.00      1.93750E-04
  895.00      1.93040E-04
  897.00      1.92090E-04
  899.00      1.88410E-04
  901.00      1.74220E-04
  903.00      1.80080E-04
  905.00      1.87850E-04
  907.00      1.87030E-04
  909.00      1.87430E-04
  911.00      1.87370E-04
  913.00      1.86690E-04
  915.00      1.85960E-04
  917.00      1.84500E-04
  919.00      1.83250E-04
  921.00      1.77360E-04
  923.00      1.62200E-04
  925.00      1.75770E-04
  927.00      1.80050E-04
  929.00      1.80100E-04
  931.00      1.79260E-04
  933.00      1.78870E-04
  935.00      1.77000E-04
  937.00      1.77490E-04
  939.00      1.76960E-04
  941.00      1.76060E-04
  943.00      1.75440E-04
  945.00      1.74730E-04
  947.00      1.73380E-04
  949.00      1.72920E-04
  951.00      1.70420E-04
  953.00      1.64850E-04
  955.00      1.51250E-04
  957.00      1.66140E-04
  959.00      1.69050E-04
  961.00      1.68660E-04
  963.00      1.67820E-04
  965.00      1.68070E-04
  967.00      1.67480E-04
  969.00      1.66720E-04
  971.00      1.63100E-04
  973.00      1.65050E-04
  975.00      1.64840E-04
  977.00      1.64160E-04
  979.00      1.63560E-04
  981.00      1.62870E-04
  983.00      1.62290E-04
  985.00      1.61630E-04
  987.00      1.60980E-04
  989.00      1.60180E-04
  991.00      1.59170E-04
  993.00      1.59200E-04
  995.00      1.58590E-04
  997.00      1.57880E-04
  999.00      1.57040E-04
  1002.5      1.50750E-04
  1007.5      1.47500E-04
  1012.5      1.51700E-04
  1017.5      1.52000E-04
  1022.5      1.50500E-04
  1027.5      1.49140E-04
  1032.5      1.47310E-04
  1037.5      1.46450E-04
  1042.5      1.45050E-04
  1047.5      1.43800E-04
  1052.5      1.42460E-04
  1057.5      1.41200E-04
  1062.5      1.39930E-04
  1067.5      1.38520E-04
  1072.5      1.37450E-04
  1077.5      1.36220E-04
  1082.5      1.33890E-04
  1087.5      1.33440E-04
  1092.5      1.23810E-04
  1097.5      1.28950E-04
  1102.5      1.29750E-04
  1107.5      1.29170E-04
  1112.5      1.28110E-04
  1117.5      1.27050E-04
  1122.5      1.25920E-04
  1127.5      1.24880E-04
  1132.5      1.23740E-04
  1137.5      1.22750E-04
  1142.5      1.21710E-04
  1147.5      1.20720E-04
  1152.5      1.19750E-04
  1157.5      1.18700E-04
  1162.5      1.17390E-04
  1167.5      1.16550E-04
  1172.5      1.15850E-04
  1177.5      1.14900E-04
  1182.5      1.13930E-04
  1187.5      1.13030E-04
  1192.5      1.12130E-04
  1197.5      1.10150E-04
  1202.5      1.10350E-04
  1207.5      1.09460E-04
  1212.5      1.08550E-04
  1217.5      1.07750E-04
  1222.5      1.06900E-04
  1227.5      1.06070E-04
  1232.5      1.05230E-04
  1237.5      1.04410E-04
  1242.5      1.03610E-04
  1247.5      1.02790E-04
  1252.5      1.01820E-04
  1257.5      1.01190E-04
  1262.5      1.00440E-04
  1267.5      9.97040E-05
  1272.5      9.89100E-05
  1277.5      9.67130E-05
  1282.5      9.08680E-05
  1287.5      9.61770E-05
  1292.5      9.60060E-05
  1297.5      9.47940E-05
  1302.5      9.45390E-05
  1307.5      9.38990E-05
  1312.5      9.32100E-05
  1317.5      9.25260E-05
  1322.5      9.18520E-05
  1327.5      9.11840E-05
  1332.5      9.05040E-05
  1337.5      8.98330E-05
  1342.5      8.91500E-05
  1347.5      8.85700E-05
  1352.5      8.79060E-05
  1357.5      8.73170E-05
  1362.5      8.66410E-05
  1367.5      8.60860E-05
  1372.5      8.54160E-05
  1377.5      8.48870E-05
  1382.5      8.42940E-05
  1387.5      8.37010E-05
  1392.5      8.30760E-05
  1397.5      8.25390E-05
