 Castelli and Kurucz 2004-2012 Atmosphere
 T     32000.     G    5.00000 [+0.2] N(He)/Ntot=0.07828 VTURB=2.0  L/H=1.25 NO
 Wavelength  Eddington Hnu
   (nm)    (ergs/s/cm2/Hz/sr)
  9.0900      4.39910E-33
  9.3500      2.64040E-32
  9.6100      1.44530E-31
  9.7700      3.94350E-31
  9.9600      1.24810E-30
  10.200      5.04850E-30
  10.380      1.38550E-29
  10.560      3.68160E-29
  10.770      1.10760E-28
  11.040      4.31020E-28
  11.400      2.40350E-27
  11.780      1.33030E-26
  12.130      5.89290E-26
  12.480      2.41690E-25
  12.710      5.87740E-25
  12.840      9.58670E-25
  13.050      2.07210E-24
  13.240      4.08720E-24
  13.390      6.89770E-24
  13.660      1.72480E-23
  13.980      4.90170E-23
  14.330      1.46220E-22
  14.720      4.66950E-22
  15.100      1.37210E-21
  15.520      4.26510E-21
  15.880      1.07890E-20
  16.200      2.38610E-20
  16.600      6.18150E-20
  17.030      1.63580E-19
  17.340      3.22000E-19
  17.680      6.57970E-19
  18.020      1.31030E-18
  18.170      1.76340E-18
  18.610      4.10020E-18
  19.100      1.00530E-17
  19.390      1.67390E-17
  19.840      3.59160E-17
  20.180      6.25670E-17
  20.500      1.03790E-16
  21.050      2.39750E-16
  21.620      5.45740E-16
  21.980      9.00780E-16
  22.300      1.38670E-15
  22.680      2.32440E-15
  23.000      3.74200E-13
  23.400      8.35660E-13
  24.000      1.49350E-12
  24.650      2.80340E-12
  25.240      4.91140E-12
  25.680      7.07240E-12
  26.000      1.14130E-11
  26.400      1.71700E-11
  26.850      2.61230E-11
  27.350      3.85380E-11
  27.850      5.39320E-11
  28.400      1.09680E-10
  29.000      1.67800E-10
  29.600      2.42760E-10
  30.100      3.42710E-10
  30.800      6.88800E-10
  31.800      1.46110E-09
  32.800      2.37390E-09
  33.800      4.30510E-09
  34.800      7.12170E-09
  35.700      1.82450E-08
  36.600      3.62050E-08
  37.500      4.77730E-08
  38.500      7.35940E-08
  39.500      1.35900E-07
  40.500      1.79110E-07
  41.400      2.51280E-07
  42.200      3.02780E-07
  43.000      3.84180E-07
  44.100      5.11940E-07
  45.100      6.25080E-07
  46.000      7.29300E-07
  47.000      9.32720E-07
  48.000      1.16430E-06
  49.000      1.41200E-06
  50.000      1.74080E-06
  50.600      3.70700E-06
  51.200      2.87220E-05
  52.000      2.79750E-05
  53.000      2.76400E-05
  54.000      2.62620E-05
  55.000      3.44880E-05
  56.000      4.21390E-05
  57.000      4.53290E-05
  58.000      4.28750E-05
  59.000      4.87040E-05
  60.000      4.45380E-05
  61.000      5.35960E-05
  62.000      6.24340E-05
  63.000      6.31070E-05
  64.000      6.22350E-05
  65.000      6.67250E-05
  65.800      6.30970E-05
  66.500      7.11220E-05
  67.500      7.62400E-05
  68.500      6.67490E-05
  69.500      8.99320E-05
  70.500      8.09920E-05
  71.600      1.01270E-04
  72.600      1.01510E-04
  73.500      1.04130E-04
  74.500      1.10060E-04
  75.500      1.13080E-04
  76.500      1.19370E-04
  77.500      1.25650E-04
  78.500      1.33890E-04
  79.500      1.36670E-04
  80.500      1.36890E-04
  81.500      1.39480E-04
  82.500      1.50620E-04
  83.500      1.30180E-04
  84.500      1.52090E-04
  85.500      1.54220E-04
  86.500      1.63210E-04
  87.500      1.69700E-04
  88.500      1.78730E-04
  89.500      1.85020E-04
  90.500      1.83830E-04
  91.500      1.91010E-04
  92.500      5.78780E-04
  93.500      1.06880E-03
  94.500      1.81280E-03
  95.500      2.15490E-03
  96.500      2.71820E-03
  97.500      8.42520E-04
  98.500      2.39230E-03
  99.500      2.17470E-03
  100.50      2.39870E-03
  101.50      2.51870E-03
  102.50      1.54620E-03
  103.50      2.39760E-03
  104.50      3.04760E-03
  105.50      2.90770E-03
  106.50      2.43250E-03
  107.50      2.67090E-03
  108.50      2.44670E-03
  109.50      2.71730E-03
  110.50      2.60600E-03
  111.50      2.60970E-03
  112.50      2.09470E-03
  113.50      2.57710E-03
  114.50      2.44310E-03
  115.50      2.41920E-03
  116.50      2.37260E-03
  117.50      1.51810E-03
  118.50      2.23770E-03
  119.50      2.19200E-03
  120.50      2.01320E-03
  121.50      1.35600E-03
  122.50      2.07430E-03
  123.50      2.31720E-03
  124.50      2.26090E-03
  125.50      2.28100E-03
  126.50      2.37390E-03
  127.50      2.46700E-03
  128.50      2.49700E-03
  129.50      2.22250E-03
  130.50      2.30790E-03
  131.50      2.53420E-03
  132.50      2.43450E-03
  133.50      2.39930E-03
  134.50      2.40020E-03
  135.50      2.40780E-03
  136.50      2.30720E-03
  137.50      2.26890E-03
  138.50      2.21050E-03
  139.50      1.70040E-03
  140.50      1.80610E-03
  141.50      2.12770E-03
  142.50      1.96150E-03
  143.50      2.10910E-03
  144.20      2.13730E-03
  144.70      2.12800E-03
  145.50      2.05220E-03
  146.50      1.98380E-03
  147.50      2.02450E-03
  148.50      2.03770E-03
  149.50      2.00020E-03
  150.50      1.89630E-03
  151.20      1.81190E-03
  151.70      1.85000E-03
  152.50      1.84130E-03
  153.50      1.58480E-03
  154.50      1.44160E-03
  155.50      1.43920E-03
  156.50      1.61020E-03
  157.50      1.71580E-03
  158.50      1.74440E-03
  159.50      1.75510E-03
  160.50      1.71870E-03
  161.50      1.65030E-03
  162.50      1.70200E-03
  163.50      1.75490E-03
  164.50      1.76560E-03
  165.50      1.79350E-03
  166.50      1.79550E-03
  167.20      1.68850E-03
  167.70      1.94600E-03
  168.50      1.86260E-03
  169.50      1.80180E-03
  170.50      1.78510E-03
  171.50      1.72580E-03
  172.50      1.66530E-03
  173.50      1.74740E-03
  174.50      1.74600E-03
  175.50      1.74660E-03
  176.50      1.73610E-03
  177.50      1.67370E-03
  178.50      1.71880E-03
  179.50      1.71950E-03
  180.50      1.73610E-03
  181.50      1.65880E-03
  182.50      1.67600E-03
  183.50      1.66990E-03
  184.50      1.55670E-03
  185.50      1.60690E-03
  186.50      1.63650E-03
  187.50      1.63850E-03
  188.50      1.52760E-03
  189.50      1.47280E-03
  190.50      1.55760E-03
  191.50      1.51060E-03
  192.50      1.42560E-03
  193.50      1.53820E-03
  194.50      1.58740E-03
  195.50      1.43800E-03
  196.70      1.53960E-03
  197.60      1.61540E-03
  198.40      1.52480E-03
  199.50      1.51240E-03
  200.50      1.55350E-03
  201.50      1.56310E-03
  202.50      1.58990E-03
  203.50      1.50300E-03
  204.50      1.51220E-03
  205.50      1.33140E-03
  206.50      1.31510E-03
  207.40      1.36680E-03
  207.80      1.30990E-03
  208.50      1.35390E-03
  209.50      1.36100E-03
  210.50      1.47160E-03
  211.50      1.49900E-03
  212.50      1.50170E-03
  213.50      1.48960E-03
  214.50      1.45820E-03
  215.50      1.48820E-03
  216.50      1.45810E-03
  217.50      1.47370E-03
  218.50      1.44780E-03
  219.50      1.47510E-03
  220.50      1.46850E-03
  221.50      1.43860E-03
  222.50      1.44180E-03
  223.50      1.42650E-03
  224.50      1.42770E-03
  225.50      1.39390E-03
  226.50      1.41420E-03
  227.50      1.40830E-03
  228.50      1.38830E-03
  229.50      1.26470E-03
  230.50      1.35180E-03
  231.50      1.35290E-03
  232.50      1.35390E-03
  233.50      1.34020E-03
  234.50      1.34710E-03
  235.50      1.33360E-03
  236.50      1.32630E-03
  237.50      1.30530E-03
  238.50      1.27850E-03
  239.50      1.28550E-03
  240.50      1.28770E-03
  241.50      1.27960E-03
  242.50      1.28020E-03
  243.50      1.26070E-03
  244.50      1.26110E-03
  245.50      1.25730E-03
  246.50      1.25140E-03
  247.50      1.24110E-03
  248.50      1.22230E-03
  249.50      1.00220E-03
  250.50      1.19100E-03
  251.30      1.14260E-03
  251.80      1.17530E-03
  252.50      1.20370E-03
  253.50      1.20290E-03
  254.50      1.17730E-03
  255.50      1.17790E-03
  256.50      1.17280E-03
  257.50      1.16980E-03
  258.50      1.16690E-03
  259.50      1.15940E-03
  260.50      1.15780E-03
  261.50      1.14590E-03
  262.50      1.14510E-03
  263.50      1.13980E-03
  264.50      1.12800E-03
  265.50      1.12530E-03
  266.50      1.09910E-03
  267.50      1.09270E-03
  268.50      1.10380E-03
  269.50      1.07540E-03
  270.50      1.06770E-03
  271.50      1.06810E-03
  272.50      1.06810E-03
  273.50      1.05580E-03
  274.50      1.05930E-03
  275.50      1.05710E-03
  276.50      1.04430E-03
  277.50      1.05570E-03
  278.50      1.04450E-03
  279.50      1.01280E-03
  280.50      1.02480E-03
  281.50      1.03320E-03
  282.50      1.02100E-03
  283.50      9.99340E-04
  284.50      1.01560E-03
  285.50      1.00460E-03
  286.50      1.00030E-03
  287.50      9.95670E-04
  288.50      9.89700E-04
  289.50      9.83920E-04
  291.00      9.69800E-04
  293.00      9.70410E-04
  295.00      9.50850E-04
  297.00      9.47520E-04
  299.00      9.32860E-04
  301.00      9.14300E-04
  303.00      9.10460E-04
  305.00      9.07820E-04
  307.00      9.05180E-04
  309.00      8.80880E-04
  311.00      8.86320E-04
  313.00      8.72330E-04
  315.00      8.67110E-04
  317.00      8.55360E-04
  319.00      8.46730E-04
  321.00      8.40870E-04
  323.00      8.31970E-04
  325.00      8.28970E-04
  327.00      8.16690E-04
  329.00      8.10870E-04
  331.00      8.03620E-04
  333.00      7.93090E-04
  335.00      7.86100E-04
  337.00      7.78660E-04
  339.00      7.76440E-04
  341.00      7.68850E-04
  343.00      7.62030E-04
  345.00      7.51490E-04
  347.00      7.45950E-04
  349.00      7.38890E-04
  351.00      7.33340E-04
  353.00      7.29490E-04
  355.00      7.22320E-04
  357.00      7.18850E-04
  359.00      7.05240E-04
  361.00      7.02370E-04
  363.00      6.95290E-04
  364.00      6.96760E-04
  365.00      6.80790E-04
  367.00      6.78730E-04
  369.00      6.73690E-04
  371.00      6.55360E-04
  373.00      6.47780E-04
  375.00      6.43100E-04
  377.00      6.26790E-04
  379.00      6.48220E-04
  381.00      6.72720E-04
  383.00      6.04240E-04
  385.00      6.93000E-04
  387.00      6.93040E-04
  389.00      5.81470E-04
  391.00      7.08220E-04
  393.00      7.01000E-04
  395.00      6.86850E-04
  397.00      5.59290E-04
  399.00      6.79630E-04
  401.00      6.85520E-04
  403.00      6.53990E-04
  405.00      6.78790E-04
  407.00      6.51570E-04
  409.00      6.05350E-04
  411.00      5.50150E-04
  413.00      6.40870E-04
  415.00      6.42820E-04
  417.00      6.47350E-04
  419.00      6.42620E-04
  421.00      6.40350E-04
  423.00      6.34850E-04
  425.00      6.21080E-04
  427.00      6.11330E-04
  429.00      6.07090E-04
  431.00      5.92210E-04
  433.00      5.44640E-04
  435.00      5.08150E-04
  437.00      5.78950E-04
  439.00      5.75750E-04
  441.00      5.80520E-04
  443.00      5.82400E-04
  445.00      5.76210E-04
  447.00      5.50780E-04
  449.00      5.68280E-04
  451.00      5.65810E-04
  453.00      5.63510E-04
  455.00      5.57820E-04
  457.00      5.55460E-04
  459.00      5.49600E-04
  461.00      5.41460E-04
  463.00      5.34740E-04
  465.00      5.17010E-04
  467.00      5.29500E-04
  469.00      5.25760E-04
  471.00      5.14060E-04
  473.00      5.22720E-04
  475.00      5.18150E-04
  477.00      5.19550E-04
  479.00      5.14830E-04
  481.00      5.07680E-04
  483.00      4.99310E-04
  485.00      4.64390E-04
  487.00      4.21710E-04
  489.00      4.88170E-04
  491.00      4.88740E-04
  493.00      4.75180E-04
  495.00      4.81740E-04
  497.00      4.82880E-04
  499.00      4.78930E-04
  501.00      4.63550E-04
  503.00      4.70350E-04
  505.00      4.65230E-04
  507.00      4.65970E-04
  509.00      4.61720E-04
  511.00      4.57910E-04
  513.00      4.52840E-04
  515.00      4.50230E-04
  517.00      4.48360E-04
  519.00      4.46200E-04
  521.00      4.43270E-04
  523.00      4.40220E-04
  525.00      4.36690E-04
  527.00      4.33250E-04
  529.00      4.31390E-04
  531.00      4.28370E-04
  533.00      4.25670E-04
  535.00      4.22560E-04
  537.00      4.20070E-04
  539.00      4.16880E-04
  541.00      4.12960E-04
  543.00      4.11860E-04
  545.00      4.08910E-04
  547.00      4.06200E-04
  549.00      4.03540E-04
  551.00      4.01360E-04
  553.00      3.98160E-04
  555.00      3.96290E-04
  557.00      3.93610E-04
  559.00      3.90890E-04
  561.00      3.88690E-04
  563.00      3.86320E-04
  565.00      3.83230E-04
  567.00      3.79520E-04
  569.00      3.74320E-04
  571.00      3.73600E-04
  573.00      3.71910E-04
  575.00      3.68520E-04
  577.00      3.67820E-04
  579.00      3.65250E-04
  581.00      3.62940E-04
  583.00      3.59810E-04
  585.00      3.58440E-04
  587.00      3.45700E-04
  589.00      3.51540E-04
  591.00      3.51360E-04
  593.00      3.49180E-04
  595.00      3.47150E-04
  597.00      3.46670E-04
  599.00      3.43700E-04
  601.00      3.42680E-04
  603.00      3.40110E-04
  605.00      3.38470E-04
  607.00      3.36920E-04
  609.00      3.34990E-04
  611.00      3.32940E-04
  613.00      3.31140E-04
  615.00      3.27980E-04
  617.00      3.26480E-04
  619.00      3.25150E-04
  621.00      3.23520E-04
  623.00      3.21710E-04
  625.00      3.19290E-04
  627.00      3.17730E-04
  629.00      3.16130E-04
  631.00      3.14070E-04
  633.00      3.12550E-04
  635.00      3.10380E-04
  637.00      3.09090E-04
  639.00      3.07200E-04
  641.00      3.05490E-04
  643.00      3.03860E-04
  645.00      3.02030E-04
  647.00      2.99280E-04
  649.00      2.97980E-04
  651.00      2.96050E-04
  653.00      2.92950E-04
  655.00      2.80720E-04
  657.00      2.51170E-04
  659.00      2.85240E-04
  661.00      2.87550E-04
  663.00      2.87050E-04
  665.00      2.85480E-04
  667.00      2.80690E-04
  669.00      2.79340E-04
  671.00      2.80860E-04
  673.00      2.78770E-04
  675.00      2.78040E-04
  677.00      2.76710E-04
  679.00      2.73580E-04
  681.00      2.73470E-04
  683.00      2.71940E-04
  685.00      2.70770E-04
  687.00      2.69250E-04
  689.00      2.67430E-04
  691.00      2.65660E-04
  693.00      2.65160E-04
  695.00      2.63770E-04
  697.00      2.62400E-04
  699.00      2.60980E-04
  701.00      2.59580E-04
  703.00      2.57980E-04
  705.00      2.56790E-04
  707.00      2.51550E-04
  709.00      2.54260E-04
  711.00      2.52200E-04
  713.00      2.51010E-04
  715.00      2.50380E-04
  717.00      2.49040E-04
  719.00      2.47870E-04
  721.00      2.46620E-04
  723.00      2.42640E-04
  725.00      2.43650E-04
  727.00      2.42880E-04
  729.00      2.39770E-04
  731.00      2.40380E-04
  733.00      2.39140E-04
  735.00      2.38010E-04
  737.00      2.36870E-04
  739.00      2.35690E-04
  741.00      2.34520E-04
  743.00      2.33350E-04
  745.00      2.32180E-04
  747.00      2.30180E-04
  749.00      2.29600E-04
  751.00      2.28710E-04
  753.00      2.27490E-04
  755.00      2.26590E-04
  757.00      2.25470E-04
  759.00      2.24260E-04
  761.00      2.22890E-04
  763.00      2.22130E-04
  765.00      2.21090E-04
  767.00      2.20080E-04
  769.00      2.18890E-04
  771.00      2.17850E-04
  773.00      2.16660E-04
  775.00      2.15910E-04
  777.00      2.14730E-04
  779.00      2.13890E-04
  781.00      2.12800E-04
  783.00      2.11880E-04
  785.00      2.10990E-04
  787.00      2.09610E-04
  789.00      2.08410E-04
  791.00      2.07830E-04
  793.00      2.06810E-04
  795.00      2.06000E-04
  797.00      2.04990E-04
  799.00      2.04070E-04
  801.00      2.03110E-04
  803.00      2.02130E-04
  805.00      2.01260E-04
  807.00      2.00310E-04
  809.00      1.99220E-04
  811.00      1.97180E-04
  813.00      1.97590E-04
  815.00      1.96580E-04
  817.00      1.95860E-04
  819.00      1.93960E-04
  821.00      1.92920E-04
  823.00      1.91720E-04
  825.00      1.91700E-04
  827.00      1.89390E-04
  829.00      1.89890E-04
  831.00      1.89280E-04
  833.00      1.88310E-04
  835.00      1.86790E-04
  837.00      1.86400E-04
  839.00      1.86000E-04
  841.00      1.85030E-04
  843.00      1.84320E-04
  845.00      1.82480E-04
  847.00      1.82740E-04
  849.00      1.81610E-04
  851.00      1.80660E-04
  853.00      1.79910E-04
  855.00      1.79100E-04
  857.00      1.78900E-04
  859.00      1.75720E-04
  861.00      1.76360E-04
  863.00      1.77210E-04
  865.00      1.74400E-04
  867.00      1.71400E-04
  869.00      1.74760E-04
  871.00      1.75150E-04
  873.00      1.71690E-04
  875.00      1.64740E-04
  877.00      1.68770E-04
  879.00      1.72620E-04
  881.00      1.72870E-04
  883.00      1.70810E-04
  885.00      1.62920E-04
  887.00      1.56710E-04
  889.00      1.67050E-04
  891.00      1.69430E-04
  893.00      1.69400E-04
  895.00      1.69000E-04
  897.00      1.67620E-04
  899.00      1.62990E-04
  901.00      1.49920E-04
  903.00      1.54760E-04
  905.00      1.63130E-04
  907.00      1.63050E-04
  909.00      1.64060E-04
  911.00      1.64160E-04
  913.00      1.63560E-04
  915.00      1.62790E-04
  917.00      1.61380E-04
  919.00      1.59670E-04
  921.00      1.52610E-04
  923.00      1.38610E-04
  925.00      1.50950E-04
  927.00      1.56630E-04
  929.00      1.57610E-04
  931.00      1.56880E-04
  933.00      1.56730E-04
  935.00      1.56290E-04
  937.00      1.56000E-04
  939.00      1.55440E-04
  941.00      1.54700E-04
  943.00      1.54110E-04
  945.00      1.53270E-04
  947.00      1.51680E-04
  949.00      1.51300E-04
  951.00      1.48210E-04
  953.00      1.41340E-04
  955.00      1.28710E-04
  957.00      1.42980E-04
  959.00      1.47380E-04
  961.00      1.47540E-04
  963.00      1.46870E-04
  965.00      1.47630E-04
  967.00      1.47130E-04
  969.00      1.46420E-04
  971.00      1.44500E-04
  973.00      1.45250E-04
  975.00      1.44820E-04
  977.00      1.44300E-04
  979.00      1.43700E-04
  981.00      1.43030E-04
  983.00      1.42620E-04
  985.00      1.41980E-04
  987.00      1.41380E-04
  989.00      1.40620E-04
  991.00      1.39440E-04
  993.00      1.39860E-04
  995.00      1.39210E-04
  997.00      1.38310E-04
  999.00      1.37510E-04
  1002.5      1.30150E-04
  1007.5      1.27100E-04
  1012.5      1.33540E-04
  1017.5      1.33580E-04
  1022.5      1.32270E-04
  1027.5      1.31120E-04
  1032.5      1.29360E-04
  1037.5      1.28750E-04
  1042.5      1.27580E-04
  1047.5      1.26420E-04
  1052.5      1.25240E-04
  1057.5      1.24150E-04
  1062.5      1.23030E-04
  1067.5      1.21730E-04
  1072.5      1.20860E-04
  1077.5      1.19780E-04
  1082.5      1.17470E-04
  1087.5      1.16880E-04
  1092.5      1.06300E-04
  1097.5      1.11850E-04
  1102.5      1.13720E-04
  1107.5      1.13510E-04
  1112.5      1.12680E-04
  1117.5      1.11740E-04
  1122.5      1.10750E-04
  1127.5      1.09840E-04
  1132.5      1.08780E-04
  1137.5      1.07980E-04
  1142.5      1.07040E-04
  1147.5      1.06210E-04
  1152.5      1.05350E-04
  1157.5      1.04410E-04
  1162.5      1.03540E-04
  1167.5      1.02630E-04
  1172.5      1.01940E-04
  1177.5      1.01100E-04
  1182.5      1.00270E-04
  1187.5      9.94810E-05
  1192.5      9.86820E-05
  1197.5      9.66420E-05
  1202.5      9.71160E-05
  1207.5      9.63500E-05
  1212.5      9.55750E-05
  1217.5      9.48340E-05
  1222.5      9.40910E-05
  1227.5      9.33630E-05
  1232.5      9.26220E-05
  1237.5      9.19070E-05
  1242.5      9.12130E-05
  1247.5      9.04670E-05
  1252.5      8.95650E-05
  1257.5      8.90840E-05
  1262.5      8.84120E-05
  1267.5      8.77820E-05
  1272.5      8.69120E-05
  1277.5      8.44190E-05
  1282.5      7.80470E-05
  1287.5      8.41700E-05
  1292.5      8.43880E-05
  1297.5      8.32360E-05
  1302.5      8.32380E-05
  1307.5      8.26970E-05
  1312.5      8.20940E-05
  1317.5      8.14930E-05
  1322.5      8.09020E-05
  1327.5      8.03160E-05
  1332.5      7.97100E-05
  1337.5      7.91020E-05
  1342.5      7.85000E-05
  1347.5      7.80180E-05
  1352.5      7.74170E-05
  1357.5      7.69150E-05
  1362.5      7.62740E-05
  1367.5      7.58330E-05
  1372.5      7.52380E-05
  1377.5      7.47910E-05
  1382.5      7.42700E-05
  1387.5      7.37460E-05
  1392.5      7.31710E-05
  1397.5      7.27160E-05
