 Castelli and Kurucz 2004-2012 Atmosphere
 T     45000.     G    5.00000 [+0.2] N(He)/Ntot=0.07828 VTURB=2.0  L/H=1.25 NO
 Wavelength  Eddington Hnu
   (nm)    (ergs/s/cm2/Hz/sr)
  9.0900      1.99790E-21
  9.3500      6.19250E-21
  9.6100      1.78000E-20
  9.7700      3.39940E-20
  9.9600      7.01780E-20
  10.200      1.68940E-19
  10.380      3.18440E-19
  10.560      5.87760E-19
  10.770      1.17160E-18
  11.040      2.73910E-18
  11.400      7.99380E-18
  11.780      2.30810E-17
  12.130      5.81480E-17
  12.480      1.38840E-16
  12.710      2.39980E-16
  12.840      3.24590E-16
  13.050      5.19430E-16
  13.240      7.85820E-16
  13.390      1.08470E-15
  13.660      1.88290E-15
  13.980      3.59090E-15
  14.330      6.94060E-15
  14.720      1.36180E-14
  15.100      2.70970E-14
  15.520      5.38770E-14
  15.880      9.48610E-14
  16.200      1.59340E-13
  16.600      2.87150E-13
  17.030      5.10540E-13
  17.340      7.64530E-13
  17.680      1.20100E-12
  18.020      1.83440E-12
  18.170      2.14970E-12
  18.610      3.69260E-12
  19.100      6.36730E-12
  19.390      8.87320E-12
  19.840      1.41560E-11
  20.180      1.94920E-11
  20.500      2.71040E-11
  21.050      4.53260E-11
  21.620      7.44390E-11
  21.980      1.02460E-10
  22.300      1.32130E-10
  22.680      1.80630E-10
  23.000      3.56610E-08
  23.400      1.32930E-07
  24.000      1.95380E-07
  24.650      3.24130E-07
  25.240      7.62340E-07
  25.680      1.73550E-06
  26.000      1.99550E-06
  26.400      1.55780E-05
  26.850      1.97630E-05
  27.350      2.57580E-05
  27.850      1.57080E-05
  28.400      3.76340E-05
  29.000      6.32880E-05
  29.600      4.80470E-05
  30.100      4.56320E-05
  30.800      1.10460E-04
  31.800      2.98140E-05
  32.800      5.02050E-05
  33.800      3.73950E-05
  34.800      4.29300E-05
  35.700      1.26240E-04
  36.600      2.87490E-04
  37.500      4.03410E-04
  38.500      3.68830E-04
  39.500      6.54620E-04
  40.500      1.07220E-03
  41.400      1.03180E-03
  42.200      9.79860E-04
  43.000      9.36070E-04
  44.100      1.17870E-03
  45.100      1.26700E-03
  46.000      1.05390E-03
  47.000      1.21260E-03
  48.000      1.44240E-03
  49.000      1.11130E-03
  50.000      1.64940E-03
  50.600      1.29530E-03
  51.200      1.89470E-03
  52.000      1.78920E-03
  53.000      1.67910E-03
  54.000      1.43830E-03
  55.000      1.27690E-03
  56.000      1.76630E-03
  57.000      2.07750E-03
  58.000      2.07620E-03
  59.000      2.13360E-03
  60.000      1.81050E-03
  61.000      1.67730E-03
  62.000      2.20620E-03
  63.000      2.05710E-03
  64.000      2.36660E-03
  65.000      2.24230E-03
  65.800      1.99240E-03
  66.500      2.37740E-03
  67.500      2.50700E-03
  68.500      2.22030E-03
  69.500      2.52810E-03
  70.500      2.20470E-03
  71.600      2.60500E-03
  72.600      2.68170E-03
  73.500      2.70400E-03
  74.500      2.59520E-03
  75.500      2.58910E-03
  76.500      2.37980E-03
  77.500      2.61400E-03
  78.500      2.36430E-03
  79.500      2.62300E-03
  80.500      2.68680E-03
  81.500      2.70840E-03
  82.500      2.75260E-03
  83.500      2.45690E-03
  84.500      2.72720E-03
  85.500      2.63180E-03
  86.500      2.77960E-03
  87.500      2.80570E-03
  88.500      2.77550E-03
  89.500      2.77880E-03
  90.500      2.72860E-03
  91.500      2.04800E-03
  92.500      3.24670E-03
  93.500      4.33300E-03
  94.500      5.08040E-03
  95.500      5.83370E-03
  96.500      6.44240E-03
  97.500      4.80830E-03
  98.500      5.91410E-03
  99.500      5.27710E-03
  100.50      5.42210E-03
  101.50      5.65550E-03
  102.50      5.07000E-03
  103.50      6.01980E-03
  104.50      6.33040E-03
  105.50      6.24560E-03
  106.50      5.90890E-03
  107.50      6.13480E-03
  108.50      5.62580E-03
  109.50      6.02010E-03
  110.50      5.91870E-03
  111.50      5.92890E-03
  112.50      5.72250E-03
  113.50      5.93690E-03
  114.50      5.98490E-03
  115.50      5.68790E-03
  116.50      5.38030E-03
  117.50      4.84430E-03
  118.50      5.34350E-03
  119.50      5.11590E-03
  120.50      5.09530E-03
  121.50      4.27230E-03
  122.50      4.93580E-03
  123.50      4.91880E-03
  124.50      4.83950E-03
  125.50      4.99920E-03
  126.50      5.08100E-03
  127.50      5.15710E-03
  128.50      5.15740E-03
  129.50      5.17080E-03
  130.50      5.04120E-03
  131.50      5.07030E-03
  132.50      5.03200E-03
  133.50      4.99840E-03
  134.50      4.95950E-03
  135.50      4.81780E-03
  136.50      4.67330E-03
  137.50      4.52920E-03
  138.50      4.58740E-03
  139.50      4.46150E-03
  140.50      4.29000E-03
  141.50      4.71080E-03
  142.50      4.39460E-03
  143.50      4.61770E-03
  144.20      4.42470E-03
  144.70      4.45260E-03
  145.50      4.35560E-03
  146.50      4.37530E-03
  147.50      4.38330E-03
  148.50      4.45560E-03
  149.50      4.36850E-03
  150.50      4.36430E-03
  151.20      4.36910E-03
  151.70      4.29110E-03
  152.50      4.30910E-03
  153.50      4.02300E-03
  154.50      3.41640E-03
  155.50      3.53000E-03
  156.50      3.88940E-03
  157.50      4.00200E-03
  158.50      3.95450E-03
  159.50      4.01490E-03
  160.50      3.86210E-03
  161.50      3.78220E-03
  162.50      3.85170E-03
  163.50      3.84880E-03
  164.50      3.72970E-03
  165.50      3.88760E-03
  166.50      3.85410E-03
  167.20      3.68500E-03
  167.70      3.98020E-03
  168.50      3.93480E-03
  169.50      3.92140E-03
  170.50      3.83870E-03
  171.50      3.70450E-03
  172.50      3.68550E-03
  173.50      3.80970E-03
  174.50      3.79360E-03
  175.50      3.74700E-03
  176.50      3.71570E-03
  177.50      3.66470E-03
  178.50      3.70290E-03
  179.50      3.62800E-03
  180.50      3.60790E-03
  181.50      3.57330E-03
  182.50      3.54040E-03
  183.50      3.54080E-03
  184.50      3.53740E-03
  185.50      3.52290E-03
  186.50      3.51660E-03
  187.50      3.45570E-03
  188.50      3.42410E-03
  189.50      3.46730E-03
  190.50      3.44650E-03
  191.50      3.42300E-03
  192.50      3.29590E-03
  193.50      3.39250E-03
  194.50      3.37850E-03
  195.50      3.28880E-03
  196.70      3.31210E-03
  197.60      3.28520E-03
  198.40      3.29300E-03
  199.50      3.26010E-03
  200.50      3.25650E-03
  201.50      3.23250E-03
  202.50      3.21310E-03
  203.50      3.17540E-03
  204.50      3.13850E-03
  205.50      2.33090E-03
  206.50      2.24130E-03
  207.40      2.29360E-03
  207.80      2.34740E-03
  208.50      2.50220E-03
  209.50      2.80740E-03
  210.50      2.97540E-03
  211.50      3.01710E-03
  212.50      2.97650E-03
  213.50      2.97770E-03
  214.50      2.95520E-03
  215.50      2.97090E-03
  216.50      2.81460E-03
  217.50      2.96000E-03
  218.50      2.82710E-03
  219.50      2.93660E-03
  220.50      2.91710E-03
  221.50      2.76590E-03
  222.50      2.87990E-03
  223.50      2.86640E-03
  224.50      2.83670E-03
  225.50      2.70850E-03
  226.50      2.80300E-03
  227.50      2.80160E-03
  228.50      2.75290E-03
  229.50      2.69290E-03
  230.50      2.62030E-03
  231.50      2.68590E-03
  232.50      2.69940E-03
  233.50      2.68440E-03
  234.50      2.65110E-03
  235.50      2.61930E-03
  236.50      2.59790E-03
  237.50      2.56200E-03
  238.50      2.42730E-03
  239.50      2.51490E-03
  240.50      2.50380E-03
  241.50      2.50030E-03
  242.50      2.51380E-03
  243.50      2.48840E-03
  244.50      2.47680E-03
  245.50      2.44570E-03
  246.50      2.44300E-03
  247.50      2.44500E-03
  248.50      2.40790E-03
  249.50      2.19200E-03
  250.50      2.36980E-03
  251.30      2.18930E-03
  251.80      2.31200E-03
  252.50      2.33060E-03
  253.50      2.34720E-03
  254.50      2.33970E-03
  255.50      2.32160E-03
  256.50      2.31040E-03
  257.50      2.29240E-03
  258.50      2.28050E-03
  259.50      2.22590E-03
  260.50      2.25550E-03
  261.50      2.21790E-03
  262.50      2.23070E-03
  263.50      2.22060E-03
  264.50      2.19590E-03
  265.50      2.19240E-03
  266.50      2.17620E-03
  267.50      2.13640E-03
  268.50      2.14460E-03
  269.50      2.12600E-03
  270.50      2.13340E-03
  271.50      2.11470E-03
  272.50      2.10100E-03
  273.50      2.01550E-03
  274.50      2.08340E-03
  275.50      2.06620E-03
  276.50      2.05590E-03
  277.50      2.04210E-03
  278.50      2.01710E-03
  279.50      1.99830E-03
  280.50      2.00230E-03
  281.50      1.99330E-03
  282.50      1.97680E-03
  283.50      1.97310E-03
  284.50      1.96580E-03
  285.50      1.95310E-03
  286.50      1.92960E-03
  287.50      1.91900E-03
  288.50      1.91750E-03
  289.50      1.90390E-03
  291.00      1.88860E-03
  293.00      1.87370E-03
  295.00      1.85220E-03
  297.00      1.82670E-03
  299.00      1.79770E-03
  301.00      1.77970E-03
  303.00      1.74950E-03
  305.00      1.74020E-03
  307.00      1.71580E-03
  309.00      1.70930E-03
  311.00      1.69320E-03
  313.00      1.67380E-03
  315.00      1.66250E-03
  317.00      1.64250E-03
  319.00      1.62860E-03
  321.00      1.57760E-03
  323.00      1.59680E-03
  325.00      1.58210E-03
  327.00      1.55010E-03
  329.00      1.54560E-03
  331.00      1.52850E-03
  333.00      1.51250E-03
  335.00      1.48690E-03
  337.00      1.48030E-03
  339.00      1.46590E-03
  341.00      1.45030E-03
  343.00      1.44380E-03
  345.00      1.41970E-03
  347.00      1.41420E-03
  349.00      1.40210E-03
  351.00      1.39170E-03
  353.00      1.37480E-03
  355.00      1.36240E-03
  357.00      1.35040E-03
  359.00      1.33790E-03
  361.00      1.32260E-03
  363.00      1.31000E-03
  364.00      1.27790E-03
  365.00      1.14930E-03
  367.00      1.14050E-03
  369.00      1.13250E-03
  371.00      1.12630E-03
  373.00      1.13890E-03
  375.00      1.15360E-03
  377.00      1.16760E-03
  379.00      1.19660E-03
  381.00      1.22070E-03
  383.00      1.16440E-03
  385.00      1.22150E-03
  387.00      1.22120E-03
  389.00      1.11630E-03
  391.00      1.21340E-03
  393.00      1.19500E-03
  395.00      1.18720E-03
  397.00      1.06970E-03
  399.00      1.17170E-03
  401.00      1.16590E-03
  403.00      1.13430E-03
  405.00      1.15030E-03
  407.00      1.13570E-03
  409.00      1.08870E-03
  411.00      1.02700E-03
  413.00      1.10540E-03
  415.00      1.10000E-03
  417.00      1.09390E-03
  419.00      1.07810E-03
  421.00      1.05510E-03
  423.00      1.06900E-03
  425.00      1.05930E-03
  427.00      1.05070E-03
  429.00      1.04180E-03
  431.00      1.02870E-03
  433.00      9.81010E-04
  435.00      9.40820E-04
  437.00      1.00210E-03
  439.00      9.90820E-04
  441.00      9.83830E-04
  443.00      9.81120E-04
  445.00      9.71690E-04
  447.00      9.59040E-04
  449.00      9.58530E-04
  451.00      9.45810E-04
  453.00      9.37240E-04
  455.00      9.11210E-04
  457.00      9.26800E-04
  459.00      9.19210E-04
  461.00      9.14000E-04
  463.00      9.01160E-04
  465.00      8.77780E-04
  467.00      8.89630E-04
  469.00      8.52740E-04
  471.00      8.79720E-04
  473.00      8.76460E-04
  475.00      8.70220E-04
  477.00      8.63420E-04
  479.00      8.55930E-04
  481.00      8.50050E-04
  483.00      8.41740E-04
  485.00      8.12350E-04
  487.00      7.64490E-04
  489.00      8.21470E-04
  491.00      8.18000E-04
  493.00      8.09960E-04
  495.00      8.07070E-04
  497.00      8.01610E-04
  499.00      7.96160E-04
  501.00      7.87210E-04
  503.00      7.83520E-04
  505.00      7.77870E-04
  507.00      7.73190E-04
  509.00      7.67930E-04
  511.00      7.62490E-04
  513.00      7.56720E-04
  515.00      7.51470E-04
  517.00      7.46520E-04
  519.00      7.41260E-04
  521.00      7.35840E-04
  523.00      7.31160E-04
  525.00      7.24790E-04
  527.00      7.19440E-04
  529.00      7.16110E-04
  531.00      7.11150E-04
  533.00      7.06170E-04
  535.00      7.01590E-04
  537.00      6.96750E-04
  539.00      6.91950E-04
  541.00      6.70020E-04
  543.00      6.82400E-04
  545.00      6.78280E-04
  547.00      6.73530E-04
  549.00      6.69250E-04
  551.00      6.63980E-04
  553.00      6.60440E-04
  555.00      6.56140E-04
  557.00      6.51230E-04
  559.00      6.45200E-04
  561.00      6.43360E-04
  563.00      6.39140E-04
  565.00      6.34980E-04
  567.00      6.30860E-04
  569.00      6.16070E-04
  571.00      5.74910E-04
  573.00      5.71530E-04
  575.00      5.68060E-04
  577.00      5.64990E-04
  579.00      5.61920E-04
  581.00      5.55640E-04
  583.00      5.56790E-04
  585.00      5.55910E-04
  587.00      5.51190E-04
  589.00      5.54590E-04
  591.00      5.54680E-04
  593.00      5.55140E-04
  595.00      5.56210E-04
  597.00      5.57500E-04
  599.00      5.59430E-04
  601.00      5.59480E-04
  603.00      5.59390E-04
  605.00      5.58870E-04
  607.00      5.55680E-04
  609.00      5.52990E-04
  611.00      5.49540E-04
  613.00      5.46600E-04
  615.00      5.43990E-04
  617.00      5.39330E-04
  619.00      5.37820E-04
  621.00      5.35030E-04
  623.00      5.29520E-04
  625.00      5.27980E-04
  627.00      5.25660E-04
  629.00      5.22480E-04
  631.00      5.16210E-04
  633.00      5.16050E-04
  635.00      5.13440E-04
  637.00      5.10560E-04
  639.00      5.06830E-04
  641.00      5.00340E-04
  643.00      5.01590E-04
  645.00      4.98500E-04
  647.00      4.95560E-04
  649.00      4.93070E-04
  651.00      4.89140E-04
  653.00      4.81160E-04
  655.00      4.75650E-04
  657.00      4.42850E-04
  659.00      4.77290E-04
  661.00      4.76670E-04
  663.00      4.74040E-04
  665.00      4.71380E-04
  667.00      4.65530E-04
  669.00      4.58100E-04
  671.00      4.62630E-04
  673.00      4.60560E-04
  675.00      4.57980E-04
  677.00      4.55810E-04
  679.00      4.53480E-04
  681.00      4.50990E-04
  683.00      4.48530E-04
  685.00      4.46020E-04
  687.00      4.43330E-04
  689.00      4.33420E-04
  691.00      4.38180E-04
  693.00      4.36540E-04
  695.00      4.34190E-04
  697.00      4.31870E-04
  699.00      4.29530E-04
  701.00      4.27010E-04
  703.00      4.24270E-04
  705.00      4.22330E-04
  707.00      4.18600E-04
  709.00      4.18310E-04
  711.00      4.15890E-04
  713.00      4.13710E-04
  715.00      4.11770E-04
  717.00      4.04200E-04
  719.00      4.03960E-04
  721.00      4.05370E-04
  723.00      4.03250E-04
  725.00      4.01200E-04
  727.00      3.99130E-04
  729.00      3.96570E-04
  731.00      3.94700E-04
  733.00      3.93030E-04
  735.00      3.91030E-04
  737.00      3.88860E-04
  739.00      3.86860E-04
  741.00      3.84920E-04
  743.00      3.83170E-04
  745.00      3.80790E-04
  747.00      3.79240E-04
  749.00      3.76560E-04
  751.00      3.75320E-04
  753.00      3.73640E-04
  755.00      3.71720E-04
  757.00      3.69690E-04
  759.00      3.60030E-04
  761.00      3.65230E-04
  763.00      3.64340E-04
  765.00      3.62610E-04
  767.00      3.60810E-04
  769.00      3.58490E-04
  771.00      3.57050E-04
  773.00      3.54840E-04
  775.00      3.53630E-04
  777.00      3.52270E-04
  779.00      3.50420E-04
  781.00      3.48850E-04
  783.00      3.47130E-04
  785.00      3.44770E-04
  787.00      3.43580E-04
  789.00      3.42120E-04
  791.00      3.40620E-04
  793.00      3.39030E-04
  795.00      3.37400E-04
  797.00      3.35440E-04
  799.00      3.34230E-04
  801.00      3.32660E-04
  803.00      3.30870E-04
  805.00      3.29570E-04
  807.00      3.28030E-04
  809.00      3.26500E-04
  811.00      3.24980E-04
  813.00      3.23480E-04
  815.00      3.21980E-04
  817.00      3.20140E-04
  819.00      3.17330E-04
  821.00      3.02030E-04
  823.00      2.98240E-04
  825.00      2.98760E-04
  827.00      2.98060E-04
  829.00      2.96860E-04
  831.00      2.95640E-04
  833.00      2.93920E-04
  835.00      2.92830E-04
  837.00      2.91820E-04
  839.00      2.90710E-04
  841.00      2.89610E-04
  843.00      2.88530E-04
  845.00      2.87370E-04
  847.00      2.86460E-04
  849.00      2.85610E-04
  851.00      2.84390E-04
  853.00      2.83940E-04
  855.00      2.82930E-04
  857.00      2.82370E-04
  859.00      2.81260E-04
  861.00      2.80670E-04
  863.00      2.80660E-04
  865.00      2.79540E-04
  867.00      2.77370E-04
  869.00      2.78830E-04
  871.00      2.78700E-04
  873.00      2.77460E-04
  875.00      2.73270E-04
  877.00      2.75660E-04
  879.00      2.76890E-04
  881.00      2.76730E-04
  883.00      2.75900E-04
  885.00      2.71280E-04
  887.00      2.65860E-04
  889.00      2.72140E-04
  891.00      2.72880E-04
  893.00      2.72170E-04
  895.00      2.71390E-04
  897.00      2.70120E-04
  899.00      2.67010E-04
  901.00      2.56310E-04
  903.00      2.59540E-04
  905.00      2.64690E-04
  907.00      2.64510E-04
  909.00      2.63860E-04
  911.00      2.62670E-04
  913.00      2.62100E-04
  915.00      2.61270E-04
  917.00      2.59510E-04
  919.00      2.57780E-04
  921.00      2.53090E-04
  923.00      2.39770E-04
  925.00      2.50200E-04
  927.00      2.53370E-04
  929.00      2.53200E-04
  931.00      2.52470E-04
  933.00      2.50950E-04
  935.00      2.43340E-04
  937.00      2.48220E-04
  939.00      2.48320E-04
  941.00      2.47380E-04
  943.00      2.46520E-04
  945.00      2.45630E-04
  947.00      2.44470E-04
  949.00      2.43170E-04
  951.00      2.40950E-04
  953.00      2.35600E-04
  955.00      2.22280E-04
  957.00      2.35310E-04
  959.00      2.37680E-04
  961.00      2.37540E-04
  963.00      2.36680E-04
  965.00      2.36020E-04
  967.00      2.35100E-04
  969.00      2.34170E-04
  971.00      2.31500E-04
  973.00      2.32050E-04
  975.00      2.30880E-04
  977.00      2.28910E-04
  979.00      2.29570E-04
  981.00      2.28710E-04
  983.00      2.27700E-04
  985.00      2.26940E-04
  987.00      2.26060E-04
  989.00      2.25170E-04
  991.00      2.24240E-04
  993.00      2.23450E-04
  995.00      2.22590E-04
  997.00      2.21730E-04
  999.00      2.20580E-04
  1002.5      2.14250E-04
  1007.5      2.10080E-04
  1012.5      2.10660E-04
  1017.5      2.13220E-04
  1022.5      2.11220E-04
  1027.5      2.09150E-04
  1032.5      2.07060E-04
  1037.5      2.05380E-04
  1042.5      2.02200E-04
  1047.5      2.01660E-04
  1052.5      1.99810E-04
  1057.5      1.98000E-04
  1062.5      1.96220E-04
  1067.5      1.94430E-04
  1072.5      1.92710E-04
  1077.5      1.90990E-04
  1082.5      1.88680E-04
  1087.5      1.87260E-04
  1092.5      1.77230E-04
  1097.5      1.81850E-04
  1102.5      1.82600E-04
  1107.5      1.81150E-04
  1112.5      1.79580E-04
  1117.5      1.78160E-04
  1122.5      1.76610E-04
  1127.5      1.75090E-04
  1132.5      1.73580E-04
  1137.5      1.72140E-04
  1142.5      1.70700E-04
  1147.5      1.69270E-04
  1152.5      1.67860E-04
  1157.5      1.66380E-04
  1162.5      1.62670E-04
  1167.5      1.61960E-04
  1172.5      1.62330E-04
  1177.5      1.61030E-04
  1182.5      1.59660E-04
  1187.5      1.58400E-04
  1192.5      1.57120E-04
  1197.5      1.55460E-04
  1202.5      1.54610E-04
  1207.5      1.53350E-04
  1212.5      1.52090E-04
  1217.5      1.50940E-04
  1222.5      1.49740E-04
  1227.5      1.48570E-04
  1232.5      1.47390E-04
  1237.5      1.46250E-04
  1242.5      1.45110E-04
  1247.5      1.43980E-04
  1252.5      1.42830E-04
  1257.5      1.41750E-04
  1262.5      1.40680E-04
  1267.5      1.39600E-04
  1272.5      1.38530E-04
  1277.5      1.36340E-04
  1282.5      1.29290E-04
  1287.5      1.34910E-04
  1292.5      1.34400E-04
  1297.5      1.33310E-04
  1302.5      1.32400E-04
  1307.5      1.31420E-04
  1312.5      1.30450E-04
  1317.5      1.29490E-04
  1322.5      1.28540E-04
  1327.5      1.27600E-04
  1332.5      1.26670E-04
  1337.5      1.25750E-04
  1342.5      1.24830E-04
  1347.5      1.23940E-04
  1352.5      1.23050E-04
  1357.5      1.22170E-04
  1362.5      1.21290E-04
  1367.5      1.20430E-04
  1372.5      1.19570E-04
  1377.5      1.18730E-04
  1382.5      1.17900E-04
  1387.5      1.17070E-04
  1392.5      1.16250E-04
  1397.5      1.15440E-04
