 Castelli and Kurucz 2004-2012 Atmosphere
 T     47000.     G    4.50000 [+0.2] N(He)/Ntot=0.07828 VTURB=2.0  L/H=1.25 NO
 Wavelength  Eddington Hnu
   (nm)    (ergs/s/cm2/Hz/sr)
  9.0900      3.62540E-20
  9.3500      1.07150E-19
  9.6100      2.92470E-19
  9.7700      5.46410E-19
  9.9600      1.09480E-18
  10.200      2.54510E-18
  10.380      4.68020E-18
  10.560      8.43990E-18
  10.770      1.64020E-17
  11.040      3.72020E-17
  11.400      1.04690E-16
  11.780      2.90350E-16
  12.130      7.13750E-16
  12.480      1.65280E-15
  12.710      2.81740E-15
  12.840      3.95930E-15
  13.050      6.24260E-15
  13.240      9.32380E-15
  13.390      1.27730E-14
  13.660      2.18300E-14
  13.980      4.07920E-14
  14.330      7.66070E-14
  14.720      1.43090E-13
  15.100      2.81880E-13
  15.520      5.46210E-13
  15.880      9.55080E-13
  16.200      2.00400E-12
  16.600      3.53700E-12
  17.030      5.93870E-12
  17.340      8.58260E-12
  17.680      1.33270E-11
  18.020      2.02350E-11
  18.170      2.25430E-11
  18.610      3.97350E-11
  19.100      6.51460E-11
  19.390      9.49270E-11
  19.840      1.49340E-10
  20.180      1.85230E-10
  20.500      2.68130E-10
  21.050      4.26350E-10
  21.620      6.68300E-10
  21.980      9.03890E-10
  22.300      1.10170E-09
  22.680      1.44490E-09
  23.000      1.04650E-07
  23.400      4.29430E-07
  24.000      6.84420E-07
  24.650      1.85330E-06
  25.240      8.46150E-06
  25.680      2.49640E-05
  26.000      2.05780E-05
  26.400      8.30400E-05
  26.850      9.63490E-05
  27.350      1.19730E-04
  27.850      7.80010E-05
  28.400      1.55950E-04
  29.000      2.58100E-04
  29.600      2.18420E-04
  30.100      1.65530E-04
  30.800      2.02690E-04
  31.800      5.16460E-05
  32.800      7.27350E-05
  33.800      5.20560E-05
  34.800      5.88000E-05
  35.700      1.63670E-04
  36.600      3.96820E-04
  37.500      5.39860E-04
  38.500      4.35090E-04
  39.500      8.33220E-04
  40.500      1.43030E-03
  41.400      1.43520E-03
  42.200      1.30360E-03
  43.000      1.28850E-03
  44.100      1.72750E-03
  45.100      1.80660E-03
  46.000      1.51700E-03
  47.000      1.78490E-03
  48.000      2.11950E-03
  49.000      1.75580E-03
  50.000      2.69860E-03
  50.600      2.18140E-03
  51.200      2.72860E-03
  52.000      2.63250E-03
  53.000      2.51350E-03
  54.000      2.02340E-03
  55.000      1.65020E-03
  56.000      2.29480E-03
  57.000      2.91310E-03
  58.000      3.01580E-03
  59.000      3.06720E-03
  60.000      2.64970E-03
  61.000      2.12800E-03
  62.000      2.94110E-03
  63.000      2.54330E-03
  64.000      3.23210E-03
  65.000      3.05550E-03
  65.800      2.73870E-03
  66.500      3.29930E-03
  67.500      3.37680E-03
  68.500      3.03030E-03
  69.500      3.41490E-03
  70.500      3.02670E-03
  71.600      3.39270E-03
  72.600      3.55430E-03
  73.500      3.53670E-03
  74.500      3.39310E-03
  75.500      3.34630E-03
  76.500      2.92410E-03
  77.500      3.39490E-03
  78.500      2.90950E-03
  79.500      3.35110E-03
  80.500      3.51770E-03
  81.500      3.51180E-03
  82.500      3.55600E-03
  83.500      3.23170E-03
  84.500      3.50410E-03
  85.500      3.30940E-03
  86.500      3.54900E-03
  87.500      3.59340E-03
  88.500      3.51720E-03
  89.500      3.48980E-03
  90.500      3.42330E-03
  91.500      2.63000E-03
  92.500      3.90740E-03
  93.500      4.84410E-03
  94.500      5.26360E-03
  95.500      6.05030E-03
  96.500      6.20500E-03
  97.500      5.21020E-03
  98.500      5.81020E-03
  99.500      5.20750E-03
  100.50      5.32840E-03
  101.50      5.47560E-03
  102.50      5.35340E-03
  103.50      5.93410E-03
  104.50      6.13950E-03
  105.50      6.09460E-03
  106.50      5.89350E-03
  107.50      6.11570E-03
  108.50      5.75650E-03
  109.50      5.97830E-03
  110.50      5.97570E-03
  111.50      5.97550E-03
  112.50      5.88360E-03
  113.50      6.02080E-03
  114.50      6.07420E-03
  115.50      5.89370E-03
  116.50      5.59560E-03
  117.50      5.26380E-03
  118.50      5.63170E-03
  119.50      5.33850E-03
  120.50      5.35460E-03
  121.50      4.75740E-03
  122.50      5.22430E-03
  123.50      4.99960E-03
  124.50      4.87400E-03
  125.50      5.14640E-03
  126.50      5.20220E-03
  127.50      5.22610E-03
  128.50      5.20760E-03
  129.50      5.27110E-03
  130.50      5.12400E-03
  131.50      5.09410E-03
  132.50      5.04320E-03
  133.50      5.00360E-03
  134.50      4.96530E-03
  135.50      4.81140E-03
  136.50      4.62570E-03
  137.50      4.44780E-03
  138.50      4.60330E-03
  139.50      4.53270E-03
  140.50      4.33460E-03
  141.50      4.80140E-03
  142.50      4.58030E-03
  143.50      4.75110E-03
  144.20      4.50270E-03
  144.70      4.53890E-03
  145.50      4.46490E-03
  146.50      4.46800E-03
  147.50      4.51360E-03
  148.50      4.56870E-03
  149.50      4.47850E-03
  150.50      4.43230E-03
  151.20      4.43640E-03
  151.70      4.33350E-03
  152.50      4.41140E-03
  153.50      4.19710E-03
  154.50      3.65250E-03
  155.50      3.74730E-03
  156.50      4.11090E-03
  157.50      4.20990E-03
  158.50      4.14030E-03
  159.50      4.20470E-03
  160.50      4.08330E-03
  161.50      4.03410E-03
  162.50      4.08750E-03
  163.50      4.11500E-03
  164.50      3.94440E-03
  165.50      4.09110E-03
  166.50      4.07330E-03
  167.20      3.93370E-03
  167.70      4.14410E-03
  168.50      4.12660E-03
  169.50      4.13960E-03
  170.50      4.02920E-03
  171.50      3.88300E-03
  172.50      3.89240E-03
  173.50      4.02710E-03
  174.50      3.99600E-03
  175.50      3.96210E-03
  176.50      3.92520E-03
  177.50      3.87910E-03
  178.50      3.89250E-03
  179.50      3.82460E-03
  180.50      3.80710E-03
  181.50      3.73990E-03
  182.50      3.73980E-03
  183.50      3.72630E-03
  184.50      3.73370E-03
  185.50      3.70550E-03
  186.50      3.70350E-03
  187.50      3.65700E-03
  188.50      3.62470E-03
  189.50      3.65200E-03
  190.50      3.63090E-03
  191.50      3.61190E-03
  192.50      3.49700E-03
  193.50      3.56700E-03
  194.50      3.54960E-03
  195.50      3.49100E-03
  196.70      3.48730E-03
  197.60      3.44800E-03
  198.40      3.46550E-03
  199.50      3.42750E-03
  200.50      3.42000E-03
  201.50      3.39760E-03
  202.50      3.38030E-03
  203.50      3.33580E-03
  204.50      3.29780E-03
  205.50      2.53520E-03
  206.50      2.46560E-03
  207.40      2.55050E-03
  207.80      2.62790E-03
  208.50      2.84150E-03
  209.50      3.12850E-03
  210.50      3.14640E-03
  211.50      3.16420E-03
  212.50      3.13200E-03
  213.50      3.13180E-03
  214.50      3.10330E-03
  215.50      3.11800E-03
  216.50      2.98210E-03
  217.50      3.09120E-03
  218.50      2.99760E-03
  219.50      3.06390E-03
  220.50      3.04290E-03
  221.50      2.93200E-03
  222.50      3.00890E-03
  223.50      2.99010E-03
  224.50      2.96940E-03
  225.50      2.87460E-03
  226.50      2.92770E-03
  227.50      2.92680E-03
  228.50      2.88230E-03
  229.50      2.83740E-03
  230.50      2.77940E-03
  231.50      2.81450E-03
  232.50      2.82670E-03
  233.50      2.80800E-03
  234.50      2.77370E-03
  235.50      2.74400E-03
  236.50      2.72330E-03
  237.50      2.69540E-03
  238.50      2.58890E-03
  239.50      2.64940E-03
  240.50      2.62230E-03
  241.50      2.61830E-03
  242.50      2.63270E-03
  243.50      2.60520E-03
  244.50      2.59400E-03
  245.50      2.55670E-03
  246.50      2.55370E-03
  247.50      2.56150E-03
  248.50      2.52170E-03
  249.50      2.37290E-03
  250.50      2.50150E-03
  251.30      2.34980E-03
  251.80      2.43980E-03
  252.50      2.44560E-03
  253.50      2.46360E-03
  254.50      2.46070E-03
  255.50      2.44340E-03
  256.50      2.43380E-03
  257.50      2.41120E-03
  258.50      2.39820E-03
  259.50      2.33870E-03
  260.50      2.37630E-03
  261.50      2.33260E-03
  262.50      2.35000E-03
  263.50      2.33780E-03
  264.50      2.31360E-03
  265.50      2.30750E-03
  266.50      2.29510E-03
  267.50      2.25860E-03
  268.50      2.26370E-03
  269.50      2.24180E-03
  270.50      2.24820E-03
  271.50      2.23250E-03
  272.50      2.21860E-03
  273.50      2.14740E-03
  274.50      2.19660E-03
  275.50      2.17650E-03
  276.50      2.16830E-03
  277.50      2.15110E-03
  278.50      2.12310E-03
  279.50      2.11470E-03
  280.50      2.11220E-03
  281.50      2.09940E-03
  282.50      2.08170E-03
  283.50      2.08040E-03
  284.50      2.07080E-03
  285.50      2.05590E-03
  286.50      2.02220E-03
  287.50      2.00400E-03
  288.50      2.01400E-03
  289.50      2.00120E-03
  291.00      1.99210E-03
  293.00      1.97740E-03
  295.00      1.95480E-03
  297.00      1.92990E-03
  299.00      1.90230E-03
  301.00      1.88340E-03
  303.00      1.85270E-03
  305.00      1.84070E-03
  307.00      1.80790E-03
  309.00      1.80670E-03
  311.00      1.78770E-03
  313.00      1.76820E-03
  315.00      1.75630E-03
  317.00      1.73640E-03
  319.00      1.72220E-03
  321.00      1.67450E-03
  323.00      1.68980E-03
  325.00      1.67310E-03
  327.00      1.64150E-03
  329.00      1.63590E-03
  331.00      1.61830E-03
  333.00      1.60140E-03
  335.00      1.57470E-03
  337.00      1.56740E-03
  339.00      1.54810E-03
  341.00      1.53100E-03
  343.00      1.52730E-03
  345.00      1.50350E-03
  347.00      1.49480E-03
  349.00      1.48060E-03
  351.00      1.47200E-03
  353.00      1.45370E-03
  355.00      1.44200E-03
  357.00      1.42720E-03
  359.00      1.41500E-03
  361.00      1.40120E-03
  363.00      1.38550E-03
  364.00      1.35490E-03
  365.00      1.22500E-03
  367.00      1.21530E-03
  369.00      1.20940E-03
  371.00      1.20980E-03
  373.00      1.22500E-03
  375.00      1.24660E-03
  377.00      1.26310E-03
  379.00      1.28300E-03
  381.00      1.29670E-03
  383.00      1.24880E-03
  385.00      1.29240E-03
  387.00      1.29080E-03
  389.00      1.20690E-03
  391.00      1.27400E-03
  393.00      1.25080E-03
  395.00      1.25020E-03
  397.00      1.15880E-03
  399.00      1.23140E-03
  401.00      1.22310E-03
  403.00      1.19450E-03
  405.00      1.20230E-03
  407.00      1.19220E-03
  409.00      1.15840E-03
  411.00      1.10380E-03
  413.00      1.16070E-03
  415.00      1.15330E-03
  417.00      1.14430E-03
  419.00      1.13150E-03
  421.00      1.10950E-03
  423.00      1.11790E-03
  425.00      1.10840E-03
  427.00      1.09960E-03
  429.00      1.09060E-03
  431.00      1.07910E-03
  433.00      1.04460E-03
  435.00      1.00800E-03
  437.00      1.05000E-03
  439.00      1.03980E-03
  441.00      1.02950E-03
  443.00      1.02700E-03
  445.00      1.01720E-03
  447.00      1.00970E-03
  449.00      1.00430E-03
  451.00      9.93460E-04
  453.00      9.85060E-04
  455.00      9.62460E-04
  457.00      9.71670E-04
  459.00      9.64450E-04
  461.00      9.58390E-04
  463.00      9.46210E-04
  465.00      9.27680E-04
  467.00      9.33930E-04
  469.00      8.98500E-04
  471.00      9.23100E-04
  473.00      9.17540E-04
  475.00      9.11000E-04
  477.00      9.03900E-04
  479.00      8.94860E-04
  481.00      8.90260E-04
  483.00      8.83060E-04
  485.00      8.63780E-04
  487.00      8.19680E-04
  489.00      8.63140E-04
  491.00      8.57620E-04
  493.00      8.51410E-04
  495.00      8.46060E-04
  497.00      8.39770E-04
  499.00      8.34280E-04
  501.00      8.26650E-04
  503.00      8.21870E-04
  505.00      8.15340E-04
  507.00      8.10150E-04
  509.00      8.04940E-04
  511.00      7.98670E-04
  513.00      7.92350E-04
  515.00      7.87480E-04
  517.00      7.82980E-04
  519.00      7.77410E-04
  521.00      7.71260E-04
  523.00      7.66780E-04
  525.00      7.60410E-04
  527.00      7.55140E-04
  529.00      7.51160E-04
  531.00      7.46020E-04
  533.00      7.40750E-04
  535.00      7.36120E-04
  537.00      7.30920E-04
  539.00      7.26050E-04
  541.00      7.07930E-04
  543.00      7.16570E-04
  545.00      7.11830E-04
  547.00      7.06640E-04
  549.00      7.02380E-04
  551.00      6.97050E-04
  553.00      6.93240E-04
  555.00      6.88760E-04
  557.00      6.83210E-04
  559.00      6.77450E-04
  561.00      6.75390E-04
  563.00      6.70980E-04
  565.00      6.66610E-04
  567.00      6.62290E-04
  569.00      6.47730E-04
  571.00      6.06200E-04
  573.00      6.02610E-04
  575.00      5.98800E-04
  577.00      5.95850E-04
  579.00      5.93000E-04
  581.00      5.85750E-04
  583.00      5.89390E-04
  585.00      5.89080E-04
  587.00      5.86830E-04
  589.00      5.88920E-04
  591.00      5.89470E-04
  593.00      5.90570E-04
  595.00      5.92460E-04
  597.00      5.93880E-04
  599.00      5.95470E-04
  601.00      5.93370E-04
  603.00      5.91090E-04
  605.00      5.88450E-04
  607.00      5.84500E-04
  609.00      5.82080E-04
  611.00      5.77720E-04
  613.00      5.74360E-04
  615.00      5.72030E-04
  617.00      5.66320E-04
  619.00      5.65370E-04
  621.00      5.62240E-04
  623.00      5.55960E-04
  625.00      5.55100E-04
  627.00      5.52310E-04
  629.00      5.49230E-04
  631.00      5.41950E-04
  633.00      5.42550E-04
  635.00      5.39640E-04
  637.00      5.36570E-04
  639.00      5.32780E-04
  641.00      5.25460E-04
  643.00      5.27410E-04
  645.00      5.24160E-04
  647.00      5.21110E-04
  649.00      5.18390E-04
  651.00      5.14970E-04
  653.00      5.06290E-04
  655.00      5.04590E-04
  657.00      4.73500E-04
  659.00      5.03250E-04
  661.00      5.01180E-04
  663.00      4.98390E-04
  665.00      4.95620E-04
  667.00      4.91210E-04
  669.00      4.82970E-04
  671.00      4.86770E-04
  673.00      4.84570E-04
  675.00      4.81860E-04
  677.00      4.79350E-04
  679.00      4.76850E-04
  681.00      4.74220E-04
  683.00      4.71680E-04
  685.00      4.69090E-04
  687.00      4.66500E-04
  689.00      4.56880E-04
  691.00      4.61290E-04
  693.00      4.59120E-04
  695.00      4.56660E-04
  697.00      4.54230E-04
  699.00      4.51790E-04
  701.00      4.49200E-04
  703.00      4.46410E-04
  705.00      4.44220E-04
  707.00      4.41590E-04
  709.00      4.40020E-04
  711.00      4.37130E-04
  713.00      4.34850E-04
  715.00      4.33170E-04
  717.00      4.25980E-04
  719.00      4.26030E-04
  721.00      4.26260E-04
  723.00      4.24270E-04
  725.00      4.22090E-04
  727.00      4.19930E-04
  729.00      4.17650E-04
  731.00      4.15310E-04
  733.00      4.13520E-04
  735.00      4.11430E-04
  737.00      4.09180E-04
  739.00      4.06810E-04
  741.00      4.05050E-04
  743.00      4.03190E-04
  745.00      4.00740E-04
  747.00      3.99080E-04
  749.00      3.96640E-04
  751.00      3.94980E-04
  753.00      3.93200E-04
  755.00      3.91200E-04
  757.00      3.89250E-04
  759.00      3.80600E-04
  761.00      3.84950E-04
  763.00      3.83530E-04
  765.00      3.81650E-04
  767.00      3.79700E-04
  769.00      3.77480E-04
  771.00      3.75730E-04
  773.00      3.73730E-04
  775.00      3.72280E-04
  777.00      3.70770E-04
  779.00      3.68850E-04
  781.00      3.67190E-04
  783.00      3.65380E-04
  785.00      3.63000E-04
  787.00      3.61720E-04
  789.00      3.60140E-04
  791.00      3.58520E-04
  793.00      3.56850E-04
  795.00      3.55050E-04
  797.00      3.53130E-04
  799.00      3.51830E-04
  801.00      3.50160E-04
  803.00      3.48340E-04
  805.00      3.46910E-04
  807.00      3.45300E-04
  809.00      3.43690E-04
  811.00      3.42100E-04
  813.00      3.40520E-04
  815.00      3.38940E-04
  817.00      3.37050E-04
  819.00      3.34110E-04
  821.00      3.17790E-04
  823.00      3.14130E-04
  825.00      3.14610E-04
  827.00      3.13640E-04
  829.00      3.12330E-04
  831.00      3.11020E-04
  833.00      3.09340E-04
  835.00      3.08290E-04
  837.00      3.07160E-04
  839.00      3.06020E-04
  841.00      3.05040E-04
  843.00      3.04030E-04
  845.00      3.03050E-04
  847.00      3.02140E-04
  849.00      3.01430E-04
  851.00      3.00300E-04
  853.00      2.99970E-04
  855.00      2.98750E-04
  857.00      2.98580E-04
  859.00      2.97410E-04
  861.00      2.96640E-04
  863.00      2.97060E-04
  865.00      2.96050E-04
  867.00      2.92940E-04
  869.00      2.95530E-04
  871.00      2.95470E-04
  873.00      2.94510E-04
  875.00      2.88460E-04
  877.00      2.92540E-04
  879.00      2.93590E-04
  881.00      2.93200E-04
  883.00      2.92310E-04
  885.00      2.87670E-04
  887.00      2.80290E-04
  889.00      2.87990E-04
  891.00      2.87960E-04
  893.00      2.86590E-04
  895.00      2.86020E-04
  897.00      2.84790E-04
  899.00      2.82290E-04
  901.00      2.70910E-04
  903.00      2.75070E-04
  905.00      2.79360E-04
  907.00      2.79020E-04
  909.00      2.77950E-04
  911.00      2.75970E-04
  913.00      2.75640E-04
  915.00      2.74610E-04
  917.00      2.73300E-04
  919.00      2.71830E-04
  921.00      2.68420E-04
  923.00      2.54450E-04
  925.00      2.65450E-04
  927.00      2.67320E-04
  929.00      2.66730E-04
  931.00      2.65650E-04
  933.00      2.64320E-04
  935.00      2.57230E-04
  937.00      2.60780E-04
  939.00      2.61230E-04
  941.00      2.60170E-04
  943.00      2.59210E-04
  945.00      2.58170E-04
  947.00      2.57160E-04
  949.00      2.56010E-04
  951.00      2.54470E-04
  953.00      2.50500E-04
  955.00      2.36960E-04
  957.00      2.49620E-04
  959.00      2.50720E-04
  961.00      2.50080E-04
  963.00      2.49010E-04
  965.00      2.48120E-04
  967.00      2.47150E-04
  969.00      2.46170E-04
  971.00      2.44280E-04
  973.00      2.44090E-04
  975.00      2.42870E-04
  977.00      2.40200E-04
  979.00      2.41380E-04
  981.00      2.40440E-04
  983.00      2.39400E-04
  985.00      2.38580E-04
  987.00      2.37660E-04
  989.00      2.36740E-04
  991.00      2.35790E-04
  993.00      2.34920E-04
  995.00      2.34020E-04
  997.00      2.33120E-04
  999.00      2.32220E-04
  1002.5      2.27230E-04
  1007.5      2.22970E-04
  1012.5      2.22140E-04
  1017.5      2.24200E-04
  1022.5      2.22090E-04
  1027.5      2.19930E-04
  1032.5      2.17860E-04
  1037.5      2.15970E-04
  1042.5      2.12650E-04
  1047.5      2.12050E-04
  1052.5      2.10110E-04
  1057.5      2.08210E-04
  1062.5      2.06340E-04
  1067.5      2.04480E-04
  1072.5      2.02660E-04
  1077.5      2.00850E-04
  1082.5      1.98810E-04
  1087.5      1.97240E-04
  1092.5      1.88720E-04
  1097.5      1.92540E-04
  1102.5      1.92180E-04
  1107.5      1.90510E-04
  1112.5      1.88870E-04
  1117.5      1.87370E-04
  1122.5      1.85750E-04
  1127.5      1.84150E-04
  1132.5      1.82570E-04
  1137.5      1.81060E-04
  1142.5      1.79540E-04
  1147.5      1.78040E-04
  1152.5      1.76550E-04
  1157.5      1.75030E-04
  1162.5      1.71530E-04
  1167.5      1.70690E-04
  1172.5      1.70760E-04
  1177.5      1.69380E-04
  1182.5      1.67950E-04
  1187.5      1.66620E-04
  1192.5      1.65270E-04
  1197.5      1.63800E-04
  1202.5      1.62630E-04
  1207.5      1.61310E-04
  1212.5      1.60000E-04
  1217.5      1.58780E-04
  1222.5      1.57520E-04
  1227.5      1.56280E-04
  1232.5      1.55050E-04
  1237.5      1.53840E-04
  1242.5      1.52640E-04
  1247.5      1.51460E-04
  1252.5      1.50290E-04
  1257.5      1.49120E-04
  1262.5      1.47990E-04
  1267.5      1.46860E-04
  1272.5      1.45740E-04
  1277.5      1.44170E-04
  1282.5      1.37790E-04
  1287.5      1.42290E-04
  1292.5      1.41390E-04
  1297.5      1.40320E-04
  1302.5      1.39290E-04
  1307.5      1.38260E-04
  1312.5      1.37230E-04
  1317.5      1.36220E-04
  1322.5      1.35220E-04
  1327.5      1.34240E-04
  1332.5      1.33260E-04
  1337.5      1.32290E-04
  1342.5      1.31330E-04
  1347.5      1.30390E-04
  1352.5      1.29450E-04
  1357.5      1.28520E-04
  1362.5      1.27610E-04
  1367.5      1.26700E-04
  1372.5      1.25800E-04
  1377.5      1.24910E-04
  1382.5      1.24040E-04
  1387.5      1.23160E-04
  1392.5      1.22300E-04
  1397.5      1.21450E-04
