 Castelli and Kurucz 2004-2012 Atmosphere
 T     37000.     G    4.50000 [+0.2] N(He)/Ntot=0.07828 VTURB=2.0  L/H=1.25 NO
 Wavelength  Eddington Hnu
   (nm)    (ergs/s/cm2/Hz/sr)
  9.0900      1.12690E-27
  9.3500      4.87160E-27
  9.6100      1.94220E-26
  9.7700      4.45250E-26
  9.9600      1.14520E-25
  10.200      3.60720E-25
  10.380      8.27200E-25
  10.560      1.84870E-24
  10.770      4.57890E-24
  11.040      1.40290E-23
  11.400      5.78420E-23
  11.780      2.37040E-22
  12.130      8.08980E-22
  12.480      2.58770E-21
  12.710      5.37900E-21
  12.840      8.04540E-21
  13.050      1.51590E-20
  13.240      2.64820E-20
  13.390      4.07340E-20
  13.660      8.62510E-20
  13.980      2.03700E-19
  14.330      4.98310E-19
  14.720      1.27470E-18
  15.100      3.11670E-18
  15.520      7.87660E-18
  15.880      1.68180E-17
  16.200      3.19990E-17
  16.600      6.99570E-17
  17.030      1.54680E-16
  17.340      2.69150E-16
  17.680      4.85620E-16
  18.020      8.53010E-16
  18.170      1.09160E-15
  18.610      2.18240E-15
  19.100      4.55700E-15
  19.390      6.94280E-15
  19.840      1.30340E-14
  20.180      2.05130E-14
  20.500      3.11100E-14
  21.050      6.19200E-14
  21.620      1.20990E-13
  21.980      1.84030E-13
  22.300      2.62200E-13
  22.680      3.97990E-13
  23.000      2.41030E-10
  23.400      5.98990E-10
  24.000      8.76480E-10
  24.650      1.33490E-09
  25.240      2.19260E-09
  25.680      3.08680E-09
  26.000      4.55730E-09
  26.400      1.02800E-08
  26.850      1.60930E-08
  27.350      2.04540E-08
  27.850      2.17980E-08
  28.400      4.34470E-08
  29.000      6.02970E-08
  29.600      7.14070E-08
  30.100      1.59240E-07
  30.800      5.68710E-07
  31.800      7.62610E-07
  32.800      1.23660E-06
  33.800      1.96410E-06
  34.800      2.81790E-06
  35.700      6.74530E-06
  36.600      1.58780E-05
  37.500      2.03510E-05
  38.500      2.29860E-05
  39.500      4.34120E-05
  40.500      6.65130E-05
  41.400      6.42760E-05
  42.200      6.91860E-05
  43.000      6.66170E-05
  44.100      8.18640E-05
  45.100      8.68590E-05
  46.000      7.61350E-05
  47.000      8.57800E-05
  48.000      1.03420E-04
  49.000      8.37290E-05
  50.000      1.13440E-04
  50.600      1.11860E-04
  51.200      3.80740E-04
  52.000      3.64450E-04
  53.000      3.33560E-04
  54.000      3.04640E-04
  55.000      3.10100E-04
  56.000      4.39880E-04
  57.000      5.15670E-04
  58.000      5.01810E-04
  59.000      5.26280E-04
  60.000      4.05090E-04
  61.000      4.68360E-04
  62.000      6.17990E-04
  63.000      6.00690E-04
  64.000      6.60050E-04
  65.000      6.38620E-04
  65.800      5.28610E-04
  66.500      6.59670E-04
  67.500      7.58860E-04
  68.500      6.02270E-04
  69.500      7.81280E-04
  70.500      6.16430E-04
  71.600      8.58490E-04
  72.600      8.68780E-04
  73.500      8.94650E-04
  74.500      8.33710E-04
  75.500      8.48970E-04
  76.500      8.19270E-04
  77.500      8.93560E-04
  78.500      8.65660E-04
  79.500      9.43340E-04
  80.500      9.30250E-04
  81.500      9.47460E-04
  82.500      9.95310E-04
  83.500      8.21360E-04
  84.500      9.86000E-04
  85.500      9.76660E-04
  86.500      1.03100E-03
  87.500      1.04630E-03
  88.500      1.05890E-03
  89.500      1.07160E-03
  90.500      1.05460E-03
  91.500      9.19500E-04
  92.500      1.77850E-03
  93.500      2.61530E-03
  94.500      3.16430E-03
  95.500      3.52900E-03
  96.500      3.97770E-03
  97.500      2.42630E-03
  98.500      3.49190E-03
  99.500      3.13800E-03
  100.50      3.22130E-03
  101.50      3.44630E-03
  102.50      3.01080E-03
  103.50      3.59200E-03
  104.50      3.94100E-03
  105.50      3.84290E-03
  106.50      3.56530E-03
  107.50      3.65310E-03
  108.50      3.40980E-03
  109.50      3.63000E-03
  110.50      3.54220E-03
  111.50      3.54620E-03
  112.50      3.21520E-03
  113.50      3.52930E-03
  114.50      3.53870E-03
  115.50      3.33530E-03
  116.50      3.24030E-03
  117.50      2.51010E-03
  118.50      3.08540E-03
  119.50      3.00700E-03
  120.50      2.98090E-03
  121.50      2.49930E-03
  122.50      2.90130E-03
  123.50      3.06880E-03
  124.50      3.03140E-03
  125.50      3.05700E-03
  126.50      3.16240E-03
  127.50      3.28430E-03
  128.50      3.30930E-03
  129.50      3.24280E-03
  130.50      3.20640E-03
  131.50      3.34030E-03
  132.50      3.29860E-03
  133.50      3.25160E-03
  134.50      3.28450E-03
  135.50      3.19750E-03
  136.50      3.14160E-03
  137.50      3.06890E-03
  138.50      3.04750E-03
  139.50      2.78340E-03
  140.50      2.73380E-03
  141.50      3.07220E-03
  142.50      2.78730E-03
  143.50      2.99100E-03
  144.20      2.92060E-03
  144.70      2.93790E-03
  145.50      2.83560E-03
  146.50      2.84120E-03
  147.50      2.87010E-03
  148.50      2.91850E-03
  149.50      2.85540E-03
  150.50      2.86440E-03
  151.20      2.85640E-03
  151.70      2.86140E-03
  152.50      2.80010E-03
  153.50      2.53290E-03
  154.50      2.08780E-03
  155.50      2.16390E-03
  156.50      2.45880E-03
  157.50      2.58280E-03
  158.50      2.60090E-03
  159.50      2.62450E-03
  160.50      2.49210E-03
  161.50      2.42060E-03
  162.50      2.49650E-03
  163.50      2.51430E-03
  164.50      2.49800E-03
  165.50      2.56720E-03
  166.50      2.54330E-03
  167.20      2.37680E-03
  167.70      2.72510E-03
  168.50      2.64200E-03
  169.50      2.60020E-03
  170.50      2.58340E-03
  171.50      2.49050E-03
  172.50      2.44620E-03
  173.50      2.54820E-03
  174.50      2.54970E-03
  175.50      2.51760E-03
  176.50      2.50990E-03
  177.50      2.45720E-03
  178.50      2.50780E-03
  179.50      2.45630E-03
  180.50      2.45860E-03
  181.50      2.43770E-03
  182.50      2.40390E-03
  183.50      2.42770E-03
  184.50      2.40050E-03
  185.50      2.42060E-03
  186.50      2.42410E-03
  187.50      2.37540E-03
  188.50      2.33490E-03
  189.50      2.36130E-03
  190.50      2.38230E-03
  191.50      2.35820E-03
  192.50      2.24850E-03
  193.50      2.35630E-03
  194.50      2.36740E-03
  195.50      2.23300E-03
  196.70      2.31360E-03
  197.60      2.32340E-03
  198.40      2.31260E-03
  199.50      2.27410E-03
  200.50      2.31400E-03
  201.50      2.30430E-03
  202.50      2.29520E-03
  203.50      2.26090E-03
  204.50      2.23950E-03
  205.50      1.71520E-03
  206.50      1.65680E-03
  207.40      1.72270E-03
  207.80      1.74880E-03
  208.50      1.88950E-03
  209.50      2.08460E-03
  210.50      2.15100E-03
  211.50      2.18240E-03
  212.50      2.14880E-03
  213.50      2.15500E-03
  214.50      2.14110E-03
  215.50      2.15710E-03
  216.50      2.05670E-03
  217.50      2.14530E-03
  218.50      2.06990E-03
  219.50      2.14000E-03
  220.50      2.12570E-03
  221.50      2.03750E-03
  222.50      2.09530E-03
  223.50      2.08520E-03
  224.50      2.06120E-03
  225.50      1.99540E-03
  226.50      2.04470E-03
  227.50      2.04280E-03
  228.50      2.00510E-03
  229.50      1.89890E-03
  230.50      1.93060E-03
  231.50      1.95990E-03
  232.50      1.96990E-03
  233.50      1.95830E-03
  234.50      1.93660E-03
  235.50      1.91060E-03
  236.50      1.89470E-03
  237.50      1.86750E-03
  238.50      1.78600E-03
  239.50      1.83240E-03
  240.50      1.83950E-03
  241.50      1.83610E-03
  242.50      1.84200E-03
  243.50      1.82470E-03
  244.50      1.81660E-03
  245.50      1.80120E-03
  246.50      1.79460E-03
  247.50      1.79100E-03
  248.50      1.75490E-03
  249.50      1.43780E-03
  250.50      1.71870E-03
  251.30      1.63420E-03
  251.80      1.69150E-03
  252.50      1.72510E-03
  253.50      1.72970E-03
  254.50      1.71880E-03
  255.50      1.70580E-03
  256.50      1.69820E-03
  257.50      1.68790E-03
  258.50      1.67980E-03
  259.50      1.65230E-03
  260.50      1.66400E-03
  261.50      1.64100E-03
  262.50      1.64530E-03
  263.50      1.64090E-03
  264.50      1.62330E-03
  265.50      1.62030E-03
  266.50      1.60430E-03
  267.50      1.57260E-03
  268.50      1.58740E-03
  269.50      1.57180E-03
  270.50      1.57600E-03
  271.50      1.56000E-03
  272.50      1.55380E-03
  273.50      1.50870E-03
  274.50      1.54500E-03
  275.50      1.53320E-03
  276.50      1.52170E-03
  277.50      1.51980E-03
  278.50      1.50290E-03
  279.50      1.47540E-03
  280.50      1.48720E-03
  281.50      1.48520E-03
  282.50      1.47480E-03
  283.50      1.46600E-03
  284.50      1.46570E-03
  285.50      1.45580E-03
  286.50      1.43930E-03
  287.50      1.43500E-03
  288.50      1.43060E-03
  289.50      1.42200E-03
  291.00      1.40640E-03
  293.00      1.39940E-03
  295.00      1.38130E-03
  297.00      1.36510E-03
  299.00      1.34200E-03
  301.00      1.32650E-03
  303.00      1.30580E-03
  305.00      1.30210E-03
  307.00      1.29130E-03
  309.00      1.27960E-03
  311.00      1.27190E-03
  313.00      1.25650E-03
  315.00      1.24880E-03
  317.00      1.23440E-03
  319.00      1.22430E-03
  321.00      1.19530E-03
  323.00      1.20060E-03
  325.00      1.19250E-03
  327.00      1.16890E-03
  329.00      1.16560E-03
  331.00      1.15270E-03
  333.00      1.14090E-03
  335.00      1.12220E-03
  337.00      1.11670E-03
  339.00      1.11190E-03
  341.00      1.10040E-03
  343.00      1.09310E-03
  345.00      1.07560E-03
  347.00      1.07200E-03
  349.00      1.06360E-03
  351.00      1.05510E-03
  353.00      1.04430E-03
  355.00      1.03440E-03
  357.00      1.02700E-03
  359.00      1.01560E-03
  361.00      1.00380E-03
  363.00      9.95900E-04
  364.00      9.80190E-04
  365.00      9.05140E-04
  367.00      8.98970E-04
  369.00      8.92430E-04
  371.00      8.82360E-04
  373.00      8.88020E-04
  375.00      8.98420E-04
  377.00      9.00850E-04
  379.00      9.28470E-04
  381.00      9.49250E-04
  383.00      8.90500E-04
  385.00      9.55590E-04
  387.00      9.47380E-04
  389.00      8.60910E-04
  391.00      9.51310E-04
  393.00      9.33600E-04
  395.00      9.24960E-04
  397.00      8.26080E-04
  399.00      9.18060E-04
  401.00      9.10390E-04
  403.00      8.85940E-04
  405.00      8.99840E-04
  407.00      8.81520E-04
  409.00      8.46500E-04
  411.00      7.95360E-04
  413.00      8.60530E-04
  415.00      8.56530E-04
  417.00      8.56220E-04
  419.00      8.46150E-04
  421.00      8.32140E-04
  423.00      8.38410E-04
  425.00      8.27770E-04
  427.00      8.19930E-04
  429.00      8.13790E-04
  431.00      8.01870E-04
  433.00      7.67470E-04
  435.00      7.30230E-04
  437.00      7.85160E-04
  439.00      7.72880E-04
  441.00      7.70350E-04
  443.00      7.70180E-04
  445.00      7.63440E-04
  447.00      7.48020E-04
  449.00      7.52860E-04
  451.00      7.40450E-04
  453.00      7.37290E-04
  455.00      7.21910E-04
  457.00      7.29910E-04
  459.00      7.21990E-04
  461.00      7.18070E-04
  463.00      7.07980E-04
  465.00      6.81780E-04
  467.00      6.98710E-04
  469.00      6.79140E-04
  471.00      6.88990E-04
  473.00      6.92550E-04
  475.00      6.87420E-04
  477.00      6.82880E-04
  479.00      6.77690E-04
  481.00      6.72270E-04
  483.00      6.65920E-04
  485.00      6.43110E-04
  487.00      5.99460E-04
  489.00      6.50290E-04
  491.00      6.46900E-04
  493.00      6.37040E-04
  495.00      6.37590E-04
  497.00      6.35280E-04
  499.00      6.30990E-04
  501.00      6.20300E-04
  503.00      6.20260E-04
  505.00      6.15560E-04
  507.00      6.13280E-04
  509.00      6.09080E-04
  511.00      6.04790E-04
  513.00      6.00260E-04
  515.00      5.96150E-04
  517.00      5.91980E-04
  519.00      5.88150E-04
  521.00      5.84320E-04
  523.00      5.80590E-04
  525.00      5.74930E-04
  527.00      5.70920E-04
  529.00      5.68880E-04
  531.00      5.64950E-04
  533.00      5.61180E-04
  535.00      5.57600E-04
  537.00      5.53860E-04
  539.00      5.50080E-04
  541.00      5.37250E-04
  543.00      5.42930E-04
  545.00      5.39470E-04
  547.00      5.35780E-04
  549.00      5.32400E-04
  551.00      5.28380E-04
  553.00      5.25450E-04
  555.00      5.22250E-04
  557.00      5.18470E-04
  559.00      5.13660E-04
  561.00      5.12280E-04
  563.00      5.09000E-04
  565.00      5.05680E-04
  567.00      5.02240E-04
  569.00      4.91310E-04
  571.00      4.70590E-04
  573.00      4.67930E-04
  575.00      4.64940E-04
  577.00      4.62670E-04
  579.00      4.60030E-04
  581.00      4.55780E-04
  583.00      4.54870E-04
  585.00      4.54680E-04
  587.00      4.47060E-04
  589.00      4.52390E-04
  591.00      4.52000E-04
  593.00      4.51510E-04
  595.00      4.51410E-04
  597.00      4.51710E-04
  599.00      4.51600E-04
  601.00      4.50660E-04
  603.00      4.48400E-04
  605.00      4.46820E-04
  607.00      4.44330E-04
  609.00      4.42030E-04
  611.00      4.38930E-04
  613.00      4.36530E-04
  615.00      4.33910E-04
  617.00      4.30700E-04
  619.00      4.29330E-04
  621.00      4.27040E-04
  623.00      4.23380E-04
  625.00      4.21670E-04
  627.00      4.19590E-04
  629.00      4.17200E-04
  631.00      4.13040E-04
  633.00      4.12330E-04
  635.00      4.09860E-04
  637.00      4.07750E-04
  639.00      4.05280E-04
  641.00      4.01110E-04
  643.00      4.00840E-04
  645.00      3.98160E-04
  647.00      3.95670E-04
  649.00      3.93740E-04
  651.00      3.91040E-04
  653.00      3.86260E-04
  655.00      3.80540E-04
  657.00      3.51070E-04
  659.00      3.81520E-04
  661.00      3.80980E-04
  663.00      3.79000E-04
  665.00      3.76870E-04
  667.00      3.71510E-04
  669.00      3.67460E-04
  671.00      3.69820E-04
  673.00      3.67820E-04
  675.00      3.66000E-04
  677.00      3.64610E-04
  679.00      3.62670E-04
  681.00      3.60880E-04
  683.00      3.58930E-04
  685.00      3.56920E-04
  687.00      3.54820E-04
  689.00      3.49520E-04
  691.00      3.50800E-04
  693.00      3.49500E-04
  695.00      3.47630E-04
  697.00      3.45820E-04
  699.00      3.43970E-04
  701.00      3.41850E-04
  703.00      3.39480E-04
  705.00      3.38170E-04
  707.00      3.33410E-04
  709.00      3.35090E-04
  711.00      3.33250E-04
  713.00      3.31540E-04
  715.00      3.29940E-04
  717.00      3.25900E-04
  719.00      3.25270E-04
  721.00      3.24890E-04
  723.00      3.22700E-04
  725.00      3.21490E-04
  727.00      3.19950E-04
  729.00      3.16930E-04
  731.00      3.16490E-04
  733.00      3.15100E-04
  735.00      3.13520E-04
  737.00      3.11860E-04
  739.00      3.10390E-04
  741.00      3.08750E-04
  743.00      3.07320E-04
  745.00      3.05520E-04
  747.00      3.04070E-04
  749.00      3.01720E-04
  751.00      3.01130E-04
  753.00      2.99730E-04
  755.00      2.98270E-04
  757.00      2.96700E-04
  759.00      2.91730E-04
  761.00      2.93390E-04
  763.00      2.92330E-04
  765.00      2.90990E-04
  767.00      2.89690E-04
  769.00      2.87560E-04
  771.00      2.86560E-04
  773.00      2.84690E-04
  775.00      2.83960E-04
  777.00      2.82830E-04
  779.00      2.81390E-04
  781.00      2.80100E-04
  783.00      2.78770E-04
  785.00      2.76990E-04
  787.00      2.75870E-04
  789.00      2.74700E-04
  791.00      2.73630E-04
  793.00      2.72350E-04
  795.00      2.71140E-04
  797.00      2.69610E-04
  799.00      2.68550E-04
  801.00      2.67320E-04
  803.00      2.65840E-04
  805.00      2.64890E-04
  807.00      2.63650E-04
  809.00      2.62360E-04
  811.00      2.60970E-04
  813.00      2.60050E-04
  815.00      2.58740E-04
  817.00      2.57460E-04
  819.00      2.55500E-04
  821.00      2.47870E-04
  823.00      2.45360E-04
  825.00      2.45540E-04
  827.00      2.44360E-04
  829.00      2.43710E-04
  831.00      2.42810E-04
  833.00      2.41160E-04
  835.00      2.39840E-04
  837.00      2.39420E-04
  839.00      2.38700E-04
  841.00      2.37710E-04
  843.00      2.36800E-04
  845.00      2.35440E-04
  847.00      2.34980E-04
  849.00      2.34070E-04
  851.00      2.32460E-04
  853.00      2.32470E-04
  855.00      2.31230E-04
  857.00      2.31360E-04
  859.00      2.28880E-04
  861.00      2.28700E-04
  863.00      2.29790E-04
  865.00      2.27690E-04
  867.00      2.23690E-04
  869.00      2.27700E-04
  871.00      2.27910E-04
  873.00      2.25550E-04
  875.00      2.17690E-04
  877.00      2.22970E-04
  879.00      2.25700E-04
  881.00      2.25480E-04
  883.00      2.24210E-04
  885.00      2.17720E-04
  887.00      2.09940E-04
  889.00      2.20470E-04
  891.00      2.21390E-04
  893.00      2.20600E-04
  895.00      2.19760E-04
  897.00      2.18890E-04
  899.00      2.15730E-04
  901.00      2.02590E-04
  903.00      2.07900E-04
  905.00      2.14450E-04
  907.00      2.13600E-04
  909.00      2.13630E-04
  911.00      2.12980E-04
  913.00      2.12440E-04
  915.00      2.11660E-04
  917.00      2.10320E-04
  919.00      2.08940E-04
  921.00      2.03890E-04
  923.00      1.89310E-04
  925.00      2.02050E-04
  927.00      2.05390E-04
  929.00      2.05270E-04
  931.00      2.04330E-04
  933.00      2.03710E-04
  935.00      1.99630E-04
  937.00      2.01500E-04
  939.00      2.01380E-04
  941.00      2.00340E-04
  943.00      1.99670E-04
  945.00      1.98960E-04
  947.00      1.97740E-04
  949.00      1.97110E-04
  951.00      1.94770E-04
  953.00      1.89870E-04
  955.00      1.76370E-04
  957.00      1.90560E-04
  959.00      1.92760E-04
  961.00      1.92380E-04
  963.00      1.91420E-04
  965.00      1.91300E-04
  967.00      1.90610E-04
  969.00      1.89800E-04
  971.00      1.85820E-04
  973.00      1.87840E-04
  975.00      1.87510E-04
  977.00      1.86280E-04
  979.00      1.86150E-04
  981.00      1.85430E-04
  983.00      1.84670E-04
  985.00      1.83990E-04
  987.00      1.83290E-04
  989.00      1.82490E-04
  991.00      1.81620E-04
  993.00      1.81210E-04
  995.00      1.80540E-04
  997.00      1.79790E-04
  999.00      1.79010E-04
  1002.5      1.73090E-04
  1007.5      1.69570E-04
  1012.5      1.71920E-04
  1017.5      1.73010E-04
  1022.5      1.71340E-04
  1027.5      1.69720E-04
  1032.5      1.67780E-04
  1037.5      1.66690E-04
  1042.5      1.64750E-04
  1047.5      1.63680E-04
  1052.5      1.62180E-04
  1057.5      1.60720E-04
  1062.5      1.59280E-04
  1067.5      1.57770E-04
  1072.5      1.56470E-04
  1077.5      1.55070E-04
  1082.5      1.52660E-04
  1087.5      1.52080E-04
  1092.5      1.42780E-04
  1097.5      1.47540E-04
  1102.5      1.48070E-04
  1107.5      1.47100E-04
  1112.5      1.45860E-04
  1117.5      1.44660E-04
  1122.5      1.43390E-04
  1127.5      1.42190E-04
  1132.5      1.40950E-04
  1137.5      1.39790E-04
  1142.5      1.38630E-04
  1147.5      1.37480E-04
  1152.5      1.36350E-04
  1157.5      1.35160E-04
  1162.5      1.33100E-04
  1167.5      1.32360E-04
  1172.5      1.31910E-04
  1177.5      1.30840E-04
  1182.5      1.29720E-04
  1187.5      1.28710E-04
  1192.5      1.27670E-04
  1197.5      1.25720E-04
  1202.5      1.25660E-04
  1207.5      1.24630E-04
  1212.5      1.23590E-04
  1217.5      1.22690E-04
  1222.5      1.21720E-04
  1227.5      1.20780E-04
  1232.5      1.19820E-04
  1237.5      1.18900E-04
  1242.5      1.17980E-04
  1247.5      1.17070E-04
  1252.5      1.16030E-04
  1257.5      1.15240E-04
  1262.5      1.14390E-04
  1267.5      1.13540E-04
  1272.5      1.12670E-04
  1277.5      1.10530E-04
  1282.5      1.04690E-04
  1287.5      1.09740E-04
  1292.5      1.09330E-04
  1297.5      1.08160E-04
  1302.5      1.07680E-04
  1307.5      1.06920E-04
  1312.5      1.06140E-04
  1317.5      1.05360E-04
  1322.5      1.04590E-04
  1327.5      1.03830E-04
  1332.5      1.03070E-04
  1337.5      1.02330E-04
  1342.5      1.01550E-04
  1347.5      1.00860E-04
  1352.5      1.00130E-04
  1357.5      9.94370E-05
  1362.5      9.87150E-05
  1367.5      9.80320E-05
  1372.5      9.72950E-05
  1377.5      9.66590E-05
  1382.5      9.59830E-05
  1387.5      9.53130E-05
  1392.5      9.46300E-05
  1397.5      9.39950E-05
