 TLUSTY Ostars, Lanz & Hubeny 2003
 T 47500. G 4.75000 Abundance P03
 Frequency   Eddington Hnu
   (Hz)    (ergs/s/cm2/Hz/sr)
 6.67944E+16  4.59590E-36
 6.67573E+16  4.73422E-36
 6.67202E+16  4.92524E-36
 6.66831E+16  5.12398E-36
 6.66461E+16  5.33073E-36
 6.66091E+16  5.54582E-36
 6.65721E+16  5.76960E-36
 6.65351E+16  6.00240E-36
 6.64982E+16  6.24460E-36
 6.64612E+16  6.49657E-36
 6.64243E+16  6.75871E-36
 6.63874E+16  7.03142E-36
 6.63506E+16  7.31514E-36
 6.63137E+16  7.61031E-36
 6.62769E+16  7.91738E-36
 6.62401E+16  8.23685E-36
 6.62033E+16  8.56921E-36
 6.61665E+16  8.91497E-36
 6.61298E+16  9.27469E-36
 6.60930E+16  9.64893E-36
 6.60563E+16  1.00383E-35
 6.60196E+16  1.04433E-35
 6.59830E+16  1.08647E-35
 6.59463E+16  1.13031E-35
 6.59097E+16  1.17592E-35
 6.58731E+16  1.22337E-35
 6.58365E+16  1.27273E-35
 6.57999E+16  1.32408E-35
 6.57634E+16  1.37751E-35
 6.57269E+16  1.43309E-35
 6.56904E+16  1.49092E-35
 6.56539E+16  1.55108E-35
 6.56174E+16  1.61366E-35
 6.55810E+16  1.67877E-35
 6.55445E+16  1.74651E-35
 6.55081E+16  1.81698E-35
 6.54718E+16  1.89030E-35
 6.54354E+16  1.96657E-35
 6.53991E+16  2.04592E-35
 6.53627E+16  2.12848E-35
 6.53264E+16  2.21436E-35
 6.52901E+16  2.30371E-35
 6.52539E+16  2.39667E-35
 6.52176E+16  2.49337E-35
 6.51814E+16  2.59398E-35
 6.51452E+16  2.69865E-35
 6.51090E+16  2.80754E-35
 6.50729E+16  2.92082E-35
 6.50367E+16  3.03868E-35
 6.50006E+16  3.16129E-35
 6.49645E+16  3.28885E-35
 6.49284E+16  3.42155E-35
 6.48924E+16  3.55961E-35
 6.48563E+16  3.70324E-35
 6.48203E+16  3.85267E-35
 6.47843E+16  4.00812E-35
 6.47483E+16  4.16985E-35
 6.47124E+16  4.33810E-35
 6.46764E+16  4.51315E-35
 6.46405E+16  4.69525E-35
 6.46046E+16  4.88471E-35
 6.45687E+16  5.08180E-35
 6.45329E+16  5.28686E-35
 6.44970E+16  5.50018E-35
 6.44612E+16  5.72211E-35
 6.44254E+16  5.95300E-35
 6.43896E+16  6.19320E-35
 6.43539E+16  6.44310E-35
 6.43181E+16  6.70308E-35
 6.42824E+16  6.97218E-35
 6.42467E+16  7.24584E-35
 6.42110E+16  7.53035E-35
 6.41753E+16  7.82602E-35
 6.41397E+16  8.13331E-35
 6.41041E+16  8.45266E-35
 6.40685E+16  8.78456E-35
 6.40329E+16  9.12948E-35
 6.39973E+16  9.48795E-35
 6.39618E+16  9.86049E-35
 6.39263E+16  1.02477E-34
 6.38908E+16  1.06500E-34
 6.38553E+16  1.10682E-34
 6.38198E+16  1.15028E-34
 6.37844E+16  1.19545E-34
 6.37489E+16  1.24238E-34
 6.37135E+16  1.29117E-34
 6.36781E+16  1.34186E-34
 6.36428E+16  1.39455E-34
 6.36074E+16  1.44931E-34
 6.35721E+16  1.50621E-34
 6.35368E+16  1.56536E-34
 6.35015E+16  1.62682E-34
 6.34662E+16  1.69070E-34
 6.34310E+16  1.75708E-34
 6.33958E+16  1.82607E-34
 6.33605E+16  1.89777E-34
 6.33254E+16  1.97229E-34
 6.32902E+16  2.04973E-34
 6.32550E+16  2.13021E-34
 6.32199E+16  2.21385E-34
 6.31848E+16  2.30078E-34
 6.31497E+16  2.39112E-34
 6.31146E+16  2.48501E-34
 6.30796E+16  2.58258E-34
 6.30445E+16  2.68399E-34
 6.30095E+16  2.78937E-34
 6.29745E+16  2.89890E-34
 6.29395E+16  3.01272E-34
 6.29046E+16  3.13101E-34
 6.28697E+16  3.25395E-34
 6.28347E+16  3.38172E-34
 6.27998E+16  3.51450E-34
 6.27650E+16  3.65250E-34
 6.27301E+16  3.79591E-34
 6.26953E+16  3.94496E-34
 6.26604E+16  4.09986E-34
 6.26256E+16  4.26084E-34
 6.25909E+16  4.42814E-34
 6.25561E+16  4.60201E-34
 6.25213E+16  4.78270E-34
 6.24866E+16  4.97050E-34
 6.24519E+16  5.16566E-34
 6.24172E+16  5.36849E-34
 6.23826E+16  5.57928E-34
 6.23479E+16  5.79835E-34
 6.23133E+16  6.02602E-34
 6.22787E+16  6.26263E-34
 6.22441E+16  6.50853E-34
 6.22095E+16  6.76409E-34
 6.21750E+16  7.02968E-34
 6.21404E+16  7.30570E-34
 6.21059E+16  7.59256E-34
 6.20714E+16  7.89068E-34
 6.20370E+16  8.20050E-34
 6.20025E+16  8.52249E-34
 6.19681E+16  8.85713E-34
 6.19337E+16  9.20490E-34
 6.18993E+16  9.56633E-34
 6.18649E+16  9.94195E-34
 6.18305E+16  1.03323E-33
 6.17962E+16  1.07385E-33
 6.17619E+16  1.11520E-33
 6.17276E+16  1.15780E-33
 6.16933E+16  1.20203E-33
 6.16590E+16  1.24795E-33
 6.16248E+16  1.29562E-33
 6.15905E+16  1.34511E-33
 6.15563E+16  1.39650E-33
 6.15221E+16  1.44984E-33
 6.14880E+16  1.50523E-33
 6.14538E+16  1.56273E-33
 6.14197E+16  1.62243E-33
 6.13856E+16  1.68440E-33
 6.13515E+16  1.74875E-33
 6.13174E+16  1.81555E-33
 6.12834E+16  1.88491E-33
 6.12493E+16  1.95691E-33
 6.12153E+16  2.03167E-33
 6.11813E+16  2.10928E-33
 6.11473E+16  2.18985E-33
 6.11134E+16  2.27351E-33
 6.10794E+16  2.36036E-33
 6.10455E+16  2.45052E-33
 6.10116E+16  2.54414E-33
 6.09777E+16  2.64132E-33
 6.09438E+16  2.74222E-33
 6.09100E+16  2.84698E-33
 6.08762E+16  2.95573E-33
 6.08423E+16  3.06864E-33
 6.08086E+16  3.18587E-33
 6.07748E+16  3.30757E-33
 6.07410E+16  3.43392E-33
 6.07073E+16  3.56510E-33
 6.06736E+16  3.70129E-33
 6.06399E+16  3.84268E-33
 6.06062E+16  3.98947E-33
 6.05725E+16  4.14187E-33
 6.05389E+16  4.30009E-33
 6.05053E+16  4.46436E-33
 6.04717E+16  4.63490E-33
 6.04381E+16  4.81195E-33
 6.04045E+16  4.99577E-33
 6.03710E+16  5.18661E-33
 6.03374E+16  5.38474E-33
 6.03039E+16  5.59044E-33
 6.02704E+16  5.80400E-33
 6.02370E+16  6.02572E-33
 6.02035E+16  6.25590E-33
 6.01701E+16  6.49488E-33
 6.01366E+16  6.74299E-33
 6.01032E+16  7.00058E-33
 6.00699E+16  7.26800E-33
 6.00365E+16  7.54564E-33
 6.00032E+16  7.83389E-33
 5.99698E+16  8.13315E-33
 5.99365E+16  8.44384E-33
 5.99032E+16  8.76640E-33
 5.98700E+16  9.10128E-33
 5.98367E+16  9.44895E-33
 5.98035E+16  9.80991E-33
 5.97703E+16  1.01847E-32
 5.97371E+16  1.05737E-32
 5.97039E+16  1.09776E-32
 5.96707E+16  1.13970E-32
 5.96376E+16  1.18324E-32
 5.96045E+16  1.22844E-32
 5.95714E+16  1.27536E-32
 5.95383E+16  1.32408E-32
 5.95052E+16  1.37466E-32
 5.94722E+16  1.42718E-32
 5.94391E+16  1.48169E-32
 5.94061E+16  1.53830E-32
 5.93731E+16  1.59706E-32
 5.93402E+16  1.65807E-32
 5.93072E+16  1.72141E-32
 5.92743E+16  1.78684E-32
 5.92413E+16  1.85315E-32
 5.92084E+16  1.92192E-32
 5.91755E+16  1.99325E-32
 5.91427E+16  2.06722E-32
 5.91098E+16  2.14394E-32
 5.90770E+16  2.22351E-32
 5.90442E+16  2.30603E-32
 5.90114E+16  2.39161E-32
 5.89786E+16  2.48036E-32
 5.89459E+16  2.57241E-32
 5.89131E+16  2.66788E-32
 5.88804E+16  2.76689E-32
 5.88477E+16  2.86957E-32
 5.88150E+16  2.97607E-32
 5.87824E+16  3.08652E-32
 5.87497E+16  3.20106E-32
 5.87171E+16  3.31986E-32
 5.86845E+16  3.44306E-32
 5.86519E+16  3.57084E-32
 5.86193E+16  3.70336E-32
 5.85867E+16  3.84080E-32
 5.85542E+16  3.98334E-32
 5.85217E+16  4.13117E-32
 5.84892E+16  4.28448E-32
 5.84567E+16  4.44349E-32
 5.84242E+16  4.60839E-32
 5.83918E+16  4.77942E-32
 5.83594E+16  4.95679E-32
 5.83269E+16  5.14075E-32
 5.82945E+16  5.33153E-32
 5.82622E+16  5.52939E-32
 5.82298E+16  5.73459E-32
 5.81975E+16  5.94742E-32
 5.81651E+16  6.16813E-32
 5.81328E+16  6.39704E-32
 5.81006E+16  6.63445E-32
 5.80683E+16  6.88067E-32
 5.80360E+16  7.13602E-32
 5.80038E+16  7.40085E-32
 5.79716E+16  7.67551E-32
 5.79394E+16  7.96036E-32
 5.79072E+16  8.25578E-32
 5.78750E+16  8.56217E-32
 5.78429E+16  8.87992E-32
 5.78108E+16  9.20947E-32
 5.77787E+16  9.55125E-32
 5.77466E+16  9.90572E-32
 5.77145E+16  1.02733E-31
 5.76825E+16  1.06546E-31
 5.76504E+16  1.10500E-31
 5.76184E+16  1.14601E-31
 5.75864E+16  1.18854E-31
 5.75544E+16  1.23265E-31
 5.75224E+16  1.27839E-31
 5.74905E+16  1.32584E-31
 5.74586E+16  1.37504E-31
 5.74267E+16  1.42607E-31
 5.73948E+16  1.47900E-31
 5.73629E+16  1.53388E-31
 5.73310E+16  1.59081E-31
 5.72992E+16  1.64985E-31
 5.72674E+16  1.71108E-31
 5.72356E+16  1.77458E-31
 5.72038E+16  1.84043E-31
 5.71720E+16  1.90874E-31
 5.71402E+16  1.97957E-31
 5.71085E+16  2.05304E-31
 5.70768E+16  2.12923E-31
 5.70451E+16  2.20825E-31
 5.70134E+16  2.29020E-31
 5.69817E+16  2.37519E-31
 5.69501E+16  2.46334E-31
 5.69185E+16  2.55476E-31
 5.68869E+16  2.64957E-31
 5.68553E+16  2.74790E-31
 5.68237E+16  2.84988E-31
 5.67921E+16  2.95565E-31
 5.67606E+16  3.06378E-31
 5.67291E+16  3.17351E-31
 5.66975E+16  3.28734E-31
 5.66661E+16  3.40525E-31
 5.66346E+16  3.52738E-31
 5.66031E+16  3.65390E-31
 5.65717E+16  3.78496E-31
 5.65403E+16  3.92072E-31
 5.65089E+16  4.06135E-31
 5.64775E+16  4.20702E-31
 5.64461E+16  4.35791E-31
 5.64148E+16  4.51422E-31
 5.63834E+16  4.67613E-31
 5.63521E+16  4.84386E-31
 5.63208E+16  5.01759E-31
 5.62895E+16  5.19756E-31
 5.62583E+16  5.38399E-31
 5.62270E+16  5.57710E-31
 5.61958E+16  5.77714E-31
 5.61646E+16  5.98435E-31
 5.61334E+16  6.19899E-31
 5.61022E+16  6.42134E-31
 5.60711E+16  6.65166E-31
 5.60399E+16  6.89023E-31
 5.60088E+16  7.13737E-31
 5.59777E+16  7.39337E-31
 5.59466E+16  7.65855E-31
 5.59155E+16  7.93325E-31
 5.58845E+16  8.21780E-31
 5.58534E+16  8.51255E-31
 5.58224E+16  8.81787E-31
 5.57914E+16  9.13415E-31
 5.57604E+16  9.46177E-31
 5.57295E+16  9.80114E-31
 5.56985E+16  1.01527E-30
 5.56676E+16  1.05168E-30
 5.56367E+16  1.08941E-30
 5.56058E+16  1.12848E-30
 5.55749E+16  1.16896E-30
 5.55440E+16  1.21088E-30
 5.55132E+16  1.25432E-30
 5.54823E+16  1.29930E-30
 5.54515E+16  1.34591E-30
 5.54207E+16  1.39418E-30
 5.53899E+16  1.44419E-30
 5.53592E+16  1.49599E-30
 5.53284E+16  1.54965E-30
 5.52977E+16  1.60523E-30
 5.52670E+16  1.66280E-30
 5.52363E+16  1.72244E-30
 5.52056E+16  1.78422E-30
 5.51749E+16  1.84822E-30
 5.51443E+16  1.91451E-30
 5.51137E+16  1.98318E-30
 5.50831E+16  2.05431E-30
 5.50525E+16  2.12800E-30
 5.50219E+16  2.20432E-30
 5.49913E+16  2.28339E-30
 5.49608E+16  2.36529E-30
 5.49303E+16  2.45012E-30
 5.48998E+16  2.53800E-30
 5.48693E+16  2.62903E-30
 5.48388E+16  2.72333E-30
 5.48083E+16  2.82101E-30
 5.47779E+16  2.92219E-30
 5.47475E+16  3.02701E-30
 5.47171E+16  3.13558E-30
 5.46867E+16  3.24804E-30
 5.46563E+16  3.36454E-30
 5.46259E+16  3.48522E-30
 5.45956E+16  3.61023E-30
 5.45653E+16  3.73972E-30
 5.45350E+16  3.87385E-30
 5.45047E+16  4.01280E-30
 5.44744E+16  4.15673E-30
 5.44442E+16  4.30582E-30
 5.44139E+16  4.46026E-30
 5.43837E+16  4.62024E-30
 5.43535E+16  4.78596E-30
 5.43233E+16  4.95762E-30
 5.42931E+16  5.13544E-30
 5.42630E+16  5.31798E-30
 5.42328E+16  5.50164E-30
 5.42027E+16  5.69168E-30
 5.41726E+16  5.88828E-30
 5.41425E+16  6.09167E-30
 5.41125E+16  6.30209E-30
 5.40824E+16  6.51977E-30
 5.40524E+16  6.74498E-30
 5.40224E+16  6.97796E-30
 5.39923E+16  7.21899E-30
 5.39624E+16  7.46835E-30
 5.39324E+16  7.72632E-30
 5.39024E+16  7.99320E-30
 5.38725E+16  8.26930E-30
 5.38426E+16  8.55493E-30
 5.38127E+16  8.85043E-30
 5.37828E+16  9.15614E-30
 5.37529E+16  9.47241E-30
 5.37231E+16  9.79961E-30
 5.36932E+16  1.01381E-29
 5.36634E+16  1.04883E-29
 5.36336E+16  1.08506E-29
 5.36038E+16  1.12254E-29
 5.35740E+16  1.16131E-29
 5.35443E+16  1.20143E-29
 5.35145E+16  1.24292E-29
 5.34848E+16  1.28586E-29
 5.34551E+16  1.33027E-29
 5.34254E+16  1.37622E-29
 5.33958E+16  1.42376E-29
 5.33661E+16  1.47294E-29
 5.33365E+16  1.52382E-29
 5.33068E+16  1.57645E-29
 5.32772E+16  1.63091E-29
 5.32476E+16  1.68724E-29
 5.32181E+16  1.74552E-29
 5.31885E+16  1.80581E-29
 5.31590E+16  1.86819E-29
 5.31294E+16  1.93272E-29
 5.30999E+16  1.99948E-29
 5.30704E+16  2.06855E-29
 5.30410E+16  2.14000E-29
 5.30115E+16  2.21392E-29
 5.29821E+16  2.29039E-29
 5.29526E+16  2.36950E-29
 5.29232E+16  2.45135E-29
 5.28938E+16  2.53602E-29
 5.28645E+16  2.62362E-29
 5.28351E+16  2.71425E-29
 5.28058E+16  2.80800E-29
 5.27764E+16  2.90499E-29
 5.27471E+16  3.00534E-29
 5.27178E+16  3.10915E-29
 5.26885E+16  3.21654E-29
 5.26593E+16  3.32765E-29
 5.26300E+16  3.44259E-29
 5.26008E+16  3.56150E-29
 5.25716E+16  3.68453E-29
 5.25424E+16  3.81180E-29
 5.25132E+16  3.94346E-29
 5.24840E+16  4.07968E-29
 5.24549E+16  4.22059E-29
 5.24258E+16  4.36638E-29
 5.23966E+16  4.51720E-29
 5.23675E+16  4.67324E-29
 5.23385E+16  4.83466E-29
 5.23094E+16  5.00165E-29
 5.22803E+16  5.17442E-29
 5.22513E+16  5.35315E-29
 5.22223E+16  5.53806E-29
 5.21933E+16  5.72936E-29
 5.21643E+16  5.92726E-29
 5.21353E+16  6.13200E-29
 5.21064E+16  6.34381E-29
 5.20774E+16  6.56293E-29
 5.20485E+16  6.78963E-29
 5.20196E+16  7.02415E-29
 5.19907E+16  7.26678E-29
 5.19618E+16  7.51779E-29
 5.19330E+16  7.77746E-29
 5.19041E+16  8.04611E-29
 5.18753E+16  8.32404E-29
 5.18465E+16  8.61157E-29
 5.18177E+16  8.90902E-29
 5.17889E+16  9.21676E-29
 5.17601E+16  9.53244E-29
 5.17314E+16  9.84855E-29
 5.17027E+16  1.01749E-28
 5.16739E+16  1.05121E-28
 5.16452E+16  1.08605E-28
 5.16166E+16  1.12204E-28
 5.15879E+16  1.15922E-28
 5.15592E+16  1.19764E-28
 5.15306E+16  1.23733E-28
 5.15020E+16  1.27834E-28
 5.14734E+16  1.32070E-28
 5.14448E+16  1.36447E-28
 5.14162E+16  1.40968E-28
 5.13877E+16  1.45640E-28
 5.13591E+16  1.50467E-28
 5.13306E+16  1.55453E-28
 5.13021E+16  1.60605E-28
 5.12736E+16  1.65927E-28
 5.12451E+16  1.71426E-28
 5.12167E+16  1.77107E-28
 5.11882E+16  1.82976E-28
 5.11598E+16  1.89040E-28
 5.11314E+16  1.95305E-28
 5.11030E+16  2.01777E-28
 5.10746E+16  2.08464E-28
 5.10462E+16  2.15372E-28
 5.10179E+16  2.22509E-28
 5.09895E+16  2.29883E-28
 5.09612E+16  2.37502E-28
 5.09329E+16  2.45372E-28
 5.09046E+16  2.53504E-28
 5.08764E+16  2.61905E-28
 5.08481E+16  2.70584E-28
 5.08199E+16  2.79551E-28
 5.07916E+16  2.88816E-28
 5.07634E+16  2.98387E-28
 5.07352E+16  3.08275E-28
 5.07071E+16  3.18492E-28
 5.06789E+16  3.29046E-28
 5.06507E+16  3.39951E-28
 5.06226E+16  3.51217E-28
 5.05945E+16  3.62856E-28
 5.05664E+16  3.74881E-28
 5.05383E+16  3.87304E-28
 5.05102E+16  4.00139E-28
 5.04822E+16  4.13400E-28
 5.04542E+16  4.27100E-28
 5.04261E+16  4.41254E-28
 5.03981E+16  4.55877E-28
 5.03701E+16  4.70984E-28
 5.03422E+16  4.86593E-28
 5.03142E+16  5.02718E-28
 5.02863E+16  5.19378E-28
 5.02583E+16  5.36590E-28
 5.02304E+16  5.54373E-28
 5.02025E+16  5.72744E-28
 5.01746E+16  5.91725E-28
 5.01468E+16  6.11334E-28
 5.01189E+16  6.31594E-28
 5.00911E+16  6.52525E-28
 5.00633E+16  6.74149E-28
 5.00354E+16  6.96490E-28
 5.00077E+16  7.19572E-28
 4.99799E+16  7.43418E-28
 4.99521E+16  7.68055E-28
 4.99244E+16  7.93508E-28
 4.98967E+16  8.19805E-28
 4.98689E+16  8.46973E-28
 4.98412E+16  8.75041E-28
 4.98136E+16  9.04040E-28
 4.97859E+16  9.33999E-28
 4.97582E+16  9.64952E-28
 4.97306E+16  9.96930E-28
 4.97030E+16  1.02997E-27
 4.96754E+16  1.06410E-27
 4.96478E+16  1.09936E-27
 4.96202E+16  1.13580E-27
 4.95927E+16  1.17344E-27
 4.95651E+16  1.21232E-27
 4.95376E+16  1.25250E-27
 4.95101E+16  1.29401E-27
 4.94826E+16  1.33689E-27
 4.94551E+16  1.38120E-27
 4.94276E+16  1.42697E-27
 4.94002E+16  1.47426E-27
 4.93727E+16  1.52311E-27
 4.93453E+16  1.57359E-27
 4.93179E+16  1.62574E-27
 4.92905E+16  1.67961E-27
 4.92631E+16  1.73513E-27
 4.92358E+16  1.79040E-27
 4.92084E+16  1.84705E-27
 4.91811E+16  1.90549E-27
 4.91538E+16  1.96579E-27
 4.91265E+16  2.02799E-27
 4.90992E+16  2.09215E-27
 4.90719E+16  2.15835E-27
 4.90447E+16  2.22665E-27
 4.90174E+16  2.29710E-27
 4.89902E+16  2.36979E-27
 4.89630E+16  2.44477E-27
 4.89358E+16  2.52212E-27
 4.89086E+16  2.60193E-27
 4.88815E+16  2.68426E-27
 4.88543E+16  2.76919E-27
 4.88272E+16  2.85681E-27
 4.88001E+16  2.94721E-27
 4.87730E+16  3.04046E-27
 4.87459E+16  3.13667E-27
 4.87188E+16  3.23591E-27
 4.86918E+16  3.33830E-27
 4.86647E+16  3.44393E-27
 4.86377E+16  3.55290E-27
 4.86107E+16  3.66532E-27
 4.85837E+16  3.78130E-27
 4.85567E+16  3.90095E-27
 4.85297E+16  4.02438E-27
 4.85028E+16  4.15171E-27
 4.84758E+16  4.28308E-27
 4.84489E+16  4.41860E-27
 4.84220E+16  4.55842E-27
 4.83951E+16  4.70265E-27
 4.83682E+16  4.85145E-27
 4.83414E+16  5.00496E-27
 4.83145E+16  5.16332E-27
 4.82877E+16  5.32670E-27
 4.82609E+16  5.49524E-27
 4.82341E+16  5.66912E-27
 4.82073E+16  5.84850E-27
 4.81805E+16  6.03355E-27
 4.81537E+16  6.22446E-27
 4.81270E+16  6.42142E-27
 4.81003E+16  6.62460E-27
 4.80735E+16  6.83421E-27
 4.80468E+16  7.05046E-27
 4.80202E+16  7.27354E-27
 4.79935E+16  7.50369E-27
 4.79668E+16  7.74112E-27
 4.79402E+16  7.98606E-27
 4.79136E+16  8.23875E-27
 4.78870E+16  8.49943E-27
 4.78604E+16  8.76837E-27
 4.78338E+16  9.04581E-27
 4.78072E+16  9.33204E-27
 4.77807E+16  9.62732E-27
 4.77541E+16  9.93194E-27
 4.77276E+16  1.02462E-26
 4.77011E+16  1.05704E-26
 4.76746E+16  1.09049E-26
 4.76481E+16  1.12499E-26
 4.76217E+16  1.16059E-26
 4.75952E+16  1.19731E-26
 4.75688E+16  1.23520E-26
 4.75424E+16  1.27428E-26
 4.75159E+16  1.31460E-26
 4.74896E+16  1.35619E-26
 4.74632E+16  1.39911E-26
 4.74368E+16  1.44338E-26
 4.74105E+16  1.48905E-26
 4.73841E+16  1.53616E-26
 4.73578E+16  1.58477E-26
 4.73315E+16  1.63491E-26
 4.73052E+16  1.68665E-26
 4.72790E+16  1.74001E-26
 4.72527E+16  1.79507E-26
 4.72265E+16  1.85187E-26
 4.72002E+16  1.91046E-26
 4.71740E+16  1.97091E-26
 4.71478E+16  2.03328E-26
 4.71216E+16  2.09761E-26
 4.70955E+16  2.16398E-26
 4.70693E+16  2.23246E-26
 4.70432E+16  2.30309E-26
 4.70170E+16  2.37597E-26
 4.69909E+16  2.45115E-26
 4.69648E+16  2.52871E-26
 4.69387E+16  2.60872E-26
 4.69127E+16  2.69126E-26
 4.68866E+16  2.77642E-26
 4.68606E+16  2.86427E-26
 4.68345E+16  2.95490E-26
 4.68085E+16  3.04839E-26
 4.67825E+16  3.14485E-26
 4.67566E+16  3.24395E-26
 4.67306E+16  3.34242E-26
 4.67046E+16  3.44336E-26
 4.66787E+16  3.54734E-26
 4.66528E+16  3.65447E-26
 4.66269E+16  3.76483E-26
 4.66010E+16  3.87852E-26
 4.65751E+16  3.99565E-26
 4.65492E+16  4.11632E-26
 4.65234E+16  4.24063E-26
 4.64975E+16  4.36869E-26
 4.64717E+16  4.50062E-26
 4.64459E+16  4.63653E-26
 4.64201E+16  4.77655E-26
 4.63943E+16  4.92080E-26
 4.63685E+16  5.06940E-26
 4.63428E+16  5.22249E-26
 4.63170E+16  5.38021E-26
 4.62913E+16  5.54268E-26
 4.62656E+16  5.71007E-26
 4.62399E+16  5.88251E-26
 4.62142E+16  6.06015E-26
 4.61886E+16  6.24316E-26
 4.61629E+16  6.43170E-26
 4.61373E+16  6.62593E-26
 4.61116E+16  6.82603E-26
 4.60860E+16  7.03217E-26
 4.60604E+16  7.24453E-26
 4.60349E+16  7.46331E-26
 4.60093E+16  7.68869E-26
 4.59837E+16  7.92089E-26
 4.59582E+16  8.16009E-26
 4.59327E+16  8.40652E-26
 4.59072E+16  8.66038E-26
 4.58817E+16  8.92192E-26
 4.58562E+16  9.19135E-26
 4.58307E+16  9.46892E-26
 4.58053E+16  9.75487E-26
 4.57798E+16  1.00495E-25
 4.57544E+16  1.03529E-25
 4.57290E+16  1.06656E-25
 4.57036E+16  1.09877E-25
 4.56782E+16  1.13195E-25
 4.56528E+16  1.16613E-25
 4.56275E+16  1.20135E-25
 4.56021E+16  1.23763E-25
 4.55768E+16  1.27500E-25
 4.55515E+16  1.31351E-25
 4.55262E+16  1.35318E-25
 4.55009E+16  1.39404E-25
 4.54756E+16  1.43614E-25
 4.54504E+16  1.47951E-25
 4.54251E+16  1.52419E-25
 4.53999E+16  1.57022E-25
 4.53747E+16  1.61764E-25
 4.53495E+16  1.66649E-25
 4.53243E+16  1.71681E-25
 4.52991E+16  1.76866E-25
 4.52740E+16  1.82207E-25
 4.52488E+16  1.87710E-25
 4.52237E+16  1.93378E-25
 4.51986E+16  1.99218E-25
 4.51735E+16  2.05234E-25
 4.51484E+16  2.11432E-25
 4.51233E+16  2.17817E-25
 4.50983E+16  2.24395E-25
 4.50732E+16  2.31172E-25
 4.50482E+16  2.38153E-25
 4.50232E+16  2.45345E-25
 4.49981E+16  2.52754E-25
 4.49732E+16  2.60387E-25
 4.49482E+16  2.68250E-25
 4.49232E+16  2.76351E-25
 4.48983E+16  2.84697E-25
 4.48733E+16  2.93294E-25
 4.48484E+16  3.02152E-25
 4.48235E+16  3.11276E-25
 4.47986E+16  3.20676E-25
 4.47737E+16  3.30361E-25
 4.47489E+16  3.40337E-25
 4.47240E+16  3.50615E-25
 4.46992E+16  3.61203E-25
 4.46743E+16  3.72111E-25
 4.46495E+16  3.83349E-25
 4.46247E+16  3.94925E-25
 4.45999E+16  4.06852E-25
 4.45752E+16  4.19138E-25
 4.45504E+16  4.31796E-25
 4.45257E+16  4.44836E-25
 4.45009E+16  4.58269E-25
 4.44762E+16  4.72108E-25
 4.44515E+16  4.86366E-25
 4.44268E+16  5.01053E-25
 4.44022E+16  5.16185E-25
 4.43775E+16  5.31773E-25
 4.43528E+16  5.47832E-25
 4.43282E+16  5.64376E-25
 4.43036E+16  5.81420E-25
 4.42790E+16  5.98978E-25
 4.42544E+16  6.17036E-25
 4.42298E+16  6.35033E-25
 4.42053E+16  6.53423E-25
 4.41807E+16  6.72345E-25
 4.41562E+16  6.91816E-25
 4.41316E+16  7.11850E-25
 4.41071E+16  7.32465E-25
 4.40826E+16  7.53676E-25
 4.40581E+16  7.75502E-25
 4.40337E+16  7.97960E-25
 4.40092E+16  8.21068E-25
 4.39848E+16  8.44846E-25
 4.39604E+16  8.69311E-25
 4.39359E+16  8.94486E-25
 4.39115E+16  9.20389E-25
 4.38871E+16  9.47043E-25
 4.38628E+16  9.74469E-25
 4.38384E+16  1.00269E-24
 4.38141E+16  1.03173E-24
 4.37897E+16  1.06160E-24
 4.37654E+16  1.09235E-24
 4.37411E+16  1.12398E-24
 4.37168E+16  1.15653E-24
