 TLUSTY Ostars, Lanz & Hubeny 2003
 T 45000. G 4.75000 M15 TLUSTY
 Frequency   Eddington Hnu
   (Hz)    (ergs/s/cm2/Hz/sr)
 6.67944E+16  2.87008E-37
 6.67573E+16  2.97546E-37
 6.67202E+16  3.12211E-37
 6.66831E+16  3.27598E-37
 6.66461E+16  3.43744E-37
 6.66091E+16  3.60686E-37
 6.65721E+16  3.78462E-37
 6.65351E+16  3.97115E-37
 6.64982E+16  4.16687E-37
 6.64612E+16  4.37224E-37
 6.64243E+16  4.58773E-37
 6.63874E+16  4.81384E-37
 6.63506E+16  5.05109E-37
 6.63137E+16  5.30004E-37
 6.62769E+16  5.56125E-37
 6.62401E+16  5.83534E-37
 6.62033E+16  6.12294E-37
 6.61665E+16  6.42471E-37
 6.61298E+16  6.74136E-37
 6.60930E+16  7.07361E-37
 6.60563E+16  7.42224E-37
 6.60196E+16  7.78805E-37
 6.59830E+16  8.17189E-37
 6.59463E+16  8.57465E-37
 6.59097E+16  8.99725E-37
 6.58731E+16  9.44069E-37
 6.58365E+16  9.90598E-37
 6.57999E+16  1.03942E-36
 6.57634E+16  1.09065E-36
 6.57269E+16  1.14440E-36
 6.56904E+16  1.20080E-36
 6.56539E+16  1.25999E-36
 6.56174E+16  1.32209E-36
 6.55810E+16  1.38725E-36
 6.55445E+16  1.45562E-36
 6.55081E+16  1.52736E-36
 6.54718E+16  1.60264E-36
 6.54354E+16  1.68162E-36
 6.53991E+16  1.76450E-36
 6.53627E+16  1.85147E-36
 6.53264E+16  1.94272E-36
 6.52901E+16  2.03847E-36
 6.52539E+16  2.13893E-36
 6.52176E+16  2.24435E-36
 6.51814E+16  2.35497E-36
 6.51452E+16  2.47103E-36
 6.51090E+16  2.59282E-36
 6.50729E+16  2.72061E-36
 6.50367E+16  2.85469E-36
 6.50006E+16  2.99539E-36
 6.49645E+16  3.14302E-36
 6.49284E+16  3.29793E-36
 6.48924E+16  3.46047E-36
 6.48563E+16  3.63102E-36
 6.48203E+16  3.80997E-36
 6.47843E+16  3.99775E-36
 6.47483E+16  4.19478E-36
 6.47124E+16  4.40153E-36
 6.46764E+16  4.61846E-36
 6.46405E+16  4.84608E-36
 6.46046E+16  5.08492E-36
 6.45687E+16  5.33554E-36
 6.45329E+16  5.59850E-36
 6.44970E+16  5.87443E-36
 6.44612E+16  6.16395E-36
 6.44254E+16  6.46775E-36
 6.43896E+16  6.78652E-36
 6.43539E+16  7.12099E-36
 6.43181E+16  7.47196E-36
 6.42824E+16  7.83719E-36
 6.42467E+16  8.20761E-36
 6.42110E+16  8.59555E-36
 6.41753E+16  9.00183E-36
 6.41397E+16  9.42731E-36
 6.41041E+16  9.87290E-36
 6.40685E+16  1.03396E-35
 6.40329E+16  1.08283E-35
 6.39973E+16  1.13401E-35
 6.39618E+16  1.18761E-35
 6.39263E+16  1.24374E-35
 6.38908E+16  1.30253E-35
 6.38553E+16  1.36409E-35
 6.38198E+16  1.42857E-35
 6.37844E+16  1.49609E-35
 6.37489E+16  1.56681E-35
 6.37135E+16  1.64086E-35
 6.36781E+16  1.71842E-35
 6.36428E+16  1.79964E-35
 6.36074E+16  1.88470E-35
 6.35721E+16  1.97379E-35
 6.35368E+16  2.06708E-35
 6.35015E+16  2.16478E-35
 6.34662E+16  2.26710E-35
 6.34310E+16  2.37426E-35
 6.33958E+16  2.48648E-35
 6.33605E+16  2.60401E-35
 6.33254E+16  2.72709E-35
 6.32902E+16  2.85599E-35
 6.32550E+16  2.99098E-35
 6.32199E+16  3.13235E-35
 6.31848E+16  3.28041E-35
 6.31497E+16  3.43546E-35
 6.31146E+16  3.59784E-35
 6.30796E+16  3.76789E-35
 6.30445E+16  3.94599E-35
 6.30095E+16  4.13250E-35
 6.29745E+16  4.32783E-35
 6.29395E+16  4.53239E-35
 6.29046E+16  4.74661E-35
 6.28697E+16  4.97097E-35
 6.28347E+16  5.20593E-35
 6.27998E+16  5.45199E-35
 6.27650E+16  5.70968E-35
 6.27301E+16  5.97956E-35
 6.26953E+16  6.26219E-35
 6.26604E+16  6.55818E-35
 6.26256E+16  6.86816E-35
 6.25909E+16  7.19279E-35
 6.25561E+16  7.53276E-35
 6.25213E+16  7.88881E-35
 6.24866E+16  8.26168E-35
 6.24519E+16  8.65218E-35
 6.24172E+16  9.06113E-35
 6.23826E+16  9.48941E-35
 6.23479E+16  9.93794E-35
 6.23133E+16  1.04077E-34
 6.22787E+16  1.08996E-34
 6.22441E+16  1.14148E-34
 6.22095E+16  1.19543E-34
 6.21750E+16  1.25193E-34
 6.21404E+16  1.31111E-34
 6.21059E+16  1.37308E-34
 6.20714E+16  1.43798E-34
 6.20370E+16  1.50595E-34
 6.20025E+16  1.57713E-34
 6.19681E+16  1.65167E-34
 6.19337E+16  1.72974E-34
 6.18993E+16  1.81150E-34
 6.18649E+16  1.89712E-34
 6.18305E+16  1.98679E-34
 6.17962E+16  2.08082E-34
 6.17619E+16  2.17621E-34
 6.17276E+16  2.27463E-34
 6.16933E+16  2.37751E-34
 6.16590E+16  2.48504E-34
 6.16248E+16  2.59743E-34
 6.15905E+16  2.71491E-34
 6.15563E+16  2.83770E-34
 6.15221E+16  2.96604E-34
 6.14880E+16  3.10019E-34
 6.14538E+16  3.24041E-34
 6.14197E+16  3.38696E-34
 6.13856E+16  3.54015E-34
 6.13515E+16  3.70026E-34
 6.13174E+16  3.86762E-34
 6.12834E+16  4.04254E-34
 6.12493E+16  4.22538E-34
 6.12153E+16  4.41648E-34
 6.11813E+16  4.61623E-34
 6.11473E+16  4.82501E-34
 6.11134E+16  5.04324E-34
 6.10794E+16  5.27133E-34
 6.10455E+16  5.50975E-34
 6.10116E+16  5.75894E-34
 6.09777E+16  6.01940E-34
 6.09438E+16  6.29165E-34
 6.09100E+16  6.57621E-34
 6.08762E+16  6.87364E-34
 6.08423E+16  7.18452E-34
 6.08086E+16  7.50946E-34
 6.07748E+16  7.84909E-34
 6.07410E+16  8.20409E-34
 6.07073E+16  8.57515E-34
 6.06736E+16  8.96298E-34
 6.06399E+16  9.36836E-34
 6.06062E+16  9.79207E-34
 6.05725E+16  1.02349E-33
 6.05389E+16  1.06979E-33
 6.05053E+16  1.11817E-33
 6.04717E+16  1.16874E-33
 6.04381E+16  1.22160E-33
 6.04045E+16  1.27685E-33
 6.03710E+16  1.33460E-33
 6.03374E+16  1.39496E-33
 6.03039E+16  1.45805E-33
 6.02704E+16  1.52400E-33
 6.02370E+16  1.59293E-33
 6.02035E+16  1.66497E-33
 6.01701E+16  1.74027E-33
 6.01366E+16  1.81898E-33
 6.01032E+16  1.90125E-33
 6.00699E+16  1.98724E-33
 6.00365E+16  2.07712E-33
 6.00032E+16  2.17106E-33
 5.99698E+16  2.26926E-33
 5.99365E+16  2.37189E-33
 5.99032E+16  2.47917E-33
 5.98700E+16  2.59129E-33
 5.98367E+16  2.70849E-33
 5.98035E+16  2.83099E-33
 5.97703E+16  2.95903E-33
 5.97371E+16  3.09286E-33
 5.97039E+16  3.23275E-33
 5.96707E+16  3.37896E-33
 5.96376E+16  3.53178E-33
 5.96045E+16  3.69152E-33
 5.95714E+16  3.85847E-33
 5.95383E+16  4.03299E-33
 5.95052E+16  4.21539E-33
 5.94722E+16  4.40604E-33
 5.94391E+16  4.60532E-33
 5.94061E+16  4.81361E-33
 5.93731E+16  5.03132E-33
 5.93402E+16  5.25887E-33
 5.93072E+16  5.49672E-33
 5.92743E+16  5.74318E-33
 5.92413E+16  5.99132E-33
 5.92084E+16  6.25000E-33
 5.91755E+16  6.51984E-33
 5.91427E+16  6.80134E-33
 5.91098E+16  7.09498E-33
 5.90770E+16  7.40131E-33
 5.90442E+16  7.72086E-33
 5.90114E+16  8.05421E-33
 5.89786E+16  8.40195E-33
 5.89459E+16  8.76470E-33
 5.89131E+16  9.14312E-33
 5.88804E+16  9.53787E-33
 5.88477E+16  9.94967E-33
 5.88150E+16  1.03792E-32
 5.87824E+16  1.08274E-32
 5.87497E+16  1.12948E-32
 5.87171E+16  1.17825E-32
 5.86845E+16  1.22912E-32
 5.86519E+16  1.28219E-32
 5.86193E+16  1.33755E-32
 5.85867E+16  1.39530E-32
 5.85542E+16  1.45554E-32
 5.85217E+16  1.51838E-32
 5.84892E+16  1.58394E-32
 5.84567E+16  1.65232E-32
 5.84242E+16  1.72366E-32
 5.83918E+16  1.79808E-32
 5.83594E+16  1.87571E-32
 5.83269E+16  1.95670E-32
 5.82945E+16  2.04118E-32
 5.82622E+16  2.12930E-32
 5.82298E+16  2.22124E-32
 5.81975E+16  2.31714E-32
 5.81651E+16  2.41718E-32
 5.81328E+16  2.52154E-32
 5.81006E+16  2.63041E-32
 5.80683E+16  2.74398E-32
 5.80360E+16  2.86245E-32
 5.80038E+16  2.98604E-32
 5.79716E+16  3.11496E-32
 5.79394E+16  3.24945E-32
 5.79072E+16  3.38974E-32
 5.78750E+16  3.53609E-32
 5.78429E+16  3.68877E-32
 5.78108E+16  3.84803E-32
 5.77787E+16  4.01417E-32
 5.77466E+16  4.18748E-32
 5.77145E+16  4.36827E-32
 5.76825E+16  4.55687E-32
 5.76504E+16  4.75362E-32
 5.76184E+16  4.95885E-32
 5.75864E+16  5.17295E-32
 5.75544E+16  5.39629E-32
 5.75224E+16  5.62928E-32
 5.74905E+16  5.87232E-32
 5.74586E+16  6.12586E-32
 5.74267E+16  6.39034E-32
 5.73948E+16  6.66625E-32
 5.73629E+16  6.95406E-32
 5.73310E+16  7.25430E-32
 5.72992E+16  7.56751E-32
 5.72674E+16  7.89424E-32
 5.72356E+16  8.23507E-32
 5.72038E+16  8.59062E-32
 5.71720E+16  8.96152E-32
 5.71402E+16  9.34843E-32
 5.71085E+16  9.75205E-32
 5.70768E+16  1.01731E-31
 5.70451E+16  1.06123E-31
 5.70134E+16  1.10705E-31
 5.69817E+16  1.15485E-31
 5.69501E+16  1.20471E-31
 5.69185E+16  1.25672E-31
 5.68869E+16  1.31098E-31
 5.68553E+16  1.36758E-31
 5.68237E+16  1.42663E-31
 5.67921E+16  1.48822E-31
 5.67606E+16  1.55116E-31
 5.67291E+16  1.61485E-31
 5.66975E+16  1.68127E-31
 5.66661E+16  1.75041E-31
 5.66346E+16  1.82240E-31
 5.66031E+16  1.89736E-31
 5.65717E+16  1.97539E-31
 5.65403E+16  2.05663E-31
 5.65089E+16  2.14122E-31
 5.64775E+16  2.22928E-31
 5.64461E+16  2.32097E-31
 5.64148E+16  2.41642E-31
 5.63834E+16  2.51581E-31
 5.63521E+16  2.61928E-31
 5.63208E+16  2.72700E-31
 5.62895E+16  2.83916E-31
 5.62583E+16  2.95592E-31
 5.62270E+16  3.07749E-31
 5.61958E+16  3.20406E-31
 5.61646E+16  3.33584E-31
 5.61334E+16  3.47304E-31
 5.61022E+16  3.61587E-31
 5.60711E+16  3.76459E-31
 5.60399E+16  3.91942E-31
 5.60088E+16  4.08061E-31
 5.59777E+16  4.24844E-31
 5.59466E+16  4.42317E-31
 5.59155E+16  4.60508E-31
 5.58845E+16  4.79448E-31
 5.58534E+16  4.99167E-31
 5.58224E+16  5.19696E-31
 5.57914E+16  5.41070E-31
 5.57604E+16  5.63323E-31
 5.57295E+16  5.86492E-31
 5.56985E+16  6.10613E-31
 5.56676E+16  6.35726E-31
 5.56367E+16  6.61872E-31
 5.56058E+16  6.89093E-31
 5.55749E+16  7.17434E-31
 5.55440E+16  7.46940E-31
 5.55132E+16  7.77660E-31
 5.54823E+16  8.09644E-31
 5.54515E+16  8.42943E-31
 5.54207E+16  8.77611E-31
 5.53899E+16  9.13705E-31
 5.53592E+16  9.51284E-31
 5.53284E+16  9.90408E-31
 5.52977E+16  1.03114E-30
 5.52670E+16  1.07355E-30
 5.52363E+16  1.11770E-30
 5.52056E+16  1.16367E-30
 5.51749E+16  1.21153E-30
 5.51443E+16  1.26136E-30
 5.51137E+16  1.31323E-30
 5.50831E+16  1.36725E-30
 5.50525E+16  1.42348E-30
 5.50219E+16  1.48202E-30
 5.49913E+16  1.54297E-30
 5.49608E+16  1.60643E-30
 5.49303E+16  1.67250E-30
 5.48998E+16  1.74129E-30
 5.48693E+16  1.81290E-30
 5.48388E+16  1.88746E-30
 5.48083E+16  1.96509E-30
 5.47779E+16  2.04591E-30
 5.47475E+16  2.13005E-30
 5.47171E+16  2.21766E-30
 5.46867E+16  2.30887E-30
 5.46563E+16  2.40383E-30
 5.46259E+16  2.50269E-30
 5.45956E+16  2.60562E-30
 5.45653E+16  2.71278E-30
 5.45350E+16  2.82435E-30
 5.45047E+16  2.94051E-30
 5.44744E+16  3.06145E-30
 5.44442E+16  3.18736E-30
 5.44139E+16  3.31845E-30
 5.43837E+16  3.45493E-30
 5.43535E+16  3.59702E-30
 5.43233E+16  3.74496E-30
 5.42931E+16  3.89898E-30
 5.42630E+16  4.05735E-30
 5.42328E+16  4.21592E-30
 5.42027E+16  4.38068E-30
 5.41726E+16  4.55187E-30
 5.41425E+16  4.72976E-30
 5.41125E+16  4.91459E-30
 5.40824E+16  5.10665E-30
 5.40524E+16  5.30622E-30
 5.40224E+16  5.51358E-30
 5.39923E+16  5.72905E-30
 5.39624E+16  5.95293E-30
 5.39324E+16  6.18557E-30
 5.39024E+16  6.42730E-30
 5.38725E+16  6.67847E-30
 5.38426E+16  6.93946E-30
 5.38127E+16  7.21065E-30
 5.37828E+16  7.49244E-30
 5.37529E+16  7.78524E-30
 5.37231E+16  8.08948E-30
 5.36932E+16  8.40561E-30
 5.36634E+16  8.73410E-30
 5.36336E+16  9.07542E-30
 5.36038E+16  9.43008E-30
 5.35740E+16  9.79861E-30
 5.35443E+16  1.01815E-29
 5.35145E+16  1.05794E-29
 5.34848E+16  1.09929E-29
 5.34551E+16  1.14224E-29
 5.34254E+16  1.18688E-29
 5.33958E+16  1.23327E-29
 5.33661E+16  1.28146E-29
 5.33365E+16  1.33154E-29
 5.33068E+16  1.38357E-29
 5.32772E+16  1.43764E-29
 5.32476E+16  1.49383E-29
 5.32181E+16  1.55220E-29
 5.31885E+16  1.61286E-29
 5.31590E+16  1.67589E-29
 5.31294E+16  1.74139E-29
 5.30999E+16  1.80944E-29
 5.30704E+16  1.88015E-29
 5.30410E+16  1.95362E-29
 5.30115E+16  2.02997E-29
 5.29821E+16  2.10930E-29
 5.29526E+16  2.19173E-29
 5.29232E+16  2.27738E-29
 5.28938E+16  2.36638E-29
 5.28645E+16  2.45886E-29
 5.28351E+16  2.55495E-29
 5.28058E+16  2.65479E-29
 5.27764E+16  2.75854E-29
 5.27471E+16  2.86634E-29
 5.27178E+16  2.97836E-29
 5.26885E+16  3.09475E-29
 5.26593E+16  3.21569E-29
 5.26300E+16  3.34136E-29
 5.26008E+16  3.47194E-29
 5.25716E+16  3.60762E-29
 5.25424E+16  3.74860E-29
 5.25132E+16  3.89509E-29
 5.24840E+16  4.04731E-29
 5.24549E+16  4.20548E-29
 5.24258E+16  4.36982E-29
 5.23966E+16  4.54059E-29
 5.23675E+16  4.71804E-29
 5.23385E+16  4.90242E-29
 5.23094E+16  5.09400E-29
 5.22803E+16  5.29307E-29
 5.22513E+16  5.49992E-29
 5.22223E+16  5.71485E-29
 5.21933E+16  5.93819E-29
 5.21643E+16  6.17025E-29
 5.21353E+16  6.41137E-29
 5.21064E+16  6.66193E-29
 5.20774E+16  6.92227E-29
 5.20485E+16  7.19279E-29
 5.20196E+16  7.47388E-29
 5.19907E+16  7.76595E-29
 5.19618E+16  8.06944E-29
 5.19330E+16  8.38479E-29
 5.19041E+16  8.71246E-29
 5.18753E+16  9.05294E-29
 5.18465E+16  9.40672E-29
 5.18177E+16  9.77433E-29
 5.17889E+16  1.01563E-28
 5.17601E+16  1.05488E-28
 5.17314E+16  1.09399E-28
 5.17027E+16  1.13450E-28
 5.16739E+16  1.17651E-28
 5.16452E+16  1.22008E-28
 5.16166E+16  1.26526E-28
 5.15879E+16  1.31212E-28
 5.15592E+16  1.36071E-28
 5.15306E+16  1.41110E-28
 5.15020E+16  1.46336E-28
 5.14734E+16  1.51755E-28
 5.14448E+16  1.57375E-28
 5.14162E+16  1.63202E-28
 5.13877E+16  1.69246E-28
 5.13591E+16  1.75514E-28
 5.13306E+16  1.82013E-28
 5.13021E+16  1.88754E-28
 5.12736E+16  1.95744E-28
 5.12451E+16  2.02992E-28
 5.12167E+16  2.10510E-28
 5.11882E+16  2.18305E-28
 5.11598E+16  2.26390E-28
 5.11314E+16  2.34773E-28
 5.11030E+16  2.43467E-28
 5.10746E+16  2.52484E-28
 5.10462E+16  2.61834E-28
 5.10179E+16  2.71530E-28
 5.09895E+16  2.81585E-28
 5.09612E+16  2.92013E-28
 5.09329E+16  3.02827E-28
 5.09046E+16  3.14041E-28
 5.08764E+16  3.25670E-28
 5.08481E+16  3.37731E-28
 5.08199E+16  3.50238E-28
 5.07916E+16  3.63208E-28
 5.07634E+16  3.76658E-28
 5.07352E+16  3.90606E-28
 5.07071E+16  4.05071E-28
 5.06789E+16  4.20072E-28
 5.06507E+16  4.35628E-28
 5.06226E+16  4.51760E-28
 5.05945E+16  4.68490E-28
 5.05664E+16  4.85839E-28
 5.05383E+16  5.03831E-28
 5.05102E+16  5.22489E-28
 5.04822E+16  5.41838E-28
 5.04542E+16  5.61903E-28
 5.04261E+16  5.82711E-28
 5.03981E+16  6.04290E-28
 5.03701E+16  6.26669E-28
 5.03422E+16  6.49875E-28
 5.03142E+16  6.73942E-28
 5.02863E+16  6.98899E-28
 5.02583E+16  7.24781E-28
 5.02304E+16  7.51621E-28
 5.02025E+16  7.79455E-28
 5.01746E+16  8.08320E-28
 5.01468E+16  8.38254E-28
 5.01189E+16  8.69296E-28
 5.00911E+16  9.01488E-28
 5.00633E+16  9.34872E-28
 5.00354E+16  9.69492E-28
 5.00077E+16  1.00539E-27
 4.99799E+16  1.04263E-27
 4.99521E+16  1.08124E-27
 4.99244E+16  1.12128E-27
 4.98967E+16  1.16280E-27
 4.98689E+16  1.20586E-27
 4.98412E+16  1.25052E-27
 4.98136E+16  1.29683E-27
 4.97859E+16  1.34485E-27
 4.97582E+16  1.39465E-27
 4.97306E+16  1.44630E-27
 4.97030E+16  1.49986E-27
 4.96754E+16  1.55540E-27
 4.96478E+16  1.61300E-27
 4.96202E+16  1.67274E-27
 4.95927E+16  1.73468E-27
 4.95651E+16  1.79892E-27
 4.95376E+16  1.86554E-27
 4.95101E+16  1.93462E-27
 4.94826E+16  2.00626E-27
 4.94551E+16  2.08056E-27
 4.94276E+16  2.15761E-27
 4.94002E+16  2.23751E-27
 4.93727E+16  2.32037E-27
 4.93453E+16  2.40630E-27
 4.93179E+16  2.49541E-27
 4.92905E+16  2.58782E-27
 4.92631E+16  2.68333E-27
 4.92358E+16  2.77802E-27
 4.92084E+16  2.87523E-27
 4.91811E+16  2.97584E-27
 4.91538E+16  3.07998E-27
 4.91265E+16  3.18776E-27
 4.90992E+16  3.29931E-27
 4.90719E+16  3.41477E-27
 4.90447E+16  3.53426E-27
 4.90174E+16  3.65794E-27
 4.89902E+16  3.78595E-27
 4.89630E+16  3.91843E-27
 4.89358E+16  4.05555E-27
 4.89086E+16  4.19747E-27
 4.88815E+16  4.34436E-27
 4.88543E+16  4.49638E-27
 4.88272E+16  4.65373E-27
 4.88001E+16  4.81658E-27
 4.87730E+16  4.98513E-27
 4.87459E+16  5.15958E-27
 4.87188E+16  5.34013E-27
 4.86918E+16  5.52700E-27
 4.86647E+16  5.72041E-27
 4.86377E+16  5.92059E-27
 4.86107E+16  6.12778E-27
 4.85837E+16  6.34221E-27
 4.85567E+16  6.56415E-27
 4.85297E+16  6.79385E-27
 4.85028E+16  7.03159E-27
 4.84758E+16  7.27766E-27
 4.84489E+16  7.53233E-27
 4.84220E+16  7.79591E-27
 4.83951E+16  8.06872E-27
 4.83682E+16  8.35108E-27
 4.83414E+16  8.64331E-27
 4.83145E+16  8.94578E-27
 4.82877E+16  9.25882E-27
 4.82609E+16  9.58282E-27
 4.82341E+16  9.91816E-27
 4.82073E+16  1.02652E-26
 4.81805E+16  1.06245E-26
 4.81537E+16  1.09962E-26
 4.81270E+16  1.13810E-26
 4.81003E+16  1.17793E-26
 4.80735E+16  1.21915E-26
 4.80468E+16  1.26181E-26
 4.80202E+16  1.30597E-26
 4.79935E+16  1.35167E-26
 4.79668E+16  1.39897E-26
 4.79402E+16  1.44793E-26
 4.79136E+16  1.49859E-26
 4.78870E+16  1.55104E-26
 4.78604E+16  1.60531E-26
 4.78338E+16  1.66149E-26
 4.78072E+16  1.71963E-26
 4.77807E+16  1.77981E-26
 4.77541E+16  1.84209E-26
 4.77276E+16  1.90655E-26
 4.77011E+16  1.97327E-26
 4.76746E+16  2.04232E-26
 4.76481E+16  2.11379E-26
 4.76217E+16  2.18776E-26
 4.75952E+16  2.26432E-26
 4.75688E+16  2.34355E-26
 4.75424E+16  2.42556E-26
 4.75159E+16  2.51044E-26
 4.74896E+16  2.59829E-26
 4.74632E+16  2.68922E-26
 4.74368E+16  2.78332E-26
 4.74105E+16  2.88072E-26
 4.73841E+16  2.98153E-26
 4.73578E+16  3.08586E-26
 4.73315E+16  3.19385E-26
 4.73052E+16  3.30562E-26
 4.72790E+16  3.42129E-26
 4.72527E+16  3.54102E-26
 4.72265E+16  3.66493E-26
 4.72002E+16  3.79318E-26
 4.71740E+16  3.92592E-26
 4.71478E+16  4.06330E-26
 4.71216E+16  4.20549E-26
 4.70955E+16  4.35266E-26
 4.70693E+16  4.50497E-26
 4.70432E+16  4.66262E-26
 4.70170E+16  4.82578E-26
 4.69909E+16  4.99465E-26
 4.69648E+16  5.16943E-26
 4.69387E+16  5.35033E-26
 4.69127E+16  5.53756E-26
 4.68866E+16  5.73134E-26
 4.68606E+16  5.93190E-26
 4.68345E+16  6.13948E-26
 4.68085E+16  6.35433E-26
 4.67825E+16  6.57669E-26
 4.67566E+16  6.80557E-26
 4.67306E+16  7.03133E-26
 4.67046E+16  7.26298E-26
 4.66787E+16  7.50226E-26
 4.66528E+16  7.74942E-26
 4.66269E+16  8.00472E-26
 4.66010E+16  8.26844E-26
 4.65751E+16  8.54084E-26
 4.65492E+16  8.82222E-26
 4.65234E+16  9.11286E-26
 4.64975E+16  9.41308E-26
 4.64717E+16  9.72320E-26
 4.64459E+16  1.00435E-25
 4.64201E+16  1.03744E-25
 4.63943E+16  1.07162E-25
 4.63685E+16  1.10692E-25
 4.63428E+16  1.14339E-25
 4.63170E+16  1.18106E-25
 4.62913E+16  1.21997E-25
 4.62656E+16  1.26016E-25
 4.62399E+16  1.30168E-25
 4.62142E+16  1.34456E-25
 4.61886E+16  1.38886E-25
 4.61629E+16  1.43461E-25
 4.61373E+16  1.48188E-25
 4.61116E+16  1.53070E-25
 4.60860E+16  1.58112E-25
 4.60604E+16  1.63321E-25
 4.60349E+16  1.68702E-25
 4.60093E+16  1.74260E-25
 4.59837E+16  1.80001E-25
 4.59582E+16  1.85931E-25
 4.59327E+16  1.92056E-25
 4.59072E+16  1.98384E-25
 4.58817E+16  2.04919E-25
 4.58562E+16  2.11670E-25
 4.58307E+16  2.18644E-25
 4.58053E+16  2.25847E-25
 4.57798E+16  2.33288E-25
 4.57544E+16  2.40973E-25
 4.57290E+16  2.48912E-25
 4.57036E+16  2.57112E-25
 4.56782E+16  2.65583E-25
 4.56528E+16  2.74332E-25
 4.56275E+16  2.83370E-25
 4.56021E+16  2.92706E-25
 4.55768E+16  3.02349E-25
 4.55515E+16  3.12310E-25
 4.55262E+16  3.22599E-25
 4.55009E+16  3.33227E-25
 4.54756E+16  3.44205E-25
 4.54504E+16  3.55545E-25
 4.54251E+16  3.67258E-25
 4.53999E+16  3.79357E-25
 4.53747E+16  3.91855E-25
 4.53495E+16  4.04765E-25
 4.53243E+16  4.18100E-25
 4.52991E+16  4.31874E-25
 4.52740E+16  4.46102E-25
 4.52488E+16  4.60799E-25
 4.52237E+16  4.75980E-25
 4.51986E+16  4.91661E-25
 4.51735E+16  5.07858E-25
 4.51484E+16  5.24590E-25
 4.51233E+16  5.41872E-25
 4.50983E+16  5.59724E-25
 4.50732E+16  5.78164E-25
 4.50482E+16  5.97212E-25
 4.50232E+16  6.16887E-25
 4.49981E+16  6.37210E-25
 4.49732E+16  6.58203E-25
 4.49482E+16  6.79887E-25
 4.49232E+16  7.02286E-25
 4.48983E+16  7.25423E-25
 4.48733E+16  7.49322E-25
 4.48484E+16  7.74008E-25
 4.48235E+16  7.99507E-25
 4.47986E+16  8.25847E-25
 4.47737E+16  8.53054E-25
 4.47489E+16  8.81158E-25
 4.47240E+16  9.10188E-25
 4.46992E+16  9.40174E-25
 4.46743E+16  9.71148E-25
 4.46495E+16  1.00314E-24
 4.46247E+16  1.03619E-24
 4.45999E+16  1.07033E-24
 4.45752E+16  1.10559E-24
 4.45504E+16  1.14201E-24
 4.45257E+16  1.17964E-24
 4.45009E+16  1.21850E-24
 4.44762E+16  1.25864E-24
 4.44515E+16  1.30011E-24
 4.44268E+16  1.34294E-24
 4.44022E+16  1.38718E-24
 4.43775E+16  1.43288E-24
 4.43528E+16  1.48009E-24
 4.43282E+16  1.52885E-24
 4.43036E+16  1.57922E-24
 4.42790E+16  1.63125E-24
 4.42544E+16  1.68482E-24
 4.42298E+16  1.73742E-24
 4.42053E+16  1.79103E-24
 4.41807E+16  1.84629E-24
 4.41562E+16  1.90326E-24
 4.41316E+16  1.96199E-24
 4.41071E+16  2.02253E-24
 4.40826E+16  2.08493E-24
 4.40581E+16  2.14927E-24
 4.40337E+16  2.21558E-24
 4.40092E+16  2.28395E-24
 4.39848E+16  2.35442E-24
 4.39604E+16  2.42707E-24
 4.39359E+16  2.50196E-24
 4.39115E+16  2.57915E-24
 4.38871E+16  2.65874E-24
 4.38628E+16  2.74077E-24
 4.38384E+16  2.82534E-24
 4.38141E+16  2.91252E-24
 4.37897E+16  3.00239E-24
 4.37654E+16  3.09503E-24
 4.37411E+16  3.19053E-24
 4.37168E+16  3.28897E-24
