 TLUSTY Ostars, Lanz & Hubeny 2003
 T 37500. G 3.75000 M15 TLUSTY
 Frequency   Eddington Hnu
   (Hz)    (ergs/s/cm2/Hz/sr)
 6.67944E+16  2.97689E-43
 6.67573E+16  3.09855E-43
 6.67202E+16  3.26865E-43
 6.66831E+16  3.44809E-43
 6.66461E+16  3.63737E-43
 6.66091E+16  3.83705E-43
 6.65721E+16  4.04770E-43
 6.65351E+16  4.26990E-43
 6.64982E+16  4.50430E-43
 6.64612E+16  4.75158E-43
 6.64243E+16  5.01242E-43
 6.63874E+16  5.28759E-43
 6.63506E+16  5.57786E-43
 6.63137E+16  5.88406E-43
 6.62769E+16  6.20708E-43
 6.62401E+16  6.54783E-43
 6.62033E+16  6.90728E-43
 6.61665E+16  7.28647E-43
 6.61298E+16  7.68647E-43
 6.60930E+16  8.10843E-43
 6.60563E+16  8.55356E-43
 6.60196E+16  9.02312E-43
 6.59830E+16  9.51846E-43
 6.59463E+16  1.00410E-42
 6.59097E+16  1.05922E-42
 6.58731E+16  1.11737E-42
 6.58365E+16  1.17871E-42
 6.57999E+16  1.24342E-42
 6.57634E+16  1.31167E-42
 6.57269E+16  1.38368E-42
 6.56904E+16  1.45964E-42
 6.56539E+16  1.53977E-42
 6.56174E+16  1.62430E-42
 6.55810E+16  1.71347E-42
 6.55445E+16  1.80753E-42
 6.55081E+16  1.90676E-42
 6.54718E+16  2.01143E-42
 6.54354E+16  2.12185E-42
 6.53991E+16  2.23834E-42
 6.53627E+16  2.36121E-42
 6.53264E+16  2.49084E-42
 6.52901E+16  2.62758E-42
 6.52539E+16  2.77182E-42
 6.52176E+16  2.92398E-42
 6.51814E+16  3.08450E-42
 6.51452E+16  3.25383E-42
 6.51090E+16  3.43245E-42
 6.50729E+16  3.62089E-42
 6.50367E+16  3.81966E-42
 6.50006E+16  4.02935E-42
 6.49645E+16  4.25054E-42
 6.49284E+16  4.48388E-42
 6.48924E+16  4.73004E-42
 6.48563E+16  4.98970E-42
 6.48203E+16  5.26362E-42
 6.47843E+16  5.55257E-42
 6.47483E+16  5.85739E-42
 6.47124E+16  6.17894E-42
 6.46764E+16  6.51814E-42
 6.46405E+16  6.87597E-42
 6.46046E+16  7.25344E-42
 6.45687E+16  7.65163E-42
 6.45329E+16  8.07167E-42
 6.44970E+16  8.51478E-42
 6.44612E+16  8.98222E-42
 6.44254E+16  9.47531E-42
 6.43896E+16  9.99547E-42
 6.43539E+16  1.05442E-41
 6.43181E+16  1.11230E-41
 6.42824E+16  1.17292E-41
 6.42467E+16  1.23480E-41
 6.42110E+16  1.29998E-41
 6.41753E+16  1.36860E-41
 6.41397E+16  1.44084E-41
 6.41041E+16  1.51689E-41
 6.40685E+16  1.59696E-41
 6.40329E+16  1.68125E-41
 6.39973E+16  1.77000E-41
 6.39618E+16  1.86342E-41
 6.39263E+16  1.96178E-41
 6.38908E+16  2.06534E-41
 6.38553E+16  2.17435E-41
 6.38198E+16  2.28912E-41
 6.37844E+16  2.40995E-41
 6.37489E+16  2.53716E-41
 6.37135E+16  2.67108E-41
 6.36781E+16  2.81207E-41
 6.36428E+16  2.96051E-41
 6.36074E+16  3.11678E-41
 6.35721E+16  3.28129E-41
 6.35368E+16  3.45449E-41
 6.35015E+16  3.63683E-41
 6.34662E+16  3.82880E-41
 6.34310E+16  4.03090E-41
 6.33958E+16  4.24367E-41
 6.33605E+16  4.46767E-41
 6.33254E+16  4.70349E-41
 6.32902E+16  4.95176E-41
 6.32550E+16  5.21314E-41
 6.32199E+16  5.48831E-41
 6.31848E+16  5.77800E-41
 6.31497E+16  6.08299E-41
 6.31146E+16  6.40408E-41
 6.30796E+16  6.74211E-41
 6.30445E+16  7.09799E-41
 6.30095E+16  7.47265E-41
 6.29745E+16  7.86709E-41
 6.29395E+16  8.28234E-41
 6.29046E+16  8.71952E-41
 6.28697E+16  9.17977E-41
 6.28347E+16  9.66432E-41
 6.27998E+16  1.01744E-40
 6.27650E+16  1.07115E-40
 6.27301E+16  1.12769E-40
 6.26953E+16  1.18721E-40
 6.26604E+16  1.24988E-40
 6.26256E+16  1.31585E-40
 6.25909E+16  1.38531E-40
 6.25561E+16  1.45843E-40
 6.25213E+16  1.53541E-40
 6.24866E+16  1.61646E-40
 6.24519E+16  1.70178E-40
 6.24172E+16  1.79161E-40
 6.23826E+16  1.88618E-40
 6.23479E+16  1.98574E-40
 6.23133E+16  2.09056E-40
 6.22787E+16  2.20090E-40
 6.22441E+16  2.31708E-40
 6.22095E+16  2.43938E-40
 6.21750E+16  2.56814E-40
 6.21404E+16  2.70370E-40
 6.21059E+16  2.84641E-40
 6.20714E+16  2.99666E-40
 6.20370E+16  3.15483E-40
 6.20025E+16  3.32136E-40
 6.19681E+16  3.49667E-40
 6.19337E+16  3.68124E-40
 6.18993E+16  3.87555E-40
 6.18649E+16  4.08012E-40
 6.18305E+16  4.29549E-40
 6.17962E+16  4.52257E-40
 6.17619E+16  4.75431E-40
 6.17276E+16  4.99488E-40
 6.16933E+16  5.24761E-40
 6.16590E+16  5.51313E-40
 6.16248E+16  5.79209E-40
 6.15905E+16  6.08516E-40
 6.15563E+16  6.39306E-40
 6.15221E+16  6.71654E-40
 6.14880E+16  7.05639E-40
 6.14538E+16  7.41343E-40
 6.14197E+16  7.78854E-40
 6.13856E+16  8.18263E-40
 6.13515E+16  8.59665E-40
 6.13174E+16  9.03163E-40
 6.12834E+16  9.48862E-40
 6.12493E+16  9.96873E-40
 6.12153E+16  1.04731E-39
 6.11813E+16  1.10031E-39
 6.11473E+16  1.15598E-39
 6.11134E+16  1.21447E-39
 6.10794E+16  1.27592E-39
 6.10455E+16  1.34048E-39
 6.10116E+16  1.40831E-39
 6.09777E+16  1.47957E-39
 6.09438E+16  1.55443E-39
 6.09100E+16  1.63308E-39
 6.08762E+16  1.71571E-39
 6.08423E+16  1.80253E-39
 6.08086E+16  1.89373E-39
 6.07748E+16  1.98955E-39
 6.07410E+16  2.09022E-39
 6.07073E+16  2.19598E-39
 6.06736E+16  2.30709E-39
 6.06399E+16  2.42383E-39
 6.06062E+16  2.54647E-39
 6.05725E+16  2.67532E-39
 6.05389E+16  2.81069E-39
 6.05053E+16  2.95290E-39
 6.04717E+16  3.10232E-39
 6.04381E+16  3.25929E-39
 6.04045E+16  3.42420E-39
 6.03710E+16  3.59746E-39
 6.03374E+16  3.77949E-39
 6.03039E+16  3.97073E-39
 6.02704E+16  4.17164E-39
 6.02370E+16  4.38272E-39
 6.02035E+16  4.60448E-39
 6.01701E+16  4.83746E-39
 6.01366E+16  5.08223E-39
 6.01032E+16  5.33938E-39
 6.00699E+16  5.60954E-39
 6.00365E+16  5.89338E-39
 6.00032E+16  6.19158E-39
 5.99698E+16  6.50486E-39
 5.99365E+16  6.83400E-39
 5.99032E+16  7.17979E-39
 5.98700E+16  7.54307E-39
 5.98367E+16  7.92474E-39
 5.98035E+16  8.32572E-39
 5.97703E+16  8.74699E-39
 5.97371E+16  9.18958E-39
 5.97039E+16  9.65456E-39
 5.96707E+16  1.01431E-38
 5.96376E+16  1.06563E-38
 5.96045E+16  1.11955E-38
 5.95714E+16  1.17620E-38
 5.95383E+16  1.23571E-38
 5.95052E+16  1.29823E-38
 5.94722E+16  1.36392E-38
 5.94391E+16  1.43294E-38
 5.94061E+16  1.50544E-38
 5.93731E+16  1.58161E-38
 5.93402E+16  1.66164E-38
 5.93072E+16  1.74572E-38
 5.92743E+16  1.83333E-38
 5.92413E+16  1.92202E-38
 5.92084E+16  2.01497E-38
 5.91755E+16  2.11241E-38
 5.91427E+16  2.21456E-38
 5.91098E+16  2.32165E-38
 5.90770E+16  2.43392E-38
 5.90442E+16  2.55162E-38
 5.90114E+16  2.67501E-38
 5.89786E+16  2.80437E-38
 5.89459E+16  2.93998E-38
 5.89131E+16  3.08215E-38
 5.88804E+16  3.23120E-38
 5.88477E+16  3.38745E-38
 5.88150E+16  3.55127E-38
 5.87824E+16  3.72300E-38
 5.87497E+16  3.90303E-38
 5.87171E+16  4.09178E-38
 5.86845E+16  4.28965E-38
 5.86519E+16  4.49708E-38
 5.86193E+16  4.71455E-38
 5.85867E+16  4.94254E-38
 5.85542E+16  5.18155E-38
 5.85217E+16  5.43212E-38
 5.84892E+16  5.69481E-38
 5.84567E+16  5.97020E-38
 5.84242E+16  6.25890E-38
 5.83918E+16  6.56157E-38
 5.83594E+16  6.87888E-38
 5.83269E+16  7.21152E-38
 5.82945E+16  7.56026E-38
 5.82622E+16  7.92586E-38
 5.82298E+16  8.30914E-38
 5.81975E+16  8.71095E-38
 5.81651E+16  9.13219E-38
 5.81328E+16  9.57381E-38
 5.81006E+16  1.00368E-37
 5.80683E+16  1.05221E-37
 5.80360E+16  1.10310E-37
 5.80038E+16  1.15644E-37
 5.79716E+16  1.21236E-37
 5.79394E+16  1.27099E-37
 5.79072E+16  1.33245E-37
 5.78750E+16  1.39689E-37
 5.78429E+16  1.46444E-37
 5.78108E+16  1.53526E-37
 5.77787E+16  1.60950E-37
 5.77466E+16  1.68733E-37
 5.77145E+16  1.76893E-37
 5.76825E+16  1.85447E-37
 5.76504E+16  1.94415E-37
 5.76184E+16  2.03816E-37
 5.75864E+16  2.13672E-37
 5.75544E+16  2.24005E-37
 5.75224E+16  2.34837E-37
 5.74905E+16  2.46194E-37
 5.74586E+16  2.58099E-37
 5.74267E+16  2.70580E-37
 5.73948E+16  2.83665E-37
 5.73629E+16  2.97382E-37
 5.73310E+16  3.11763E-37
 5.72992E+16  3.26839E-37
 5.72674E+16  3.42645E-37
 5.72356E+16  3.59214E-37
 5.72038E+16  3.76585E-37
 5.71720E+16  3.94796E-37
 5.71402E+16  4.13888E-37
 5.71085E+16  4.33902E-37
 5.70768E+16  4.54885E-37
 5.70451E+16  4.76882E-37
 5.70134E+16  4.99943E-37
 5.69817E+16  5.24120E-37
 5.69501E+16  5.49465E-37
 5.69185E+16  5.76036E-37
 5.68869E+16  6.03892E-37
 5.68553E+16  6.33095E-37
 5.68237E+16  6.63710E-37
 5.67921E+16  6.95806E-37
 5.67606E+16  7.28778E-37
 5.67291E+16  7.62302E-37
 5.66975E+16  7.97433E-37
 5.66661E+16  8.34184E-37
 5.66346E+16  8.72627E-37
 5.66031E+16  9.12843E-37
 5.65717E+16  9.54912E-37
 5.65403E+16  9.98919E-37
 5.65089E+16  1.04496E-36
 5.64775E+16  1.09311E-36
 5.64461E+16  1.14349E-36
 5.64148E+16  1.19619E-36
 5.63834E+16  1.25131E-36
 5.63521E+16  1.30898E-36
 5.63208E+16  1.36931E-36
 5.62895E+16  1.43241E-36
 5.62583E+16  1.49843E-36
 5.62270E+16  1.56748E-36
 5.61958E+16  1.63972E-36
 5.61646E+16  1.71529E-36
 5.61334E+16  1.79434E-36
 5.61022E+16  1.87703E-36
 5.60711E+16  1.96354E-36
 5.60399E+16  2.05403E-36
 5.60088E+16  2.14869E-36
 5.59777E+16  2.24771E-36
 5.59466E+16  2.35130E-36
 5.59155E+16  2.45966E-36
 5.58845E+16  2.57301E-36
 5.58534E+16  2.69159E-36
 5.58224E+16  2.81564E-36
 5.57914E+16  2.94540E-36
 5.57604E+16  3.08114E-36
 5.57295E+16  3.22313E-36
 5.56985E+16  3.37167E-36
 5.56676E+16  3.52706E-36
 5.56367E+16  3.68960E-36
 5.56058E+16  3.85964E-36
 5.55749E+16  4.03752E-36
 5.55440E+16  4.22359E-36
 5.55132E+16  4.41823E-36
 5.54823E+16  4.62185E-36
 5.54515E+16  4.83485E-36
 5.54207E+16  5.05767E-36
 5.53899E+16  5.29075E-36
 5.53592E+16  5.53458E-36
 5.53284E+16  5.78965E-36
 5.52977E+16  6.05647E-36
 5.52670E+16  6.33558E-36
 5.52363E+16  6.62756E-36
 5.52056E+16  6.93300E-36
 5.51749E+16  7.25251E-36
 5.51443E+16  7.58674E-36
 5.51137E+16  7.93638E-36
 5.50831E+16  8.30214E-36
 5.50525E+16  8.68474E-36
 5.50219E+16  9.08499E-36
 5.49913E+16  9.50367E-36
 5.49608E+16  9.94165E-36
 5.49303E+16  1.03998E-35
 5.48998E+16  1.08791E-35
 5.48693E+16  1.13805E-35
 5.48388E+16  1.19049E-35
 5.48083E+16  1.24536E-35
 5.47779E+16  1.30275E-35
 5.47475E+16  1.36279E-35
 5.47171E+16  1.42560E-35
 5.46867E+16  1.49130E-35
 5.46563E+16  1.56002E-35
 5.46259E+16  1.63192E-35
 5.45956E+16  1.70712E-35
 5.45653E+16  1.78580E-35
 5.45350E+16  1.86810E-35
 5.45047E+16  1.95419E-35
 5.44744E+16  2.04425E-35
 5.44442E+16  2.13846E-35
 5.44139E+16  2.23701E-35
 5.43837E+16  2.34011E-35
 5.43535E+16  2.44795E-35
 5.43233E+16  2.56077E-35
 5.42931E+16  2.67878E-35
 5.42630E+16  2.80073E-35
 5.42328E+16  2.92337E-35
 5.42027E+16  3.05140E-35
 5.41726E+16  3.18503E-35
 5.41425E+16  3.32452E-35
 5.41125E+16  3.47011E-35
 5.40824E+16  3.62208E-35
 5.40524E+16  3.78071E-35
 5.40224E+16  3.94628E-35
 5.39923E+16  4.11910E-35
 5.39624E+16  4.29949E-35
 5.39324E+16  4.48779E-35
 5.39024E+16  4.68432E-35
 5.38725E+16  4.88947E-35
 5.38426E+16  5.10360E-35
 5.38127E+16  5.32710E-35
 5.37828E+16  5.56040E-35
 5.37529E+16  5.80391E-35
 5.37231E+16  6.05809E-35
 5.36932E+16  6.32340E-35
 5.36634E+16  6.60032E-35
 5.36336E+16  6.88938E-35
 5.36038E+16  7.19109E-35
 5.35740E+16  7.50602E-35
 5.35443E+16  7.83474E-35
 5.35145E+16  8.17785E-35
 5.34848E+16  8.53599E-35
 5.34551E+16  8.90982E-35
 5.34254E+16  9.30001E-35
 5.33958E+16  9.70730E-35
 5.33661E+16  1.01324E-34
 5.33365E+16  1.05762E-34
 5.33068E+16  1.10393E-34
 5.32772E+16  1.15228E-34
 5.32476E+16  1.20274E-34
 5.32181E+16  1.25541E-34
 5.31885E+16  1.31039E-34
 5.31590E+16  1.36778E-34
 5.31294E+16  1.42768E-34
 5.30999E+16  1.49021E-34
 5.30704E+16  1.55547E-34
 5.30410E+16  1.62359E-34
 5.30115E+16  1.69469E-34
 5.29821E+16  1.76891E-34
 5.29526E+16  1.84638E-34
 5.29232E+16  1.92724E-34
 5.28938E+16  2.01164E-34
 5.28645E+16  2.09974E-34
 5.28351E+16  2.19169E-34
 5.28058E+16  2.28767E-34
 5.27764E+16  2.38786E-34
 5.27471E+16  2.49244E-34
 5.27178E+16  2.60159E-34
 5.26885E+16  2.71552E-34
 5.26593E+16  2.83445E-34
 5.26300E+16  2.95858E-34
 5.26008E+16  3.08815E-34
 5.25716E+16  3.22339E-34
 5.25424E+16  3.36455E-34
 5.25132E+16  3.51190E-34
 5.24840E+16  3.66570E-34
 5.24549E+16  3.82624E-34
 5.24258E+16  3.99380E-34
 5.23966E+16  4.16871E-34
 5.23675E+16  4.35127E-34
 5.23385E+16  4.54183E-34
 5.23094E+16  4.74074E-34
 5.22803E+16  4.94835E-34
 5.22513E+16  5.16506E-34
 5.22223E+16  5.39126E-34
 5.21933E+16  5.62736E-34
 5.21643E+16  5.87381E-34
 5.21353E+16  6.13105E-34
 5.21064E+16  6.39955E-34
 5.20774E+16  6.67981E-34
 5.20485E+16  6.97235E-34
 5.20196E+16  7.27769E-34
 5.19907E+16  7.59641E-34
 5.19618E+16  7.92909E-34
 5.19330E+16  8.27634E-34
 5.19041E+16  8.63879E-34
 5.18753E+16  9.01712E-34
 5.18465E+16  9.41201E-34
 5.18177E+16  9.82420E-34
 5.17889E+16  1.02544E-33
 5.17601E+16  1.06986E-33
 5.17314E+16  1.11430E-33
 5.17027E+16  1.16054E-33
 5.16739E+16  1.20870E-33
 5.16452E+16  1.25886E-33
 5.16166E+16  1.31110E-33
 5.15879E+16  1.36550E-33
 5.15592E+16  1.42217E-33
 5.15306E+16  1.48118E-33
 5.15020E+16  1.54265E-33
 5.14734E+16  1.60667E-33
 5.14448E+16  1.67334E-33
 5.14162E+16  1.74278E-33
 5.13877E+16  1.81510E-33
 5.13591E+16  1.89042E-33
 5.13306E+16  1.96887E-33
 5.13021E+16  2.05057E-33
 5.12736E+16  2.13567E-33
 5.12451E+16  2.22429E-33
 5.12167E+16  2.31659E-33
 5.11882E+16  2.41272E-33
 5.11598E+16  2.51285E-33
 5.11314E+16  2.61712E-33
 5.11030E+16  2.72573E-33
 5.10746E+16  2.83884E-33
 5.10462E+16  2.95664E-33
 5.10179E+16  3.07934E-33
 5.09895E+16  3.20712E-33
 5.09612E+16  3.34021E-33
 5.09329E+16  3.47882E-33
 5.09046E+16  3.62318E-33
 5.08764E+16  3.77353E-33
 5.08481E+16  3.93012E-33
 5.08199E+16  4.09321E-33
 5.07916E+16  4.26307E-33
 5.07634E+16  4.43998E-33
 5.07352E+16  4.62423E-33
 5.07071E+16  4.81612E-33
 5.06789E+16  5.01598E-33
 5.06507E+16  5.22413E-33
 5.06226E+16  5.44092E-33
 5.05945E+16  5.66670E-33
 5.05664E+16  5.90185E-33
 5.05383E+16  6.14676E-33
 5.05102E+16  6.40184E-33
 5.04822E+16  6.66750E-33
 5.04542E+16  6.94418E-33
 5.04261E+16  7.23235E-33
 5.03981E+16  7.53247E-33
 5.03701E+16  7.84505E-33
 5.03422E+16  8.17060E-33
 5.03142E+16  8.50966E-33
 5.02863E+16  8.86279E-33
 5.02583E+16  9.23057E-33
 5.02304E+16  9.61362E-33
 5.02025E+16  1.00126E-32
 5.01746E+16  1.04281E-32
 5.01468E+16  1.08608E-32
 5.01189E+16  1.13115E-32
 5.00911E+16  1.17809E-32
 5.00633E+16  1.22698E-32
 5.00354E+16  1.27789E-32
 5.00077E+16  1.33092E-32
 4.99799E+16  1.38615E-32
 4.99521E+16  1.44367E-32
 4.99244E+16  1.50358E-32
 4.98967E+16  1.56598E-32
 4.98689E+16  1.63096E-32
 4.98412E+16  1.69864E-32
 4.98136E+16  1.76913E-32
 4.97859E+16  1.84255E-32
 4.97582E+16  1.91901E-32
 4.97306E+16  1.99864E-32
 4.97030E+16  2.08158E-32
 4.96754E+16  2.16796E-32
 4.96478E+16  2.25792E-32
 4.96202E+16  2.35162E-32
 4.95927E+16  2.44921E-32
 4.95651E+16  2.55084E-32
 4.95376E+16  2.65670E-32
 4.95101E+16  2.76694E-32
 4.94826E+16  2.88176E-32
 4.94551E+16  3.00135E-32
 4.94276E+16  3.12590E-32
 4.94002E+16  3.25562E-32
 4.93727E+16  3.39072E-32
 4.93453E+16  3.53142E-32
 4.93179E+16  3.67797E-32
 4.92905E+16  3.83059E-32
 4.92631E+16  3.98905E-32
 4.92358E+16  4.14675E-32
 4.92084E+16  4.30935E-32
 4.91811E+16  4.47833E-32
 4.91538E+16  4.65393E-32
 4.91265E+16  4.83642E-32
 4.90992E+16  5.02607E-32
 4.90719E+16  5.22315E-32
 4.90447E+16  5.42796E-32
 4.90174E+16  5.64080E-32
 4.89902E+16  5.86198E-32
 4.89630E+16  6.09184E-32
 4.89358E+16  6.33072E-32
 4.89086E+16  6.57896E-32
 4.88815E+16  6.83693E-32
 4.88543E+16  7.10502E-32
 4.88272E+16  7.38362E-32
 4.88001E+16  7.67314E-32
 4.87730E+16  7.97402E-32
 4.87459E+16  8.28670E-32
 4.87188E+16  8.61164E-32
 4.86918E+16  8.94931E-32
 4.86647E+16  9.30023E-32
 4.86377E+16  9.66491E-32
 4.86107E+16  1.00439E-31
 4.85837E+16  1.04377E-31
 4.85567E+16  1.08470E-31
 4.85297E+16  1.12723E-31
 4.85028E+16  1.17144E-31
 4.84758E+16  1.21737E-31
 4.84489E+16  1.26510E-31
 4.84220E+16  1.31471E-31
 4.83951E+16  1.36626E-31
 4.83682E+16  1.41984E-31
 4.83414E+16  1.47551E-31
 4.83145E+16  1.53337E-31
 4.82877E+16  1.59350E-31
 4.82609E+16  1.65598E-31
 4.82341E+16  1.72091E-31
 4.82073E+16  1.78839E-31
 4.81805E+16  1.85852E-31
 4.81537E+16  1.93140E-31
 4.81270E+16  2.00713E-31
 4.81003E+16  2.08583E-31
 4.80735E+16  2.16762E-31
 4.80468E+16  2.25262E-31
 4.80202E+16  2.34095E-31
 4.79935E+16  2.43274E-31
 4.79668E+16  2.52813E-31
 4.79402E+16  2.62727E-31
 4.79136E+16  2.73029E-31
 4.78870E+16  2.83735E-31
 4.78604E+16  2.94860E-31
 4.78338E+16  3.06423E-31
 4.78072E+16  3.18438E-31
 4.77807E+16  3.30924E-31
 4.77541E+16  3.43901E-31
 4.77276E+16  3.57386E-31
 4.77011E+16  3.71399E-31
 4.76746E+16  3.85963E-31
 4.76481E+16  4.01097E-31
 4.76217E+16  4.16825E-31
 4.75952E+16  4.33169E-31
 4.75688E+16  4.50155E-31
 4.75424E+16  4.67806E-31
 4.75159E+16  4.86149E-31
 4.74896E+16  5.05212E-31
 4.74632E+16  5.25023E-31
 4.74368E+16  5.45610E-31
 4.74105E+16  5.67004E-31
 4.73841E+16  5.89237E-31
 4.73578E+16  6.12342E-31
 4.73315E+16  6.36354E-31
 4.73052E+16  6.61306E-31
 4.72790E+16  6.87237E-31
 4.72527E+16  7.14185E-31
 4.72265E+16  7.42190E-31
 4.72002E+16  7.71292E-31
 4.71740E+16  8.01536E-31
 4.71478E+16  8.32966E-31
 4.71216E+16  8.65628E-31
 4.70955E+16  8.99571E-31
 4.70693E+16  9.34844E-31
 4.70432E+16  9.71501E-31
 4.70170E+16  1.00960E-30
 4.69909E+16  1.04918E-30
 4.69648E+16  1.09032E-30
 4.69387E+16  1.13308E-30
 4.69127E+16  1.17751E-30
 4.68866E+16  1.22368E-30
 4.68606E+16  1.27166E-30
 4.68345E+16  1.32153E-30
 4.68085E+16  1.37335E-30
 4.67825E+16  1.42720E-30
 4.67566E+16  1.48287E-30
 4.67306E+16  1.53801E-30
 4.67046E+16  1.59482E-30
 4.66787E+16  1.65374E-30
 4.66528E+16  1.71483E-30
 4.66269E+16  1.77817E-30
 4.66010E+16  1.84386E-30
 4.65751E+16  1.91197E-30
 4.65492E+16  1.98260E-30
 4.65234E+16  2.05584E-30
 4.64975E+16  2.13178E-30
 4.64717E+16  2.21053E-30
 4.64459E+16  2.29218E-30
 4.64201E+16  2.37686E-30
 4.63943E+16  2.46466E-30
 4.63685E+16  2.55570E-30
 4.63428E+16  2.65011E-30
 4.63170E+16  2.74800E-30
 4.62913E+16  2.84952E-30
 4.62656E+16  2.95478E-30
 4.62399E+16  3.06393E-30
 4.62142E+16  3.17711E-30
 4.61886E+16  3.29447E-30
 4.61629E+16  3.41617E-30
 4.61373E+16  3.54236E-30
 4.61116E+16  3.67322E-30
 4.60860E+16  3.80890E-30
 4.60604E+16  3.94960E-30
 4.60349E+16  4.09550E-30
 4.60093E+16  4.24679E-30
 4.59837E+16  4.40367E-30
 4.59582E+16  4.56634E-30
 4.59327E+16  4.73502E-30
 4.59072E+16  4.90993E-30
 4.58817E+16  5.09130E-30
 4.58562E+16  5.27938E-30
 4.58307E+16  5.47440E-30
 4.58053E+16  5.67662E-30
 4.57798E+16  5.88631E-30
 4.57544E+16  6.10375E-30
 4.57290E+16  6.32923E-30
 4.57036E+16  6.56303E-30
 4.56782E+16  6.80547E-30
 4.56528E+16  7.05686E-30
 4.56275E+16  7.31754E-30
 4.56021E+16  7.58785E-30
 4.55768E+16  7.86815E-30
 4.55515E+16  8.15880E-30
 4.55262E+16  8.46018E-30
 4.55009E+16  8.77270E-30
 4.54756E+16  9.09676E-30
 4.54504E+16  9.43280E-30
 4.54251E+16  9.78125E-30
 4.53999E+16  1.01426E-29
 4.53747E+16  1.05172E-29
 4.53495E+16  1.09057E-29
 4.53243E+16  1.13086E-29
 4.52991E+16  1.17263E-29
 4.52740E+16  1.21595E-29
 4.52488E+16  1.26087E-29
 4.52237E+16  1.30744E-29
 4.51986E+16  1.35574E-29
 4.51735E+16  1.40582E-29
 4.51484E+16  1.45775E-29
 4.51233E+16  1.51160E-29
 4.50983E+16  1.56744E-29
 4.50732E+16  1.62534E-29
 4.50482E+16  1.68538E-29
 4.50232E+16  1.74764E-29
 4.49981E+16  1.81220E-29
 4.49732E+16  1.87914E-29
 4.49482E+16  1.94856E-29
 4.49232E+16  2.02054E-29
 4.48983E+16  2.09517E-29
 4.48733E+16  2.17257E-29
 4.48484E+16  2.25283E-29
 4.48235E+16  2.33604E-29
 4.47986E+16  2.42234E-29
 4.47737E+16  2.51182E-29
 4.47489E+16  2.60461E-29
 4.47240E+16  2.70082E-29
 4.46992E+16  2.80059E-29
 4.46743E+16  2.90404E-29
 4.46495E+16  3.01132E-29
 4.46247E+16  3.12256E-29
 4.45999E+16  3.23790E-29
 4.45752E+16  3.35751E-29
 4.45504E+16  3.48154E-29
 4.45257E+16  3.61014E-29
 4.45009E+16  3.74350E-29
 4.44762E+16  3.88179E-29
 4.44515E+16  4.02518E-29
 4.44268E+16  4.17387E-29
 4.44022E+16  4.32805E-29
 4.43775E+16  4.48793E-29
 4.43528E+16  4.65372E-29
 4.43282E+16  4.82563E-29
 4.43036E+16  5.00388E-29
 4.42790E+16  5.18873E-29
 4.42544E+16  5.37985E-29
 4.42298E+16  5.56850E-29
 4.42053E+16  5.76159E-29
 4.41807E+16  5.96138E-29
 4.41562E+16  6.16810E-29
 4.41316E+16  6.38198E-29
 4.41071E+16  6.60328E-29
 4.40826E+16  6.83225E-29
 4.40581E+16  7.06916E-29
 4.40337E+16  7.31429E-29
 4.40092E+16  7.56792E-29
 4.39848E+16  7.83034E-29
 4.39604E+16  8.10186E-29
 4.39359E+16  8.38280E-29
 4.39115E+16  8.67347E-29
 4.38871E+16  8.97423E-29
 4.38628E+16  9.28542E-29
 4.38384E+16  9.60739E-29
 4.38141E+16  9.94054E-29
 4.37897E+16  1.02852E-28
 4.37654E+16  1.06419E-28
 4.37411E+16  1.10109E-28
 4.37168E+16  1.13927E-28
