 OPTXAGNF AGN Spectrum Model Parameters: NLS, Astar 0.0                          
 M_BH:  1.0000E+06 M_0            L  :  0.2000     L/Ledd 
 D   :  1.5000E+18 cm             z  :   0.000     redshift 
 Rcor:   40.00     Rg             Ro :   4.000     Rg 
 C_T :  0.2000     keV            Tau:   15.00     Optical Depth 
 gam :   2.200     (-slope)       fpl:  0.2000     Fraction 
 E              0.5DeltaE      E.FE total     E.FE Disk      E.FE Compton   E.FE NonThermal
 (keV)          (keV)          E.E/cm2/s/E    E.E/cm2/s/E    E.E/cm2/s/E    E.E/cm2/s/E    
 1.00334952E-06 3.34952256E-09  15780.270      15778.785     2.13889882E-05  1.4850420    
 1.01007101E-06 3.37196116E-09  16093.125      16091.638     2.19509470E-05  1.4862033    
 1.01683752E-06 3.39455008E-09  16419.169      16417.683     2.25467958E-05  1.4860782    
 1.02364936E-06 3.41729032E-09  16754.222      16752.736     2.31655614E-05  1.4855428    
 1.03050683E-06 3.44018290E-09  17086.331      17084.844     2.37739668E-05  1.4866984    
 1.03741024E-06 3.46322884E-09  17440.006      17438.521     2.44404146E-05  1.4852970    
 1.04435990E-06 3.48642917E-09  17788.257      17786.771     2.50895929E-05  1.4860412    
 1.05135611E-06 3.50978492E-09  18146.094      18144.607     2.57633836E-05  1.4863333    
 1.05839920E-06 3.53329712E-09  18518.973      18517.487     2.64778305E-05  1.4853796    
 1.06548946E-06 3.55696684E-09  18886.079      18884.593     2.71733128E-05  1.4865371    
 1.07262722E-06 3.58079512E-09  19274.292      19272.806     2.79271629E-05  1.4855520    
 1.07981280E-06 3.60478303E-09  19661.922      19660.436     2.86770029E-05  1.4858787    
 1.08704652E-06 3.62893164E-09  20054.632      20053.146     2.94388535E-05  1.4865884    
 1.09432869E-06 3.65324201E-09  20469.586      20468.101     3.02636815E-05  1.4852161    
 1.10165965E-06 3.67771524E-09  20875.377      20873.891     3.10587030E-05  1.4863754    
 1.10903971E-06 3.70235243E-09  21301.481      21299.995     3.19113363E-05  1.4858071    
 1.11646922E-06 3.72715465E-09  21732.919      21731.433     3.27773394E-05  1.4857161    
 1.12394850E-06 3.75212303E-09  22163.880      22162.393     3.36386693E-05  1.4868435    
 1.13147788E-06 3.77725867E-09  22625.631      22624.146     3.45908242E-05  1.4850523    
 1.13905770E-06 3.80256270E-09  23074.182      23072.696     3.54996305E-05  1.4862135    
 1.14668830E-06 3.82803623E-09  23541.853      23540.367     3.64638973E-05  1.4860621    
 1.15437002E-06 3.85368042E-09  24022.024      24020.538     3.74639382E-05  1.4855531    
 1.16210319E-06 3.87949640E-09  24498.179      24496.692     3.84478583E-05  1.4867086    
 1.16988818E-06 3.90548532E-09  25005.475      25003.990     3.95263558E-05  1.4852810    
 1.17772531E-06 3.93164835E-09  25504.553      25503.067     4.05755244E-05  1.4860514    
 1.18561494E-06 3.95798663E-09  26017.823      26016.337     4.16659320E-05  1.4863172    
 1.19355743E-06 3.98450137E-09  26552.200      26550.714     4.28206197E-05  1.4853899    
 1.20155313E-06 4.01119372E-09  27078.528      27077.041     4.39453616E-05  1.4865472    
 1.20960239E-06 4.03806489E-09  27635.360      27633.874     4.51653074E-05  1.4855360    
 1.21770557E-06 4.06511607E-09  28190.869      28189.383     4.63771695E-05  1.4858890    
 1.22586303E-06 4.09234846E-09  28754.157      28752.671     4.76100937E-05  1.4865723    
 1.23407514E-06 4.11976329E-09  29348.828      29347.343     4.89431886E-05  1.4852264    
 1.24234227E-06 4.14736177E-09  29930.614      29929.127     5.02289061E-05  1.4863856    
 1.25066478E-06 4.17514513E-09  30541.791      30540.305     5.16087197E-05  1.4857910    
 1.25904304E-06 4.20311462E-09  31160.077      31158.592     5.30083306E-05  1.4857263    
 1.26747742E-06 4.23127147E-09  31778.228      31776.741     5.44022539E-05  1.4868274    
 1.27596831E-06 4.25961695E-09  32439.959      32438.474     5.59411464E-05  1.4850626    
 1.28451608E-06 4.28815232E-09  33083.045      33081.558     5.74108777E-05  1.4862237    
 1.29312111E-06 4.31687884E-09  33753.840      33752.354     5.89713567E-05  1.4860461    
 1.30178379E-06 4.34579781E-09  34441.958      34440.473     6.05876077E-05  1.4855634    
 1.31050450E-06 4.37491051E-09  35124.616      35123.129     6.21788135E-05  1.4867187    
 1.31928362E-06 4.40421823E-09  35852.234      35850.749     6.39241201E-05  1.4852650    
 1.32812156E-06 4.43372228E-09  36567.438      36565.952     6.56197304E-05  1.4860616    
 1.33701871E-06 4.46342399E-09  37303.633      37302.147     6.73843546E-05  1.4863012    
 1.34597546E-06 4.49332467E-09  38069.428      38067.942     6.92505570E-05  1.4854001    
 1.35499221E-06 4.52342565E-09  38824.010      38822.523     7.10695009E-05  1.4865574    
 1.36406936E-06 4.55372829E-09  39622.673      39621.187     7.30437212E-05  1.4855200    
 1.37320733E-06 4.58423392E-09  40418.741      40417.255     7.50022832E-05  1.4858992    
 1.38240650E-06 4.61494391E-09  41226.672      41225.186     7.69975569E-05  1.4865563    
 1.39166731E-06 4.64585962E-09  42078.865      42077.380     7.91521154E-05  1.4852367    
 1.40099015E-06 4.67698245E-09  42912.947      42911.461     8.12313904E-05  1.4863958    
 1.41037545E-06 4.70831376E-09  43789.552      43788.066     8.34643354E-05  1.4857750    
 1.41982361E-06 4.73985497E-09  44675.574      44674.088     8.57263463E-05  1.4857365    
 1.42933508E-06 4.77160747E-09  45562.190      45560.703     8.79821835E-05  1.4868114    
 1.43891026E-06 4.80357269E-09  46510.476      46508.991     9.04693707E-05  1.4850730    
 1.44854958E-06 4.83575204E-09  47432.432      47430.945     9.28462343E-05  1.4862339    
 1.45825348E-06 4.86814696E-09  48394.539      48393.053     9.53715645E-05  1.4860301    
 1.46802239E-06 4.90075889E-09  49380.625      49379.139     9.79837218E-05  1.4855736    
 1.47785673E-06 4.93358930E-09  50359.306      50357.820     1.00557035E-04  1.4867288    
 1.48775696E-06 4.96663964E-09  51402.895      51401.409     1.03381419E-04  1.4852489    
 1.49772351E-06 4.99991138E-09  52427.781      52426.295     1.06121771E-04  1.4860718    
 1.50775683E-06 5.03340601E-09  53483.682      53482.196     1.08977487E-04  1.4862851    
 1.51785736E-06 5.06712502E-09  54581.070      54579.585     1.11993634E-04  1.4854104    
 1.52802556E-06 5.10106992E-09  55662.854      55661.367     1.14935246E-04  1.4865675    
 1.53826187E-06 5.13524222E-09  56808.329      56806.844     1.18130094E-04  1.4855039    
 1.54856676E-06 5.16964344E-09  57949.083      57947.597     1.21295438E-04  1.4859094    
 1.55894067E-06 5.20427512E-09  59107.865      59106.379     1.24524438E-04  1.4865402    
 1.56938409E-06 5.23913879E-09  60329.051      60327.566     1.28006648E-04  1.4852470    
 1.57989746E-06 5.27423602E-09  61524.794      61523.307     1.31369270E-04  1.4864059    
 1.59048127E-06 5.30956836E-09  62782.046      62780.560     1.34982829E-04  1.4857590    
 1.60113597E-06 5.34513740E-09  64051.693      64050.207     1.38638621E-04  1.4857468    
 1.61186206E-06 5.38094472E-09  65323.319      65321.832     1.42289321E-04  1.4867954    
 1.62265999E-06 5.41699191E-09  66682.192      66680.707     1.46309155E-04  1.4850833    
 1.63353026E-06 5.45328058E-09  68003.895      68002.408     1.50153038E-04  1.4862441    
 1.64447336E-06 5.48981235E-09  69383.767      69382.281     1.54239786E-04  1.4860140    
 1.65548976E-06 5.52658885E-09  70796.788      70795.302     1.58461505E-04  1.4855839    
 1.66657996E-06 5.56361172E-09  72199.802      72198.315     1.62623087E-04  1.4867390    
 1.67774445E-06 5.60088261E-09  73696.507      73695.022     1.67193710E-04  1.4852329    
 1.68898374E-06 5.63840317E-09  75165.107      75163.621     1.71622509E-04  1.4860820    
 1.70029832E-06 5.67617509E-09  76679.487      76678.000     1.76243951E-04  1.4862691    
 1.71168869E-06 5.71420004E-09  78251.983      78250.497     1.81118624E-04  1.4854207    
 1.72315537E-06 5.75247973E-09  79802.783      79801.296     1.85875821E-04  1.4865777    
 1.73469887E-06 5.79101585E-09  81445.599      81444.113     1.91045985E-04  1.4854879    
 1.74631969E-06 5.82981012E-09  83080.212      83078.726     1.96161671E-04  1.4859196    
 1.75801837E-06 5.86886429E-09  84742.131      84740.644     2.01387234E-04  1.4865242    
 1.76979541E-06 5.90818007E-09  86492.003      86490.517     2.07015195E-04  1.4852573    
 1.78165135E-06 5.94775924E-09  88206.148      88204.661     2.12453251E-04  1.4864161    
 1.79358672E-06 5.98760354E-09  90009.256      90007.770     2.18301041E-04  1.4857429    
 1.80560203E-06 6.02771477E-09  91828.542      91827.057     2.24209411E-04  1.4857570    
 1.81769784E-06 6.06809470E-09  93652.286      93650.799     2.30117458E-04  1.4867793    
 1.82987468E-06 6.10874514E-09  95599.432      95597.946     2.36614373E-04  1.4850936    
 1.84213310E-06 6.14966790E-09  97494.120      97492.634     2.42830728E-04  1.4862543    
 1.85447363E-06 6.19086481E-09  99473.067      99471.580     2.49444314E-04  1.4859980    
 1.86689683E-06 6.23233769E-09  101497.77      101496.29     2.56267367E-04  1.4855941    
 1.87940326E-06 6.27408840E-09  103509.01      103507.52     2.62997504E-04  1.4867491    
 1.89199346E-06 6.31611880E-09  105655.46      105653.98     2.70394006E-04  1.4852169    
 1.90466801E-06 6.35843077E-09  107759.78      107758.29     2.77551566E-04  1.4860922    
 1.91742747E-06 6.40102618E-09  109931.61      109930.12     2.85030493E-04  1.4862531    
 1.93027240E-06 6.44390694E-09  112184.80      112183.31     2.92908891E-04  1.4854310    
 1.94320339E-06 6.48707497E-09  114407.85      114406.37     3.00602261E-04  1.4865878    
 1.95622099E-06 6.53053217E-09  116763.83      116762.34     3.08969029E-04  1.4854719    
 1.96932581E-06 6.57428050E-09  119105.99      119104.50     3.17236758E-04  1.4859298    
 1.98251841E-06 6.61832191E-09  121489.39      121487.90     3.25693393E-04  1.4865082    
 1.99579939E-06 6.66265834E-09  123996.70      123995.21     3.34789311E-04  1.4852675    
 2.00916934E-06 6.70729179E-09  126453.87      126452.39     3.43583766E-04  1.4864263    
 2.02262885E-06 6.75222424E-09  129039.70      129038.21     3.53047178E-04  1.4857269    
 2.03617854E-06 6.79745770E-09  131646.43      131644.95     3.62596077E-04  1.4857672    
 2.04981899E-06 6.84299417E-09  134261.88      134260.39     3.72157248E-04  1.4867633    
 2.06355082E-06 6.88883570E-09  137051.82      137050.34     3.82657643E-04  1.4851039    
 2.07737464E-06 6.93498432E-09  139767.76      139766.27     3.92710765E-04  1.4862645    
 2.09129106E-06 6.98144209E-09  142605.72      142604.23     4.03413520E-04  1.4859820    
 2.10530072E-06 7.02821109E-09  145506.75      145505.27     4.14440776E-04  1.4856044    
 2.11940422E-06 7.07529339E-09  148389.72      148388.24     4.25324786E-04  1.4867592    
 2.13360221E-06 7.12269110E-09  151467.84      151466.35     4.37294307E-04  1.4852008    
 2.14789530E-06 7.17040633E-09  154482.89      154481.40     4.48861911E-04  1.4861024    
 2.16228415E-06 7.21844121E-09  157597.42      157595.94     4.60965116E-04  1.4862370    
 2.17676939E-06 7.26679787E-09  160825.78      160824.30     4.73698088E-04  1.4854412    
 2.19135167E-06 7.31547848E-09  164012.34      164010.85     4.86139838E-04  1.4865980    
 2.20603163E-06 7.36448520E-09  167390.87      167389.38     4.99679586E-04  1.4854558    
 2.22080994E-06 7.41382021E-09  170746.66      170745.17     5.13041476E-04  1.4859401    
 2.23568724E-06 7.46348573E-09  174164.55      174163.07     5.26726999E-04  1.4864921    
 2.25066421E-06 7.51348396E-09  177756.97      177755.48     5.41427813E-04  1.4852778    
 2.26574151E-06 7.56381713E-09  181279.05      181277.57     5.55650240E-04  1.4864364    
 2.28091982E-06 7.61448748E-09  184987.15      184985.66     5.70964748E-04  1.4857109    
 2.29619980E-06 7.66549727E-09  188721.96      188720.47     5.86397317E-04  1.4857775    
 2.31158215E-06 7.71684879E-09  192472.58      192471.09     6.01870426E-04  1.4867472    
 2.32706754E-06 7.76854430E-09  196469.88      196468.39     6.18841267E-04  1.4851142    
 2.34265667E-06 7.82058613E-09  200362.80      200361.32     6.35099212E-04  1.4862746    
 2.35835023E-06 7.87297659E-09  204432.41      204430.93     6.52419433E-04  1.4859659    
 2.37414893E-06 7.92571802E-09  208588.81      208587.32     6.70241394E-04  1.4856146    
 2.39005346E-06 7.97881276E-09  212721.12      212719.63     6.87843047E-04  1.4867694    
 2.40606454E-06 8.03226319E-09  217135.00      217133.52     7.07212909E-04  1.4851848    
 2.42218287E-06 8.08607168E-09  221454.69      221453.20     7.25907718E-04  1.4861126    
 2.43840918E-06 8.14024064E-09  225920.85      225919.36     7.45494400E-04  1.4862210    
 2.45474420E-06 8.19477248E-09  230546.14      230544.66     7.66073238E-04  1.4854515    
 2.47118864E-06 8.24966963E-09  235113.51      235112.02     7.86194067E-04  1.4866081    
 2.48774324E-06 8.30493454E-09  239958.11      239956.62     8.08105094E-04  1.4854398    
 2.50440875E-06 8.36056967E-09  244765.90      244764.41     8.29699877E-04  1.4859503    
 2.52118589E-06 8.41657750E-09  249667.00      249665.51     8.51847365E-04  1.4864761    
 2.53807543E-06 8.47296053E-09  254813.79      254812.31     8.75606765E-04  1.4852881    
 2.55507811E-06 8.52972128E-09  259861.99      259860.50     8.98607301E-04  1.4864466    
 2.57219470E-06 8.58686227E-09  265179.09      265177.60     9.23390518E-04  1.4856948    
 2.58942595E-06 8.64438604E-09  270529.81      270528.32     9.48332006E-04  1.4857877    
 2.60677263E-06 8.70229518E-09  275907.94      275906.45     9.73372528E-04  1.4867312    
 2.62423551E-06 8.76059224E-09  281634.70      281633.21     1.00080092E-03  1.4851245    
 2.64181539E-06 8.81927985E-09  287214.32      287212.83     1.02709329E-03  1.4862848    
 2.65951303E-06 8.87836060E-09  293049.71      293048.23     1.05512248E-03  1.4859499    
 2.67732922E-06 8.93783714E-09  299004.31      299002.83     1.08392582E-03  1.4856249    
 2.69526477E-06 8.99771211E-09  304926.96      304925.48     1.11239122E-03  1.4867795    
 2.71332047E-06 9.05798819E-09  311255.84      311254.35     1.14373675E-03  1.4851688    
 2.73149713E-06 9.11866806E-09  317444.28      317442.79     1.17395003E-03  1.4861228    
 2.74979555E-06 9.17975443E-09  323848.18      323846.69     1.20564720E-03  1.4862049    
 2.76821656E-06 9.24125002E-09  330474.41      330472.93     1.23890636E-03  1.4854618    
 2.78676096E-06 9.30315757E-09  337020.48      337019.00     1.27144577E-03  1.4866183    
 2.80542960E-06 9.36547984E-09  343966.83      343965.35     1.30690376E-03  1.4854238    
 2.82422330E-06 9.42821962E-09  350854.40      350852.91     1.34180404E-03  1.4859605    
 2.84314290E-06 9.49137968E-09  357881.85      357880.36     1.37764559E-03  1.4864600    
 2.86218924E-06 9.55496287E-09  365255.04      365253.56     1.41604537E-03  1.4852984    
 2.88136318E-06 9.61897199E-09  372490.10      372488.62     1.45324183E-03  1.4864568    
 2.90066556E-06 9.68340992E-09  380113.81      380112.32     1.49334803E-03  1.4856788    
 2.92009725E-06 9.74827952E-09  387779.02      387777.53     1.53365737E-03  1.4857979    
 2.93965911E-06 9.81358368E-09  395490.34      395488.85     1.57418100E-03  1.4867151    
 2.95935202E-06 9.87932532E-09  403694.21      403692.72     1.61851088E-03  1.4851348    
 2.97917685E-06 9.94550737E-09  411690.73      411689.24     1.66103088E-03  1.4862950    
 2.99913449E-06 1.00121328E-08  420057.44      420055.95     1.70639024E-03  1.4859338    
 3.01922583E-06 1.00792045E-08  428587.56      428586.07     1.75294126E-03  1.4856351    
 3.03945176E-06 1.01467255E-08  437075.60      437074.10     1.79897547E-03  1.4920693    
 3.05981319E-06 1.02146989E-08  446149.62      446148.10     1.84970066E-03  1.5245342    
 3.08031101E-06 1.02831276E-08  455014.62      455013.05     1.89852922E-03  1.5663933    
 3.10094616E-06 1.03520148E-08  464196.33      464194.72     1.94982474E-03  1.6096035    
 3.12171953E-06 1.04213634E-08  473688.43      473686.78     2.00357748E-03  1.6539352    
 3.14263207E-06 1.04911766E-08  483069.74      483068.04     2.05620014E-03  1.6965314    
 3.16368471E-06 1.05614574E-08  493028.90      493027.16     2.11358068E-03  1.7419761    
 3.18487837E-06 1.06322091E-08  502895.19      502893.40     2.16998447E-03  1.7866701    
 3.20621402E-06 1.07034348E-08  512970.74      512968.91     2.22798717E-03  1.8341015    
 3.22769259E-06 1.07751376E-08  523532.62      523530.74     2.29004851E-03  1.8847651    
 3.24931505E-06 1.08473207E-08  533901.10      533899.16     2.35020252E-03  1.9329553    
 3.27108236E-06 1.09199874E-08  544831.20      544829.22     2.41510548E-03  1.9838591    
 3.29299549E-06 1.09931409E-08  555811.19      555809.15     2.48025153E-03  2.0339425    
 3.31505541E-06 1.10667844E-08  566867.04      566864.95     2.54583169E-03  2.0835226    
 3.33726312E-06 1.11409213E-08  578618.56      578616.42     2.61747767E-03  2.1375233    
 3.35961959E-06 1.12155548E-08  590077.99      590075.80     2.68624086E-03  2.1913905    
 3.38212584E-06 1.12906884E-08  602073.11      602070.85     2.75964530E-03  2.2484304    
 3.40478285E-06 1.13663252E-08  614291.75      614289.44     2.83487939E-03  2.3056655    
 3.42759164E-06 1.14424687E-08  626455.37      626453.00     2.90932572E-03  2.3614243    
 3.45055323E-06 1.15191223E-08  639464.08      639461.66     2.99141208E-03  2.4212289    
 3.47366865E-06 1.15962894E-08  652162.12      652159.64     3.07032515E-03  2.4780291    
 3.49693891E-06 1.16739735E-08  665325.35      665322.81     3.15333648E-03  2.5379562    
 3.52036506E-06 1.17521780E-08  678921.54      678918.93     3.24021035E-03  2.6027766    
 3.54394814E-06 1.18309064E-08  692364.85      692362.18     3.32531145E-03  2.6658726    
 3.56768921E-06 1.19101621E-08  706642.20      706639.47     3.41816838E-03  2.7329650    
 3.59158932E-06 1.19899488E-08  720774.12      720771.32     3.50932464E-03  2.7977823    
 3.61564954E-06 1.20702701E-08  735218.49      735215.63     3.60319074E-03  2.8632895    
 3.63987094E-06 1.21511293E-08  750346.60      750343.67     3.70349343E-03  2.9315071    
 3.66425460E-06 1.22325303E-08  765204.13      765201.12     3.80077415E-03  2.9990301    
 3.68880161E-06 1.23144766E-08  780873.07      780869.99     3.90580491E-03  3.0738034    
 3.71351306E-06 1.23969718E-08  796599.77      796596.62     4.01109064E-03  3.1478704    
 3.73839005E-06 1.24800197E-08  812449.17      812445.95     4.11722002E-03  3.2213485    
 3.76343369E-06 1.25636239E-08  829280.79      829277.49     4.23301403E-03  3.2991643    
 3.78864510E-06 1.26477882E-08  845701.16      845697.78     4.34421741E-03  3.3731924    
 3.81402541E-06 1.27325163E-08  862896.46      862893.01     4.46300657E-03  3.4502743    
 3.83957574E-06 1.28178120E-08  880396.82      880393.28     4.58459693E-03  3.5307723    
 3.86529723E-06 1.29036791E-08  897825.93      897822.32     4.70499100E-03  3.6131309    
 3.89119103E-06 1.29901214E-08  916473.63      916469.93     4.83782745E-03  3.7015842    
 3.91725829E-06 1.30771428E-08  934660.28      934656.49     4.96536056E-03  3.7856058    
 3.94350018E-06 1.31647472E-08  953529.69      953525.81     5.09969716E-03  3.8721101    
 3.96991787E-06 1.32529384E-08  973002.50      972998.54     5.24010023E-03  3.9603305    
 3.99651253E-06 1.33417205E-08  992264.72      992260.66     5.37772505E-03  4.0461067    
 4.02328535E-06 1.34310972E-08  1012730.5      1012726.3     5.52799181E-03  4.1409551    
 4.05023752E-06 1.35210728E-08  1032970.2      1032966.0     5.67531249E-03  4.2368391    
 4.07737024E-06 1.36116511E-08  1053675.6      1053671.3     5.82721616E-03  4.3339541    
 4.10468473E-06 1.37028361E-08  1075341.9      1075337.4     5.98932360E-03  4.4347393    
 4.13218219E-06 1.37946320E-08  1096629.8      1096625.3     6.14664510E-03  4.5317065    
