 OPTXAGNF AGN Spectrum Model Parameters: NLS, Astar 0.0                          
 M_BH:  1.0000E+06 M_0            L  :  0.5000     L/Ledd 
 D   :  1.5000E+18 cm             z  :   0.000     redshift 
 Rcor:   40.00     Rg             Ro :   4.000     Rg 
 C_T :  0.2000     keV            Tau:   15.00     Optical Depth 
 gam :   2.200     (-slope)       fpl:  0.2000     Fraction 
 E              0.5DeltaE      E.FE total     E.FE Disk      E.FE Compton   E.FE NonThermal
 (keV)          (keV)          E.E/cm2/s/E    E.E/cm2/s/E    E.E/cm2/s/E    E.E/cm2/s/E    
 1.00334952E-06 3.34952256E-09  19769.177      19765.413     2.50951870E-05  3.7644206    
 1.01007101E-06 3.37196116E-09  20161.116      20157.348     2.57545206E-05  3.7673644    
 1.01683752E-06 3.39455008E-09  20569.580      20565.813     2.64536168E-05  3.7670471    
 1.02364936E-06 3.41729032E-09  20989.331      20985.565     2.71796008E-05  3.7656901    
 1.03050683E-06 3.44018290E-09  21405.394      21401.625     2.78934293E-05  3.7686193    
 1.03741024E-06 3.46322884E-09  21848.477      21844.712     2.86753578E-05  3.7650670    
 1.04435990E-06 3.48642917E-09  22284.765      22280.998     2.94370244E-05  3.7669533    
 1.05135611E-06 3.50978492E-09  22733.064      22729.296     3.02275682E-05  3.7676937    
 1.05839920E-06 3.53329712E-09  23200.210      23196.445     3.10658130E-05  3.7652763    
 1.06548946E-06 3.55696684E-09  23660.124      23656.356     3.18818072E-05  3.7682103    
 1.07262722E-06 3.58079512E-09  24146.483      24142.717     3.27662831E-05  3.7657134    
 1.07981280E-06 3.60478303E-09  24632.113      24628.346     3.36460541E-05  3.7665415    
 1.08704652E-06 3.62893164E-09  25124.107      25120.339     3.45399168E-05  3.7683403    
 1.09432869E-06 3.65324201E-09  25643.972      25640.207     3.55076697E-05  3.7648618    
 1.10165965E-06 3.67771524E-09  26152.358      26148.590     3.64404512E-05  3.7678006    
 1.10903971E-06 3.70235243E-09  26686.194      26682.428     3.74408275E-05  3.7663599    
 1.11646922E-06 3.72715465E-09  27226.715      27222.949     3.84568904E-05  3.7661291    
 1.12394850E-06 3.75212303E-09  27766.639      27762.870     3.94674703E-05  3.7689870    
 1.13147788E-06 3.77725867E-09  28345.141      28341.377     4.05846134E-05  3.7644467    
 1.13905770E-06 3.80256270E-09  28907.106      28903.339     4.16508964E-05  3.7673902    
 1.14668830E-06 3.82803623E-09  29493.028      29489.261     4.27822502E-05  3.7670064    
 1.15437002E-06 3.85368042E-09  30094.612      30090.846     4.39555770E-05  3.7657161    
 1.16210319E-06 3.87949640E-09  30691.165      30687.397     4.51099897E-05  3.7686450    
 1.16988818E-06 3.90548532E-09  31326.739      31322.973     4.63753682E-05  3.7650263    
 1.17772531E-06 3.93164835E-09  31952.015      31948.248     4.76063356E-05  3.7669792    
 1.18561494E-06 3.95798663E-09  32595.075      32591.307     4.88856880E-05  3.7676530    
 1.19355743E-06 3.98450137E-09  33264.583      33260.817     5.02404592E-05  3.7653023    
 1.20155313E-06 4.01119372E-09  33924.005      33920.237     5.15600954E-05  3.7682360    
 1.20960239E-06 4.03806489E-09  34621.651      34617.885     5.29914326E-05  3.7656727    
 1.21770557E-06 4.06511607E-09  35317.640      35313.873     5.44132854E-05  3.7665675    
 1.22586303E-06 4.09234846E-09  36023.376      36019.608     5.58598499E-05  3.7682997    
 1.23407514E-06 4.11976329E-09  36768.437      36764.672     5.74239429E-05  3.7648879    
 1.24234227E-06 4.14736177E-09  37497.352      37493.585     5.89324489E-05  3.7678264    
 1.25066478E-06 4.17514513E-09  38263.098      38259.332     6.05513560E-05  3.7663192    
 1.25904304E-06 4.20311462E-09  39037.752      39033.986     6.21934911E-05  3.7661551    
 1.26747742E-06 4.23127147E-09  39812.237      39808.468     6.38289530E-05  3.7689464    
 1.27596831E-06 4.25961695E-09  40641.332      40637.568     6.56345047E-05  3.7644728    
 1.28451608E-06 4.28815232E-09  41447.063      41443.296     6.73589108E-05  3.7674160    
 1.29312111E-06 4.31687884E-09  42287.518      42283.751     6.91897896E-05  3.7669658    
 1.30178379E-06 4.34579781E-09  43149.680      43145.915     7.10861046E-05  3.7657420    
 1.31050450E-06 4.37491051E-09  44005.000      44001.231     7.29530347E-05  3.7686707    
 1.31928362E-06 4.40421823E-09  44916.662      44912.897     7.50007684E-05  3.7649857    
 1.32812156E-06 4.43372228E-09  45812.767      45809.000     7.69901944E-05  3.7670050    
 1.33701871E-06 4.46342399E-09  46735.177      46731.409     7.90605933E-05  3.7676124    
 1.34597546E-06 4.49332467E-09  47694.681      47690.915     8.12501720E-05  3.7653283    
 1.35499221E-06 4.52342565E-09  48640.133      48636.364     8.33843032E-05  3.7682618    
 1.36406936E-06 4.55372829E-09  49640.826      49637.060     8.57006176E-05  3.7656321    
 1.37320733E-06 4.58423392E-09  50638.267      50634.500     8.79985604E-05  3.7665934    
 1.38240650E-06 4.61494391E-09  51650.576      51646.807     9.03395764E-05  3.7682590    
 1.39166731E-06 4.64585962E-09  52718.352      52714.587     9.28674785E-05  3.7649140    
 1.40099015E-06 4.67698245E-09  53763.432      53759.664     9.53070519E-05  3.7678521    
 1.41037545E-06 4.70831376E-09  54861.802      54858.036     9.79269238E-05  3.7662786    
 1.41982361E-06 4.73985497E-09  55971.975      55968.208     1.00580898E-04  3.7661810    
 1.42933508E-06 4.77160747E-09  57082.890      57079.121     1.03227629E-04  3.7689057    
 1.43891026E-06 4.80357269E-09  58271.094      58267.329     1.06145799E-04  3.7644989    
 1.44854958E-06 4.83575204E-09  59426.298      59422.530     1.08934528E-04  3.7674418    
 1.45825348E-06 4.86814696E-09  60631.822      60628.055     1.11897451E-04  3.7669251    
 1.46802239E-06 4.90075889E-09  61867.398      61863.632     1.14962247E-04  3.7657680    
 1.47785673E-06 4.93358930E-09  63093.693      63089.924     1.17981467E-04  3.7686964    
 1.48775696E-06 4.96663964E-09  64401.335      64397.570     1.21295265E-04  3.7649450    
 1.49772351E-06 4.99991138E-09  65685.537      65681.770     1.24510469E-04  3.7670309    
 1.50775683E-06 5.03340601E-09  67008.608      67004.840     1.27861029E-04  3.7675717    
 1.51785736E-06 5.06712502E-09  68383.676      68379.911     1.31399819E-04  3.7653544    
 1.52802556E-06 5.10106992E-09  69739.185      69735.417     1.34851159E-04  3.7682875    
 1.53826187E-06 5.13524222E-09  71174.521      71170.755     1.38599617E-04  3.7655914    
 1.54856676E-06 5.16964344E-09  72603.938      72600.171     1.42313458E-04  3.7666193    
 1.55894067E-06 5.20427512E-09  74055.948      74052.180     1.46101986E-04  3.7682184    
 1.56938409E-06 5.23913879E-09  75586.173      75582.408     1.50187601E-04  3.7649400    
 1.57989746E-06 5.27423602E-09  77084.507      77080.739     1.54132905E-04  3.7678779    
 1.59048127E-06 5.30956836E-09  78659.934      78656.168     1.58372631E-04  3.7662379    
 1.60113597E-06 5.34513740E-09  80250.895      80247.128     1.62661907E-04  3.7662070    
 1.61186206E-06 5.38094472E-09  81844.335      81840.565     1.66945209E-04  3.7688650    
 1.62265999E-06 5.41699191E-09  83547.130      83543.365     1.71661611E-04  3.7645251    
 1.63353026E-06 5.45328058E-09  85203.333      85199.565     1.76171573E-04  3.7674677    
 1.64447336E-06 5.48981235E-09  86932.445      86928.678     1.80966485E-04  3.7668845    
 1.65548976E-06 5.52658885E-09  88703.106      88699.340     1.85919755E-04  3.7657940    
 1.66657996E-06 5.56361172E-09  90461.221      90457.452     1.90802468E-04  3.7687221    
 1.67774445E-06 5.60088261E-09  92336.772      92333.007     1.96165103E-04  3.7649044    
 1.68898374E-06 5.63840317E-09  94177.092      94173.324     2.01361338E-04  3.7670567    
 1.70029832E-06 5.67617509E-09  96074.792      96071.025     2.06783598E-04  3.7675310    
 1.71168869E-06 5.71420004E-09  98045.340      98041.574     2.12502971E-04  3.7653804    
 1.72315537E-06 5.75247973E-09  99988.687      99984.919     2.18084512E-04  3.7683132    
 1.73469887E-06 5.79101585E-09  102047.38      102043.61     2.24150580E-04  3.7655508    
 1.74631969E-06 5.82981012E-09  104095.78      104092.01     2.30152730E-04  3.7666452    
 1.75801837E-06 5.86886429E-09  106178.41      106174.64     2.36283799E-04  3.7681777    
 1.76979541E-06 5.90818007E-09  108371.28      108367.52     2.42886995E-04  3.7649661    
 1.78165135E-06 5.94775924E-09  110519.37      110515.61     2.49267378E-04  3.7679037    
 1.79358672E-06 5.98760354E-09  112778.98      112775.21     2.56128496E-04  3.7661973    
 1.80560203E-06 6.02771477E-09  115058.86      115055.10     2.63060694E-04  3.7662329    
 1.81769784E-06 6.06809470E-09  117344.33      117340.56     2.69992511E-04  3.7688244    
 1.82987468E-06 6.10874514E-09  119784.49      119780.72     2.77615240E-04  3.7645512    
 1.84213310E-06 6.14966790E-09  122158.88      122155.11     2.84908792E-04  3.7674935    
 1.85447363E-06 6.19086481E-09  124638.89      124635.13     2.92668410E-04  3.7668438    
 1.86689683E-06 6.23233769E-09  127176.27      127172.50     3.00673793E-04  3.7658200    
 1.87940326E-06 6.27408840E-09  129696.75      129692.98     3.08570159E-04  3.7687478    
 1.89199346E-06 6.31611880E-09  132386.75      132382.99     3.17248364E-04  3.7648637    
 1.90466801E-06 6.35843077E-09  135023.91      135020.15     3.25646221E-04  3.7670826    
 1.91742747E-06 6.40102618E-09  137745.71      137741.94     3.34421133E-04  3.7674904    
 1.93027240E-06 6.44390694E-09  140569.50      140565.74     3.43664741E-04  3.7654064    
 1.94320339E-06 6.48707497E-09  143355.51      143351.74     3.52691257E-04  3.7683390    
 1.95622099E-06 6.53053217E-09  146308.15      146304.38     3.62507864E-04  3.7655102    
 1.96932581E-06 6.57428050E-09  149243.47      149239.70     3.72208270E-04  3.7666711    
 1.98251841E-06 6.61832191E-09  152230.47      152226.70     3.82130317E-04  3.7681370    
 1.99579939E-06 6.66265834E-09  155372.83      155369.07     3.92802428E-04  3.7649922    
 2.00916934E-06 6.70729179E-09  158452.32      158448.56     4.03120836E-04  3.7679295    
 2.02262885E-06 6.75222424E-09  161693.10      161689.33     4.14224124E-04  3.7661566    
 2.03617854E-06 6.79745770E-09  164960.09      164956.33     4.25427714E-04  3.7662589    
 2.04981899E-06 6.84299417E-09  168237.99      168234.23     4.36645702E-04  3.7687837    
 2.06355082E-06 6.88883570E-09  171734.67      171730.90     4.48965671E-04  3.7645773    
 2.07737464E-06 6.93498432E-09  175138.55      175134.78     4.60760861E-04  3.7675193    
 2.09129106E-06 6.98144209E-09  178695.41      178691.65     4.73318258E-04  3.7668032    
 2.10530072E-06 7.02821109E-09  182331.35      182327.58     4.86256389E-04  3.7658460    
 2.11940422E-06 7.07529339E-09  185944.63      185940.86     4.99026452E-04  3.7687735    
 2.13360221E-06 7.12269110E-09  189802.58      189798.82     5.13070135E-04  3.7648231    
 2.14789530E-06 7.17040633E-09  193581.45      193577.68     5.26642251E-04  3.7671085    
 2.16228415E-06 7.21844121E-09  197485.04      197481.28     5.40842784E-04  3.7674497    
 2.17676939E-06 7.26679787E-09  201531.36      201527.59     5.55782216E-04  3.7654325    
 2.19135167E-06 7.31547848E-09  205525.23      205521.47     5.70379962E-04  3.7683647    
 2.20603163E-06 7.36448520E-09  209759.82      209756.06     5.86265978E-04  3.7654695    
 2.22080994E-06 7.41382021E-09  213965.88      213962.12     6.01943316E-04  3.7666970    
 2.23568724E-06 7.46348573E-09  218249.81      218246.04     6.18000369E-04  3.7680964    
 2.25066421E-06 7.51348396E-09  222752.56      222748.79     6.35248655E-04  3.7650183    
 2.26574151E-06 7.56381713E-09  227167.10      227163.33     6.51935654E-04  3.7679552    
 2.28091982E-06 7.61448748E-09  231814.88      231811.11     6.69903983E-04  3.7661160    
 2.29619980E-06 7.66549727E-09  236496.15      236492.39     6.88010832E-04  3.7662848    
 2.31158215E-06 7.71684879E-09  241197.23      241193.46     7.06165247E-04  3.7687431    
 2.32706754E-06 7.76854430E-09  246207.63      246203.86     7.26076939E-04  3.7646034    
 2.34265667E-06 7.82058613E-09  251087.13      251083.36     7.45152196E-04  3.7675451    
 2.35835023E-06 7.87297659E-09  256188.18      256184.41     7.65473814E-04  3.7667625    
 2.37414893E-06 7.92571802E-09  261398.04      261394.28     7.86384121E-04  3.7658720    
 2.39005346E-06 7.97881276E-09  266577.69      266573.92     8.07035942E-04  3.7687992    
 2.40606454E-06 8.03226319E-09  272110.42      272106.66     8.29762390E-04  3.7647824    
 2.42218287E-06 8.08607168E-09  277525.02      277521.25     8.51696804E-04  3.7671343    
 2.43840918E-06 8.14024064E-09  283123.27      283119.51     8.74677646E-04  3.7674091    
 2.45474420E-06 8.19477248E-09  288921.09      288917.32     8.98822580E-04  3.7654585    
 2.47118864E-06 8.24966963E-09  294646.24      294642.47     9.22430135E-04  3.7683904    
 2.48774324E-06 8.30493454E-09  300719.05      300715.28     9.48138117E-04  3.7654289    
 2.50440875E-06 8.36056967E-09  306745.68      306741.91     9.73475055E-04  3.7667229    
 2.52118589E-06 8.41657750E-09  312889.31      312885.54     9.99460477E-04  3.7680557    
 2.53807543E-06 8.47296053E-09  319341.06      319337.29     1.02733715E-03  3.7650443    
 2.55507811E-06 8.52972128E-09  325669.13      325665.36     1.05432345E-03  3.7679810    
 2.57219470E-06 8.58686227E-09  332334.43      332330.66     1.08340136E-03  3.7660753    
 2.58942595E-06 8.64438604E-09  339041.87      339038.10     1.11266497E-03  3.7663107    
 2.60677263E-06 8.70229518E-09  345783.68      345779.91     1.14204477E-03  3.7687024    
 2.62423551E-06 8.76059224E-09  352962.71      352958.94     1.17422626E-03  3.7646295    
 2.64181539E-06 8.81927985E-09  359957.17      359953.40     1.20507485E-03  3.7675709    
 2.65951303E-06 8.87836060E-09  367272.41      367268.64     1.23796125E-03  3.7667218    
 2.67732922E-06 8.93783714E-09  374737.14      374733.37     1.27175595E-03  3.7658980    
 2.69526477E-06 8.99771211E-09  382161.77      382158.00     1.30515416E-03  3.7688248    
 2.71332047E-06 9.05798819E-09  390095.89      390092.12     1.34193160E-03  3.7647418    
 2.73149713E-06 9.11866806E-09  397853.84      397850.07     1.37738059E-03  3.7671602    
 2.74979555E-06 9.17975443E-09  405882.01      405878.24     1.41457062E-03  3.7673684    
 2.76821656E-06 9.24125002E-09  414189.04      414185.27     1.45359332E-03  3.7654845    
 2.78676096E-06 9.30315757E-09  422395.48      422391.71     1.49177154E-03  3.7684161    
 2.80542960E-06 9.36547984E-09  431103.98      431100.21     1.53337413E-03  3.7653882    
 2.82422330E-06 9.42821962E-09  439738.72      439734.95     1.57432237E-03  3.7667487    
 2.84314290E-06 9.49137968E-09  448548.88      448545.11     1.61637499E-03  3.7680150    
 2.86218924E-06 9.55496287E-09  457792.71      457788.95     1.66142917E-03  3.7650704    
 2.88136318E-06 9.61897199E-09  466863.24      466859.47     1.70507151E-03  3.7680068    
 2.90066556E-06 9.68340992E-09  476421.25      476417.48     1.75212783E-03  3.7660347    
 2.92009725E-06 9.74827952E-09  486031.29      486027.52     1.79942250E-03  3.7663367    
 2.93965911E-06 9.81358368E-09  495699.14      495695.37     1.84696860E-03  3.7686617    
 2.95935202E-06 9.87932532E-09  505984.83      505981.07     1.89898057E-03  3.7646556    
 2.97917685E-06 9.94550737E-09  516010.38      516006.61     1.94886900E-03  3.7675967    
 2.99913449E-06 1.00121328E-08  526500.27      526496.50     2.00208885E-03  3.7666812    
 3.01922583E-06 1.00792045E-08  537195.13      537191.37     2.05670688E-03  3.7659239    
 3.03945176E-06 1.01467255E-08  547837.15      547833.38     2.11071855E-03  3.7688505    
 3.05981319E-06 1.02146989E-08  559214.23      559210.46     2.17023413E-03  3.7647012    
 3.08031101E-06 1.02831276E-08  570329.02      570325.25     2.22752440E-03  3.7671860    
 3.10094616E-06 1.03520148E-08  581841.10      581837.33     2.28770915E-03  3.7673278    
 3.12171953E-06 1.04213634E-08  593742.54      593738.77     2.35077697E-03  3.7655105    
 3.14263207E-06 1.04911766E-08  605504.94      605501.17     2.41251886E-03  3.7684418    
 3.16368471E-06 1.05614574E-08  617992.27      617988.50     2.47984318E-03  3.7653476    
 3.18487837E-06 1.06322091E-08  630363.02      630359.25     2.54602147E-03  3.7667746    
 3.20621402E-06 1.07034348E-08  642996.27      642992.50     2.61407578E-03  3.7679744    
 3.22769259E-06 1.07751376E-08  656239.64      656235.87     2.68689209E-03  3.7650964    
 3.24931505E-06 1.08473207E-08  669240.30      669236.53     2.75747052E-03  3.7680325    
 3.27108236E-06 1.09199874E-08  682945.56      682941.80     2.83362090E-03  3.7659940    
 3.29299549E-06 1.09931409E-08  696713.37      696709.60     2.91005651E-03  3.7663626    
 3.31505541E-06 1.10667844E-08  710576.29      710572.52     2.98700146E-03  3.7686211    
 3.33726312E-06 1.11409213E-08  725312.04      725308.27     3.07106346E-03  3.7646817    
 3.35961959E-06 1.12155548E-08  739681.23      739677.46     3.15174306E-03  3.7676225    
 3.38212584E-06 1.12906884E-08  754722.50      754718.73     3.23786827E-03  3.7666405    
 3.40478285E-06 1.13663252E-08  770044.20      770040.43     3.32614021E-03  3.7659499    
 3.42759164E-06 1.14424687E-08  785296.78      785293.01     3.41348787E-03  3.7688762    
 3.45055323E-06 1.15191223E-08  801609.73      801605.96     3.50979960E-03  3.7646605    
 3.47366865E-06 1.15962894E-08  817532.77      817529.00     3.60238811E-03  3.7672119    
 3.49693891E-06 1.16739735E-08  834039.47      834035.70     3.69978512E-03  3.7672871    
 3.52036506E-06 1.17521780E-08  851089.41      851085.64     3.80171406E-03  3.7655365    
 3.54394814E-06 1.18309064E-08  867947.43      867943.66     3.90156301E-03  3.7684676    
 3.56768921E-06 1.19101621E-08  885852.01      885848.24     4.01051191E-03  3.7653069    
 3.59158932E-06 1.19899488E-08  903574.00      903570.23     4.11746541E-03  3.7668005    
 3.61564954E-06 1.20702701E-08  921688.02      921684.25     4.22759838E-03  3.7679337    
 3.63987094E-06 1.21511293E-08  940660.02      940656.25     4.34528344E-03  3.7651225    
 3.66425460E-06 1.22325303E-08  959292.34      959288.57     4.45942280E-03  3.7680583    
 3.68880161E-06 1.23144766E-08  978942.89      978939.12     4.58265534E-03  3.7659534    
 3.71351306E-06 1.23969718E-08  998665.86      998662.08     4.70618704E-03  3.7697646    
 3.73839005E-06 1.24800197E-08  1018542.7      1018538.9     4.83070859E-03  3.8134880    
 3.76343369E-06 1.25636239E-08  1039652.3      1039648.4     4.96656973E-03  3.9191957    
 3.78864510E-06 1.26477882E-08  1060245.7      1060241.7     5.09704465E-03  4.0251885    
 3.81402541E-06 1.27325163E-08  1081811.5      1081807.4     5.23642002E-03  4.1364015    
 3.83957574E-06 1.28178120E-08  1103760.2      1103755.9     5.37908207E-03  4.2478301    
 3.86529723E-06 1.29036791E-08  1125619.2      1125614.9     5.52034050E-03  4.3562252    
 3.89119103E-06 1.29901214E-08  1149007.7      1149003.2     5.67619767E-03  4.4734802    
 3.91725829E-06 1.30771428E-08  1171817.4      1171812.8     5.82583240E-03  4.5888586    
 3.94350018E-06 1.31647472E-08  1195484.0      1195479.2     5.98344972E-03  4.7128607    
 3.96991787E-06 1.32529384E-08  1219907.8      1219902.9     6.14818488E-03  4.8402153    
 3.99651253E-06 1.33417205E-08  1244067.1      1244062.2     6.30966031E-03  4.9628455    
 4.02328535E-06 1.34310972E-08  1269737.1      1269732.0     6.48596863E-03  5.0936961    
 4.05023752E-06 1.35210728E-08  1295123.2      1295118.0     6.65882031E-03  5.2196829    
 4.07737024E-06 1.36116511E-08  1321093.8      1321088.4     6.83704925E-03  5.3477059    
 4.10468473E-06 1.37028361E-08  1348270.3      1348264.8     7.02725038E-03  5.4876591    
 4.13218219E-06 1.37946320E-08  1374971.8      1374966.2     7.21183612E-03  5.6262388    
