 OPTXAGNF AGN Spectrum Model Parameters: NLS, Astar 0.0                          
 M_BH:  1.0000E+06 M_0            L  :  0.1000     L/Ledd 
 D   :  1.5000E+18 cm             z  :   0.000     redshift 
 Rcor:   40.00     Rg             Ro :   4.000     Rg 
 C_T :  0.2000     keV            Tau:   15.00     Optical Depth 
 gam :   2.200     (-slope)       fpl:  0.2000     Fraction 
 E              0.5DeltaE      E.FE total     E.FE Disk      E.FE Compton   E.FE NonThermal
 (keV)          (keV)          E.E/cm2/s/E    E.E/cm2/s/E    E.E/cm2/s/E    E.E/cm2/s/E    
 1.00334952E-06 3.34952256E-09  13294.197      13293.461     1.90518004E-05 0.73512623    
 1.01007101E-06 3.37196116E-09  13557.749      13557.013     1.95523529E-05 0.73570110    
 1.01683752E-06 3.39455008E-09  13832.412      13831.677     2.00830922E-05 0.73563914    
 1.02364936E-06 3.41729032E-09  14114.663      14113.927     2.06342442E-05 0.73537414    
 1.03050683E-06 3.44018290E-09  14394.434      14393.698     2.11761681E-05 0.73594617    
 1.03741024E-06 3.46322884E-09  14692.370      14691.635     2.17697918E-05 0.73525245    
 1.04435990E-06 3.48642917E-09  14985.737      14985.002     2.23480332E-05 0.73562082    
 1.05135611E-06 3.50978492E-09  15287.179      15286.443     2.29481974E-05 0.73576541    
 1.05839920E-06 3.53329712E-09  15601.290      15600.555     2.35845752E-05 0.73529333    
 1.06548946E-06 3.55696684E-09  15910.539      15909.804     2.42040608E-05 0.73586629    
 1.07262722E-06 3.58079512E-09  16237.566      16236.831     2.48755361E-05 0.73537869    
 1.07981280E-06 3.60478303E-09  16564.102      16563.367     2.55434395E-05 0.73554042    
 1.08704652E-06 3.62893164E-09  16894.917      16894.181     2.62220410E-05 0.73589169    
 1.09432869E-06 3.65324201E-09  17244.467      17243.732     2.69567382E-05 0.73521239    
 1.10165965E-06 3.67771524E-09  17586.300      17585.564     2.76648859E-05 0.73578628    
 1.10903971E-06 3.70235243E-09  17945.241      17944.505     2.84243500E-05 0.73550494    
 1.11646922E-06 3.72715465E-09  18308.675      18307.940     2.91957230E-05 0.73545988    
 1.12394850E-06 3.75212303E-09  18671.708      18670.972     2.99629333E-05 0.73601798    
 1.13147788E-06 3.77725867E-09  19060.673      19059.938     3.08110439E-05 0.73513133    
 1.13905770E-06 3.80256270E-09  19438.521      19437.786     3.16205427E-05 0.73570614    
 1.14668830E-06 3.82803623E-09  19832.473      19831.738     3.24794417E-05 0.73563120    
 1.15437002E-06 3.85368042E-09  20236.953      20236.217     3.33702055E-05 0.73537921    
 1.16210319E-06 3.87949640E-09  20638.050      20637.314     3.42466101E-05 0.73595119    
 1.16988818E-06 3.90548532E-09  21065.376      21064.641     3.52072573E-05 0.73524452    
 1.17772531E-06 3.93164835E-09  21485.780      21485.044     3.61417805E-05 0.73562587    
 1.18561494E-06 3.95798663E-09  21918.137      21917.402     3.71130363E-05 0.73575747    
 1.19355743E-06 3.98450137E-09  22368.272      22367.536     3.81415481E-05 0.73529841    
 1.20155313E-06 4.01119372E-09  22811.627      22810.891     3.91433862E-05 0.73587132    
 1.20960239E-06 4.03806489E-09  23280.673      23279.938     4.02300250E-05 0.73537075    
 1.21770557E-06 4.06511607E-09  23748.606      23747.870     4.13094635E-05 0.73554548    
 1.22586303E-06 4.09234846E-09  24223.090      24222.354     4.24076625E-05 0.73588375    
 1.23407514E-06 4.11976329E-09  24724.005      24723.269     4.35950861E-05 0.73521749    
 1.24234227E-06 4.14736177E-09  25214.068      25213.332     4.47403093E-05 0.73579132    
 1.25066478E-06 4.17514513E-09  25728.885      25728.149     4.59693464E-05 0.73549700    
 1.25904304E-06 4.20311462E-09  26249.689      26248.953     4.72160175E-05 0.73546495    
 1.26747742E-06 4.23127147E-09  26770.380      26769.644     4.84576224E-05 0.73601004    
 1.27596831E-06 4.25961695E-09  27327.772      27327.037     4.98283550E-05 0.73513643    
 1.28451608E-06 4.28815232E-09  27869.463      27868.727     5.11374841E-05 0.73571119    
 1.29312111E-06 4.31687884E-09  28434.490      28433.755     5.25274444E-05 0.73562326    
 1.30178379E-06 4.34579781E-09  29014.107      29013.371     5.39670821E-05 0.73538429    
 1.31050450E-06 4.37491051E-09  29589.125      29588.389     5.53844115E-05 0.73595621    
 1.31928362E-06 4.40421823E-09  30202.007      30201.272     5.69390023E-05 0.73523658    
 1.32812156E-06 4.43372228E-09  30804.435      30803.699     5.84493273E-05 0.73563093    
 1.33701871E-06 4.46342399E-09  31424.541      31423.805     6.00211248E-05 0.73574953    
 1.34597546E-06 4.49332467E-09  32069.574      32068.839     6.16834005E-05 0.73530350    
 1.35499221E-06 4.52342565E-09  32705.166      32704.430     6.33035818E-05 0.73587634    
 1.36406936E-06 4.55372829E-09  33377.880      33377.145     6.50620716E-05 0.73536282    
 1.37320733E-06 4.58423392E-09  34048.409      34047.673     6.68066142E-05 0.73555053    
 1.38240650E-06 4.61494391E-09  34728.930      34728.194     6.85838568E-05 0.73587581    
 1.39166731E-06 4.64585962E-09  35446.723      35445.988     7.05029782E-05 0.73522258    
 1.40099015E-06 4.67698245E-09  36149.267      36148.531     7.23550428E-05 0.73579635    
 1.41037545E-06 4.70831376E-09  36887.619      36886.884     7.43439850E-05 0.73548906    
 1.41982361E-06 4.73985497E-09  37633.904      37633.168     7.63588169E-05 0.73547001    
 1.42933508E-06 4.77160747E-09  38380.689      38379.953     7.83681497E-05 0.73600210    
 1.43891026E-06 4.80357269E-09  39179.406      39178.671     8.05835514E-05 0.73514153    
 1.44854958E-06 4.83575204E-09  39955.951      39955.216     8.27006854E-05 0.73571623    
 1.45825348E-06 4.86814696E-09  40766.309      40765.573     8.49500620E-05 0.73561532    
 1.46802239E-06 4.90075889E-09  41596.859      41596.124     8.72767776E-05 0.73538936    
 1.47785673E-06 4.93358930E-09  42421.176      42420.440     8.95688935E-05 0.73596123    
 1.48775696E-06 4.96663964E-09  43300.149      43299.413     9.20846448E-05 0.73522864    
 1.49772351E-06 4.99991138E-09  44163.375      44162.639     9.45255461E-05 0.73563598    
 1.50775683E-06 5.03340601E-09  45052.718      45051.982     9.70692058E-05 0.73574159    
 1.51785736E-06 5.06712502E-09  45976.996      45976.261     9.97557638E-05 0.73530858    
 1.52802556E-06 5.10106992E-09  46888.136      46887.400     1.02375933E-04 0.73588137    
 1.53826187E-06 5.13524222E-09  47852.908      47852.173     1.05221665E-04 0.73535488    
 1.54856676E-06 5.16964344E-09  48813.706      48812.970     1.08041116E-04 0.73555559    
 1.55894067E-06 5.20427512E-09  49789.685      49788.949     1.10917268E-04 0.73586787    
 1.56938409E-06 5.23913879E-09  50818.211      50817.476     1.14018960E-04 0.73522767    
 1.57989746E-06 5.27423602E-09  51825.315      51824.579     1.17014132E-04 0.73580138    
 1.59048127E-06 5.30956836E-09  52884.213      52883.477     1.20232819E-04 0.73548113    
 1.60113597E-06 5.34513740E-09  53953.548      53952.812     1.23489125E-04 0.73547508    
 1.61186206E-06 5.38094472E-09  55024.551      55023.815     1.26740894E-04 0.73599416    
 1.62265999E-06 5.41699191E-09  56169.018      56168.283     1.30321460E-04 0.73514663    
 1.63353026E-06 5.45328058E-09  57282.189      57281.453     1.33745302E-04 0.73572127    
 1.64447336E-06 5.48981235E-09  58444.340      58443.604     1.37385470E-04 0.73560738    
 1.65548976E-06 5.52658885E-09  59634.403      59633.668     1.41145859E-04 0.73539444    
 1.66657996E-06 5.56361172E-09  60816.043      60815.307     1.44852683E-04 0.73596624    
 1.67774445E-06 5.60088261E-09  62076.570      62075.834     1.48923848E-04 0.73522071    
 1.68898374E-06 5.63840317E-09  63313.435      63312.699     1.52868688E-04 0.73564103    
 1.70029832E-06 5.67617509E-09  64588.847      64588.111     1.56985119E-04 0.73573365    
 1.71168869E-06 5.71420004E-09  65913.192      65912.457     1.61327109E-04 0.73531367    
 1.72315537E-06 5.75247973E-09  67219.273      67218.537     1.65564461E-04 0.73588639    
 1.73469887E-06 5.79101585E-09  68602.828      68602.093     1.70169650E-04 0.73534694    
 1.74631969E-06 5.82981012E-09  69979.480      69978.744     1.74726315E-04 0.73556065    
 1.75801837E-06 5.86886429E-09  71379.123      71378.387     1.79380851E-04 0.73585993    
 1.76979541E-06 5.90818007E-09  72852.818      72852.083     1.84393811E-04 0.73523276    
 1.78165135E-06 5.94775924E-09  74296.438      74295.702     1.89237618E-04 0.73580642    
 1.79358672E-06 5.98760354E-09  75814.959      75814.223     1.94446384E-04 0.73547319    
 1.80560203E-06 6.02771477E-09  77347.103      77346.368     1.99709110E-04 0.73548015    
 1.81769784E-06 6.06809470E-09  78883.003      78882.267     2.04971548E-04 0.73598621    
 1.82987468E-06 6.10874514E-09  80522.798      80522.063     2.10758503E-04 0.73515173    
 1.84213310E-06 6.14966790E-09  82118.433      82117.697     2.16295558E-04 0.73572631    
 1.85447363E-06 6.19086481E-09  83785.006      83784.270     2.22186436E-04 0.73559944    
 1.86689683E-06 6.23233769E-09  85490.106      85489.370     2.28263889E-04 0.73539951    
 1.87940326E-06 6.27408840E-09  87183.869      87183.133     2.34258580E-04 0.73597126    
 1.89199346E-06 6.31611880E-09  88991.474      88990.739     2.40846817E-04 0.73521277    
 1.90466801E-06 6.35843077E-09  90763.605      90762.869     2.47222222E-04 0.73564608    
 1.91742747E-06 6.40102618E-09  92592.577      92591.841     2.53883876E-04 0.73572571    
 1.93027240E-06 6.44390694E-09  94490.046      94489.310     2.60901347E-04 0.73531875    
 1.94320339E-06 6.48707497E-09  96362.150      96361.414     2.67754009E-04 0.73589142    
 1.95622099E-06 6.53053217E-09  98346.155      98345.420     2.75206482E-04 0.73533900    
 1.96932581E-06 6.57428050E-09  100318.54      100317.80     2.82570738E-04 0.73556571    
 1.98251841E-06 6.61832191E-09  102325.63      102324.90     2.90103256E-04 0.73585199    
 1.99579939E-06 6.66265834E-09  104437.05      104436.32     2.98205197E-04 0.73523785    
 2.00916934E-06 6.70729179E-09  106506.27      106505.53     3.06038619E-04 0.73581145    
 2.02262885E-06 6.75222424E-09  108683.78      108683.05     3.14467893E-04 0.73546525    
 2.03617854E-06 6.79745770E-09  110878.91      110878.17     3.22973313E-04 0.73548521    
 2.04981899E-06 6.84299417E-09  113081.37      113080.64     3.31489664E-04 0.73597827    
 2.06355082E-06 6.88883570E-09  115430.73      115429.99     3.40842599E-04 0.73515683    
 2.07737464E-06 6.93498432E-09  117717.79      117717.06     3.49797141E-04 0.73573135    
 2.09129106E-06 6.98144209E-09  120107.58      120106.84     3.59330322E-04 0.73559150    
 2.10530072E-06 7.02821109E-09  122550.46      122549.73     3.69152543E-04 0.73540459    
 2.11940422E-06 7.07529339E-09  124978.15      124977.41     3.78847172E-04 0.73597627    
 2.13360221E-06 7.12269110E-09  127570.11      127569.37     3.89508688E-04 0.73520483    
 2.14789530E-06 7.17040633E-09  130108.98      130108.25     3.99812206E-04 0.73565112    
 2.16228415E-06 7.21844121E-09  132731.60      132730.87     4.10592796E-04 0.73571777    
 2.17676939E-06 7.26679787E-09  135450.05      135449.31     4.21934330E-04 0.73532383    
 2.19135167E-06 7.31547848E-09  138133.30      138132.57     4.33016468E-04 0.73589644    
 2.20603163E-06 7.36448520E-09  140978.16      140977.42     4.45076613E-04 0.73533106    
 2.22080994E-06 7.41382021E-09  143803.88      143803.14     4.56978337E-04 0.73557077    
 2.23568724E-06 7.46348573E-09  146681.88      146681.14     4.69168326E-04 0.73584405    
 2.25066421E-06 7.51348396E-09  149706.78      149706.05     4.82262654E-04 0.73524294    
 2.26574151E-06 7.56381713E-09  152672.50      152671.76     4.94930874E-04 0.73581648    
 2.28091982E-06 7.61448748E-09  155794.78      155794.04     5.08571830E-04 0.73545731    
 2.29619980E-06 7.66549727E-09  158939.56      158938.82     5.22317945E-04 0.73549028    
 2.31158215E-06 7.71684879E-09  162097.65      162096.91     5.36100170E-04 0.73597033    
 2.32706754E-06 7.76854430E-09  165463.37      165462.63     5.51216452E-04 0.73516193    
 2.34265667E-06 7.82058613E-09  168741.25      168740.52     5.65697743E-04 0.73573639    
 2.35835023E-06 7.87297659E-09  172167.85      172167.11     5.81125224E-04 0.73558356    
 2.37414893E-06 7.92571802E-09  175667.50      175666.77     5.96999612E-04 0.73540966    
 2.39005346E-06 7.97881276E-09  179146.89      179146.15     6.12677769E-04 0.73598129    
 2.40606454E-06 8.03226319E-09  182863.26      182862.53     6.29930900E-04 0.73519689    
 2.42218287E-06 8.08607168E-09  186500.38      186499.64     6.46582749E-04 0.73565617    
 2.43840918E-06 8.14024064E-09  190260.77      190260.03     6.64029005E-04 0.73570983    
 2.45474420E-06 8.19477248E-09  194155.10      194154.36     6.82358992E-04 0.73532891    
 2.47118864E-06 8.24966963E-09  198000.69      197999.95     7.00281021E-04 0.73590147    
 2.48774324E-06 8.30493454E-09  202079.61      202078.87     7.19797610E-04 0.73532313    
 2.50440875E-06 8.36056967E-09  206127.56      206126.82     7.39032515E-04 0.73557582    
 2.52118589E-06 8.41657750E-09  210254.05      210253.32     7.58759723E-04 0.73583611    
 2.53807543E-06 8.47296053E-09  214587.32      214586.59     7.79922689E-04 0.73524803    
 2.55507811E-06 8.52972128E-09  218837.63      218836.90     8.00409721E-04 0.73582151    
 2.57219470E-06 8.58686227E-09  223314.25      223313.51     8.22484616E-04 0.73544937    
 2.58942595E-06 8.64438604E-09  227819.17      227818.43     8.44700485E-04 0.73549534    
 2.60677263E-06 8.70229518E-09  232347.18      232346.44     8.67004566E-04 0.73894663    
 2.62423551E-06 8.76059224E-09  237168.59      237167.83     8.91435562E-04 0.75620573    
 2.64181539E-06 8.81927985E-09  241866.20      241865.42     9.14854683E-04 0.77681115    
 2.65951303E-06 8.87836060E-09  246779.06      246778.26     9.39820818E-04 0.79842534    
 2.67732922E-06 8.93783714E-09  251792.25      251791.43     9.65476494E-04 0.82016672    
 2.69526477E-06 8.99771211E-09  256778.57      256777.73     9.90831173E-04 0.84126716    
 2.71332047E-06 9.05798819E-09  262106.74      262105.88     1.01875122E-03 0.86397745    
 2.73149713E-06 9.11866806E-09  267316.75      267315.87     1.04566275E-03 0.88596678    
 2.74979555E-06 9.17975443E-09  272708.09      272707.18     1.07389602E-03 0.90977060    
 2.76821656E-06 9.24125002E-09  278286.53      278285.59     1.10352056E-03 0.93462080    
 2.78676096E-06 9.30315757E-09  283797.52      283796.57     1.13250401E-03 0.95849229    
 2.80542960E-06 9.36547984E-09  289645.36      289644.37     1.16408709E-03 0.98393191    
 2.82422330E-06 9.42821962E-09  295443.75      295442.74     1.19517341E-03  1.0085068    
 2.84314290E-06 9.49137968E-09  301359.85      301358.82     1.22709813E-03  1.0332872    
 2.86218924E-06 9.55496287E-09  307566.90      307565.84     1.26130150E-03  1.0599192    
 2.88136318E-06 9.61897199E-09  313657.74      313656.65     1.29443305E-03  1.0866385    
 2.90066556E-06 9.68340992E-09  320075.61      320074.49     1.33015635E-03  1.1151475    
 2.92009725E-06 9.74827952E-09  326528.41      326527.27     1.36606059E-03  1.1432338    
 2.93965911E-06 9.81358368E-09  333020.04      333018.87     1.40215571E-03  1.1710052    
 2.95935202E-06 9.87932532E-09  339926.11      339924.91     1.44164110E-03  1.2005671    
 2.97917685E-06 9.94550737E-09  346657.74      346656.51     1.47951440E-03  1.2286130    
 2.99913449E-06 1.00121328E-08  353700.87      353699.60     1.51991676E-03  1.2586997    
 3.01922583E-06 1.00792045E-08  360881.50      360880.20     1.56138055E-03  1.2905571    
 3.03945176E-06 1.01467255E-08  368026.74      368025.42     1.60238401E-03  1.3218122    
 3.05981319E-06 1.02146989E-08  375665.00      375663.65     1.64756578E-03  1.3553205    
 3.08031101E-06 1.02831276E-08  383127.42      383126.03     1.69105820E-03  1.3871413    
 3.10094616E-06 1.03520148E-08  390856.32      390854.89     1.73674797E-03  1.4198597    
 3.12171953E-06 1.04213634E-08  398846.37      398844.91     1.78462643E-03  1.4534109    
 3.14263207E-06 1.04911766E-08  406743.25      406741.76     1.83149830E-03  1.4869876    
 3.16368471E-06 1.05614574E-08  415126.29      415124.77     1.88260808E-03  1.5243675    
 3.18487837E-06 1.06322091E-08  423431.23      423429.67     1.93284785E-03  1.5607286    
 3.20621402E-06 1.07034348E-08  431912.25      431910.65     1.98451179E-03  1.5974348    
 3.22769259E-06 1.07751376E-08  440802.42      440800.78     2.03979081E-03  1.6356579    
 3.24931505E-06 1.08473207E-08  449529.93      449528.25     2.09337094E-03  1.6723281    
 3.27108236E-06 1.09199874E-08  458729.92      458728.21     2.15118102E-03  1.7108843    
 3.29299549E-06 1.09931409E-08  467971.92      467970.17     2.20920762E-03  1.7506021    
 3.31505541E-06 1.10667844E-08  477277.77      477275.97     2.26762089E-03  1.7916319    
 3.33726312E-06 1.11409213E-08  487168.85      487167.01     2.33143706E-03  1.8353104    
 3.35961959E-06 1.12155548E-08  496814.27      496812.39     2.39268548E-03  1.8768133    
 3.38212584E-06 1.12906884E-08  506910.33      506908.40     2.45806792E-03  1.9199977    
 3.40478285E-06 1.13663252E-08  517194.45      517192.48     2.52508005E-03  1.9633468    
 3.42759164E-06 1.14424687E-08  527432.34      527430.33     2.59139051E-03  2.0058761    
 3.45055323E-06 1.15191223E-08  538381.11      538379.05     2.66450602E-03  2.0534205    
 3.47366865E-06 1.15962894E-08  549068.60      549066.50     2.73479505E-03  2.1005586    
 3.49693891E-06 1.16739735E-08  560147.43      560145.28     2.80873445E-03  2.1490515    
 3.52036506E-06 1.17521780E-08  571590.46      571588.26     2.88611424E-03  2.1985700    
 3.54394814E-06 1.18309064E-08  582904.97      582902.72     2.96191501E-03  2.2466031    
 3.56768921E-06 1.19101621E-08  594921.02      594918.72     3.04462396E-03  2.2973046    
 3.59158932E-06 1.19899488E-08  606814.79      606812.44     3.12581812E-03  2.3468238    
 3.61564954E-06 1.20702701E-08  618971.43      618969.03     3.20942596E-03  2.3994278    
 3.63987094E-06 1.21511293E-08  631703.17      631700.71     3.29876692E-03  2.4560062    
 3.66425460E-06 1.22325303E-08  644207.39      644204.88     3.38541618E-03  2.5103764    
 3.68880161E-06 1.23144766E-08  657394.10      657391.53     3.47896848E-03  2.5673725    
 3.71351306E-06 1.23969718E-08  670629.44      670626.82     3.57274788E-03  2.6236069    
 3.73839005E-06 1.24800197E-08  683968.04      683965.35     3.66727871E-03  2.6795040    
 3.76343369E-06 1.25636239E-08  698132.73      698129.99     3.77041793E-03  2.7388394    
 3.78864510E-06 1.26477882E-08  711951.64      711948.84     3.86946821E-03  2.7988965    
 3.81402541E-06 1.27325163E-08  726422.32      726419.45     3.97527522E-03  2.8628922    
 3.83957574E-06 1.28178120E-08  741149.59      741146.66     4.08357728E-03  2.9271252    
 3.86529723E-06 1.29036791E-08  755817.03      755814.03     4.19081379E-03  2.9900556    
 3.89119103E-06 1.29901214E-08  771509.28      771506.22     4.30913282E-03  3.0569279    
 3.91725829E-06 1.30771428E-08  786813.89      786810.77     4.42272812E-03  3.1208878    
 3.94350018E-06 1.31647472E-08  802692.73      802689.54     4.54238334E-03  3.1873419    
 3.96991787E-06 1.32529384E-08  819079.05      819075.79     4.66744200E-03  3.2591637    
 3.99651253E-06 1.33417205E-08  835288.36      835285.03     4.79002605E-03  3.3303586    
 4.02328535E-06 1.34310972E-08  852509.79      852506.38     4.92387036E-03  3.4055949    
 4.05023752E-06 1.35210728E-08  869541.22      869537.74     5.05509058E-03  3.4786066    
 4.07737024E-06 1.36116511E-08  886964.34      886960.79     5.19039289E-03  3.5524360    
 4.10468473E-06 1.37028361E-08  905195.42      905191.79     5.33478377E-03  3.6287889    
 4.13218219E-06 1.37946320E-08  923108.50      923104.79     5.47491177E-03  3.7039387    
