 OPTXAGNF AGN Spectrum Model Parameters: NLS, Astar 0.0                          
 M_BH:  1.0000E+06 M_0            L  :  0.3000     L/Ledd 
 D   :  1.5000E+18 cm             z  :   0.000     redshift 
 Rcor:   40.00     Rg             Ro :   4.000     Rg 
 C_T :  0.2000     keV            Tau:   15.00     Optical Depth 
 gam :   2.200     (-slope)       fpl:  0.2000     Fraction 
 E              0.5DeltaE      E.FE total     E.FE Disk      E.FE Compton   E.FE NonThermal
 (keV)          (keV)          E.E/cm2/s/E    E.E/cm2/s/E    E.E/cm2/s/E    E.E/cm2/s/E    
 1.00334952E-06 3.34952256E-09  17438.635      17436.394     2.29329882E-05  2.2410613    
 1.01007101E-06 3.37196116E-09  17784.372      17782.129     2.35355132E-05  2.2428138    
 1.01683752E-06 3.39455008E-09  18144.686      18142.444     2.41743748E-05  2.2426249    
 1.02364936E-06 3.41729032E-09  18514.956      18512.714     2.48378076E-05  2.2418171    
 1.03050683E-06 3.44018290E-09  18881.972      18879.728     2.54901322E-05  2.2435609    
 1.03741024E-06 3.46322884E-09  19272.822      19270.581     2.62046891E-05  2.2414461    
 1.04435990E-06 3.48642917E-09  19657.679      19655.436     2.69007300E-05  2.2425691    
 1.05135611E-06 3.50978492E-09  20053.129      20050.886     2.76231600E-05  2.2430099    
 1.05839920E-06 3.53329712E-09  20465.203      20462.962     2.83891810E-05  2.2415707    
 1.06548946E-06 3.55696684E-09  20870.898      20868.655     2.91348685E-05  2.2433174    
 1.07262722E-06 3.58079512E-09  21299.919      21297.678     2.99431373E-05  2.2418310    
 1.07981280E-06 3.60478303E-09  21728.297      21726.055     3.07471065E-05  2.2423240    
 1.08704652E-06 3.62893164E-09  22162.289      22160.045     3.15639533E-05  2.2433948    
 1.09432869E-06 3.65324201E-09  22620.864      22618.622     3.24483236E-05  2.2413240    
 1.10165965E-06 3.67771524E-09  23069.313      23067.070     3.33007359E-05  2.2430735    
 1.10903971E-06 3.70235243E-09  23540.211      23537.969     3.42149189E-05  2.2422158    
 1.11646922E-06 3.72715465E-09  24017.005      24014.763     3.51434368E-05  2.2420784    
 1.12394850E-06 3.75212303E-09  24493.272      24491.028     3.60669442E-05  2.2437798    
 1.13147788E-06 3.77725867E-09  25003.567      25001.326     3.70878331E-05  2.2410769    
 1.13905770E-06 3.80256270E-09  25499.275      25497.032     3.80622441E-05  2.2428292    
 1.14668830E-06 3.82803623E-09  26016.114      26013.871     3.90961193E-05  2.2426007    
 1.15437002E-06 3.85368042E-09  26546.767      26544.525     4.01683510E-05  2.2418325    
 1.16210319E-06 3.87949640E-09  27072.983      27070.739     4.12232982E-05  2.2435762    
 1.16988818E-06 3.90548532E-09  27633.616      27631.374     4.23796502E-05  2.2414219    
 1.17772531E-06 3.93164835E-09  28185.166      28182.923     4.35045561E-05  2.2425845    
 1.18561494E-06 3.95798663E-09  28752.401      28750.158     4.46736780E-05  2.2429857    
 1.19355743E-06 3.98450137E-09  29342.965      29340.723     4.59117205E-05  2.2415862    
 1.20155313E-06 4.01119372E-09  29924.632      29922.389     4.71176552E-05  2.2433327    
 1.20960239E-06 4.03806489E-09  30540.014      30537.772     4.84256665E-05  2.2418068    
 1.21770557E-06 4.06511607E-09  31153.933      31151.691     4.97250107E-05  2.2423394    
 1.22586303E-06 4.09234846E-09  31776.450      31774.207     5.10469374E-05  2.2433706    
 1.23407514E-06 4.11976329E-09  32433.652      32431.410     5.24762660E-05  2.2413395    
 1.24234227E-06 4.14736177E-09  33076.613      33074.370     5.38547970E-05  2.2430889    
 1.25066478E-06 4.17514513E-09  33752.059      33749.817     5.53342169E-05  2.2421916    
 1.25904304E-06 4.20311462E-09  34435.361      34433.119     5.68348633E-05  2.2420939    
 1.26747742E-06 4.23127147E-09  35118.514      35116.271     5.83294115E-05  2.2437556    
 1.27596831E-06 4.25961695E-09  35849.835      35847.593     5.99793941E-05  2.2410924    
 1.28451608E-06 4.28815232E-09  36560.546      36558.304     6.15552228E-05  2.2428446    
 1.29312111E-06 4.31687884E-09  37301.885      37299.642     6.32283502E-05  2.2425765    
 1.30178379E-06 4.34579781E-09  38062.370      38060.128     6.49612757E-05  2.2418480    
 1.31050450E-06 4.37491051E-09  38816.818      38814.575     6.66673482E-05  2.2435915    
 1.31928362E-06 4.40421823E-09  39620.961      39618.719     6.85386458E-05  2.2413977    
 1.32812156E-06 4.43372228E-09  40411.382      40409.140     7.03566596E-05  2.2425999    
 1.33701871E-06 4.46342399E-09  41225.004      41222.761     7.22486694E-05  2.2429615    
 1.34597546E-06 4.49332467E-09  42071.341      42069.099     7.42495903E-05  2.2416017    
 1.35499221E-06 4.52342565E-09  42905.285      42903.042     7.61998411E-05  2.2433481    
 1.36406936E-06 4.55372829E-09  43787.951      43785.709     7.83165776E-05  2.2417826    
 1.37320733E-06 4.58423392E-09  44667.748      44665.506     8.04165255E-05  2.2423548    
 1.38240650E-06 4.61494391E-09  45560.658      45558.415     8.25558354E-05  2.2433464    
 1.39166731E-06 4.64585962E-09  46502.489      46500.247     8.48659286E-05  2.2413550    
 1.40099015E-06 4.67698245E-09  47424.302      47422.059     8.70953038E-05  2.2431042    
 1.41037545E-06 4.70831376E-09  48393.115      48390.873     8.94894425E-05  2.2421674    
 1.41982361E-06 4.73985497E-09  49372.337      49370.095     9.19147452E-05  2.2421093    
 1.42933508E-06 4.77160747E-09  50352.215      50349.971     9.43334286E-05  2.2437314    
 1.43891026E-06 4.80357269E-09  51400.257      51398.016     9.70001631E-05  2.2411080    
 1.44854958E-06 4.83575204E-09  52419.195      52416.952     9.95486098E-05  2.2428599    
 1.45825348E-06 4.86814696E-09  53482.513      53480.271     1.02256241E-04  2.2425523    
 1.46802239E-06 4.90075889E-09  54572.336      54570.094     1.05056967E-04  2.2418635    
 1.47785673E-06 4.93358930E-09  55653.973      55651.729     1.07816045E-04  2.2436068    
 1.48775696E-06 4.96663964E-09  56807.352      56805.111     1.10844319E-04  2.2413735    
 1.49772351E-06 4.99991138E-09  57940.060      57937.818     1.13782494E-04  2.2426153    
 1.50775683E-06 5.03340601E-09  59107.048      59104.805     1.16844362E-04  2.2429373    
 1.51785736E-06 5.06712502E-09  60319.894      60317.652     1.20078241E-04  2.2416172    
 1.52802556E-06 5.10106992E-09  61515.490      61513.246     1.23232206E-04  2.2433634    
 1.53826187E-06 5.13524222E-09  62781.487      62779.245     1.26657688E-04  2.2417584    
 1.54856676E-06 5.16964344E-09  64042.265      64040.022     1.30051535E-04  2.2423702    
 1.55894067E-06 5.20427512E-09  65322.969      65320.725     1.33513635E-04  2.2433222    
 1.56938409E-06 5.23913879E-09  66672.651      66670.409     1.37247223E-04  2.2413706    
 1.57989746E-06 5.27423602E-09  67994.208      67991.965     1.40852590E-04  2.2431195    
 1.59048127E-06 5.30956836E-09  69383.755      69381.513     1.44727010E-04  2.2421432    
 1.60113597E-06 5.34513740E-09  70787.002      70784.759     1.48646712E-04  2.2421248    
 1.61186206E-06 5.38094472E-09  72192.435      72190.191     1.52560953E-04  2.2437072    
 1.62265999E-06 5.41699191E-09  73694.309      73692.068     1.56870977E-04  2.2411235    
 1.63353026E-06 5.45328058E-09  75155.094      75152.851     1.60992349E-04  2.2428753    
 1.64447336E-06 5.48981235E-09  76680.177      76677.935     1.65374118E-04  2.2425281    
 1.65548976E-06 5.52658885E-09  78241.902      78239.660     1.69900601E-04  2.2418790    
 1.66657996E-06 5.56361172E-09  79792.564      79790.320     1.74362606E-04  2.2436221    
 1.67774445E-06 5.60088261E-09  81446.790      81444.549     1.79263181E-04  2.2413493    
 1.68898374E-06 5.63840317E-09  83069.948      83067.705     1.84011694E-04  2.2426307    
 1.70029832E-06 5.67617509E-09  84743.710      84741.467     1.88966756E-04  2.2429130    
 1.71168869E-06 5.71420004E-09  86481.712      86479.471     1.94193331E-04  2.2416327    
 1.72315537E-06 5.75247973E-09  88195.730      88193.487     1.99293950E-04  2.2433787    
 1.73469887E-06 5.79101585E-09  90011.463      90009.221     2.04837347E-04  2.2417342    
 1.74631969E-06 5.82981012E-09  91818.127      91815.884     2.10322334E-04  2.2423857    
 1.75801837E-06 5.86886429E-09  93654.973      93652.729     2.15925130E-04  2.2432980    
 1.76979541E-06 5.90818007E-09  95589.043      95586.801     2.21959374E-04  2.2413861    
 1.78165135E-06 5.94775924E-09  97483.618      97481.375     2.27790003E-04  2.2431349    
 1.79358672E-06 5.98760354E-09  99476.534      99474.292     2.34059945E-04  2.2421190    
 1.80560203E-06 6.02771477E-09  101487.33      101485.09     2.40394842E-04  2.2421402    
 1.81769784E-06 6.06809470E-09  103503.06      103500.81     2.46729391E-04  2.2436830    
 1.82987468E-06 6.10874514E-09  105655.19      105652.95     2.53695320E-04  2.2411390    
 1.84213310E-06 6.14966790E-09  107749.34      107747.10     2.60360436E-04  2.2428907    
 1.85447363E-06 6.19086481E-09  109936.63      109934.38     2.67451459E-04  2.2425039    
 1.86689683E-06 6.23233769E-09  112174.50      112172.25     2.74767070E-04  2.2418944    
 1.87940326E-06 6.27408840E-09  114397.47      114395.23     2.81983058E-04  2.2436374    
 1.89199346E-06 6.31611880E-09  116769.93      116767.69     2.89913517E-04  2.2413251    
 1.90466801E-06 6.35843077E-09  119095.80      119093.55     2.97587785E-04  2.2426461    
 1.91742747E-06 6.40102618E-09  121496.30      121494.05     3.05606619E-04  2.2428888    
 1.93027240E-06 6.44390694E-09  123986.74      123984.50     3.14053764E-04  2.2416482    
 1.94320339E-06 6.48707497E-09  126443.86      126441.62     3.22302522E-04  2.2433940    
 1.95622099E-06 6.53053217E-09  129047.93      129045.69     3.31273292E-04  2.2417100    
 1.96932581E-06 6.57428050E-09  131636.72      131634.48     3.40137874E-04  2.2424011    
 1.98251841E-06 6.61832191E-09  134271.09      134268.85     3.49205000E-04  2.2432738    
 1.99579939E-06 6.66265834E-09  137042.45      137040.21     3.58957560E-04  2.2414016    
 2.00916934E-06 6.70729179E-09  139758.38      139756.14     3.68386894E-04  2.2431502    
 2.02262885E-06 6.75222424E-09  142616.53      142614.29     3.78533478E-04  2.2420948    
 2.03617854E-06 6.79745770E-09  145497.79      145495.55     3.88771721E-04  2.2421557    
 2.04981899E-06 6.84299417E-09  148388.68      148386.44     3.99023122E-04  2.2436588    
 2.06355082E-06 6.88883570E-09  151472.48      151470.24     4.10281551E-04  2.2411546    
 2.07737464E-06 6.93498432E-09  154474.46      154472.22     4.21060419E-04  2.2429060    
 2.09129106E-06 6.98144209E-09  157611.33      157609.09     4.32535818E-04  2.2424797    
 2.10530072E-06 7.02821109E-09  160817.93      160815.69     4.44359144E-04  2.2419099    
 2.11940422E-06 7.07529339E-09  164004.56      164002.32     4.56028884E-04  2.2436527    
 2.13360221E-06 7.12269110E-09  167406.92      167404.68     4.68862501E-04  2.2413009    
 2.14789530E-06 7.17040633E-09  170739.56      170737.32     4.81265184E-04  2.2426615    
 2.16228415E-06 7.21844121E-09  174182.18      174179.94     4.94242137E-04  2.2428646    
 2.17676939E-06 7.26679787E-09  177750.64      177748.40     5.07894320E-04  2.2416637    
 2.19135167E-06 7.31547848E-09  181272.87      181270.63     5.21234258E-04  2.2434093    
 2.20603163E-06 7.36448520E-09  185007.35      185005.10     5.35751461E-04  2.2416858    
 2.22080994E-06 7.41382021E-09  188716.67      188714.43     5.50077967E-04  2.2424165    
 2.23568724E-06 7.46348573E-09  192494.65      192492.41     5.64751469E-04  2.2432496    
 2.25066421E-06 7.51348396E-09  196465.58      196463.34     5.80513560E-04  2.2414171    
 2.26574151E-06 7.56381713E-09  200358.74      200356.50     5.95762728E-04  2.2431656    
 2.28091982E-06 7.61448748E-09  204457.55      204455.31     6.12182818E-04  2.2420706    
 2.29619980E-06 7.66549727E-09  208585.89      208583.65     6.28729493E-04  2.2421711    
 2.31158215E-06 7.71684879E-09  212731.70      212729.46     6.45319634E-04  2.2436346    
 2.32706754E-06 7.76854430E-09  217150.24      217148.00     6.63515634E-04  2.2411701    
 2.34265667E-06 7.82058613E-09  221453.38      221451.13     6.80947271E-04  2.2429214    
 2.35835023E-06 7.87297659E-09  225951.85      225949.61     6.99517875E-04  2.2424555    
 2.37414893E-06 7.92571802E-09  230546.27      230544.03     7.18626441E-04  2.2419254    
 2.39005346E-06 7.97881276E-09  235114.05      235111.81     7.37498794E-04  2.2436680    
 2.40606454E-06 8.03226319E-09  239993.14      239990.90     7.58267010E-04  2.2412767    
 2.42218287E-06 8.08607168E-09  244768.08      244765.84     7.78311439E-04  2.2426769    
 2.43840918E-06 8.14024064E-09  249704.96      249702.71     7.99312129E-04  2.2428404    
 2.45474420E-06 8.19477248E-09  254817.78      254815.54     8.21376603E-04  2.2416792    
 2.47118864E-06 8.24966963E-09  259866.54      259864.30     8.42950003E-04  2.2434246    
 2.48774324E-06 8.30493454E-09  265221.82      265219.58     8.66442842E-04  2.2416616    
 2.50440875E-06 8.36056967E-09  270536.39      270534.15     8.89596607E-04  2.2424319    
 2.52118589E-06 8.41657750E-09  275954.13      275951.88     9.13342979E-04  2.2432254    
 2.53807543E-06 8.47296053E-09  281643.51      281641.27     9.38817635E-04  2.2414326    
 2.55507811E-06 8.52972128E-09  287223.87      287221.63     9.63478641E-04  2.2431809    
 2.57219470E-06 8.58686227E-09  293101.54      293099.29     9.90051028E-04  2.2420464    
 2.58942595E-06 8.64438604E-09  299016.37      299014.13     1.01679311E-03  2.2421866    
 2.60677263E-06 8.70229518E-09  304961.51      304959.26     1.04364138E-03  2.2436104    
 2.62423551E-06 8.76059224E-09  311292.11      311289.87     1.07304991E-03  2.2411857    
 2.64181539E-06 8.81927985E-09  317460.01      317457.77     1.10124041E-03  2.2429368    
 2.65951303E-06 8.87836060E-09  323910.71      323908.47     1.13129311E-03  2.2424313    
 2.67732922E-06 8.93783714E-09  330493.21      330490.96     1.16217585E-03  2.2419408    
 2.69526477E-06 8.99771211E-09  337040.37      337038.12     1.19269627E-03  2.2436833    
 2.71332047E-06 9.05798819E-09  344036.69      344034.45     1.22630473E-03  2.2412525    
 2.73149713E-06 9.11866806E-09  350877.72      350875.47     1.25869920E-03  2.2426922    
 2.74979555E-06 9.17975443E-09  357956.98      357954.73     1.29268471E-03  2.2428162    
 2.76821656E-06 9.24125002E-09  365282.07      365279.83     1.32834495E-03  2.2416947    
 2.78676096E-06 9.30315757E-09  372518.51      372516.26     1.36323350E-03  2.2434400    
 2.80542960E-06 9.36547984E-09  380197.55      380195.30     1.40125133E-03  2.2416374    
 2.82422330E-06 9.42821962E-09  387811.57      387809.33     1.43867119E-03  2.2424473    
 2.84314290E-06 9.49137968E-09  395580.26      395578.01     1.47710028E-03  2.2432012    
 2.86218924E-06 9.55496287E-09  403731.25      403729.00     1.51827229E-03  2.2414481    
 2.88136318E-06 9.61897199E-09  411729.48      411727.23     1.55815410E-03  2.2431962    
 2.90066556E-06 9.68340992E-09  420157.45      420155.21     1.60115572E-03  2.2420222    
 2.92009725E-06 9.74827952E-09  428631.30      428629.06     1.64437515E-03  2.2422020    
 2.93965911E-06 9.81358368E-09  437156.13      437153.89     1.68782435E-03  2.2435862    
 2.95935202E-06 9.87932532E-09  446225.61      446223.37     1.73535459E-03  2.2412012    
 2.97917685E-06 9.94550737E-09  455065.78      455063.53     1.78094428E-03  2.2429521    
 2.99913449E-06 1.00121328E-08  464315.29      464313.05     1.82957832E-03  2.2424071    
 3.01922583E-06 1.00792045E-08  473745.49      473743.25     1.87949006E-03  2.2419563    
 3.03945176E-06 1.01467255E-08  483129.13      483126.88     1.92884768E-03  2.2436986    
 3.05981319E-06 1.02146989E-08  493160.73      493158.48     1.98323496E-03  2.2412283    
 3.08031101E-06 1.02831276E-08  502961.14      502958.90     2.03558867E-03  2.2427076    
 3.10094616E-06 1.03520148E-08  513111.78      513109.53     2.09058745E-03  2.2427920    
 3.12171953E-06 1.04213634E-08  523605.63      523603.39     2.14822085E-03  2.2417102    
 3.14263207E-06 1.04911766E-08  533976.95      533974.71     2.20464259E-03  2.2434553    
 3.16368471E-06 1.05614574E-08  544987.28      544985.03     2.26616572E-03  2.2416132    
 3.18487837E-06 1.06322091E-08  555894.88      555892.63     2.32664156E-03  2.2424627    
 3.20621402E-06 1.07034348E-08  567033.87      567031.62     2.38883177E-03  2.2431770    
 3.22769259E-06 1.07751376E-08  578710.66      578708.41     2.45537364E-03  2.2414637    
 3.24931505E-06 1.08473207E-08  590173.54      590171.30     2.51987047E-03  2.2432116    
 3.27108236E-06 1.09199874E-08  602257.51      602255.26     2.58945911E-03  2.2419980    
 3.29299549E-06 1.09931409E-08  614396.61      614394.37     2.65930840E-03  2.2422174    
 3.31505541E-06 1.10667844E-08  626619.59      626617.34     2.72962314E-03  2.2435620    
 3.33726312E-06 1.11409213E-08  639611.92      639609.65     2.80644163E-03  2.2710844    
 3.35961959E-06 1.12155548E-08  652281.24      652278.90     2.88016921E-03  2.3313666    
 3.38212584E-06 1.12906884E-08  665542.95      665540.55     2.95887313E-03  2.3971045    
 3.40478285E-06 1.13663252E-08  679051.84      679049.37     3.03953880E-03  2.4630524    
 3.42759164E-06 1.14424687E-08  692499.85      692497.32     3.11935983E-03  2.5271155    
 3.45055323E-06 1.15191223E-08  706882.48      706879.88     3.20737249E-03  2.5962023    
 3.47366865E-06 1.15962894E-08  720921.47      720918.81     3.29198275E-03  2.6616248    
 3.49693891E-06 1.16739735E-08  735474.92      735472.19     3.38098717E-03  2.7319313    
 3.52036506E-06 1.17521780E-08  750507.19      750504.38     3.47413299E-03  2.8070809    
 3.54394814E-06 1.18309064E-08  765370.34      765367.46     3.56537806E-03  2.8795572    
 3.56768921E-06 1.19101621E-08  781155.90      781152.94     3.66493891E-03  2.9569387    
 3.59158932E-06 1.19899488E-08  796780.57      796777.54     3.76267632E-03  3.0314682    
 3.61564954E-06 1.20702701E-08  812750.79      812747.68     3.86331921E-03  3.1068100    
 3.63987094E-06 1.21511293E-08  829477.19      829474.00     3.97086341E-03  3.1858168    
 3.66425460E-06 1.22325303E-08  845904.28      845901.01     4.07516745E-03  3.2648821    
 3.68880161E-06 1.23144766E-08  863228.78      863225.43     4.18778108E-03  3.3513414    
 3.71351306E-06 1.23969718E-08  880617.14      880613.70     4.30066810E-03  3.4365313    
 3.73839005E-06 1.24800197E-08  898141.15      898137.62     4.41445967E-03  3.5209574    
 3.76343369E-06 1.25636239E-08  916751.51      916747.90     4.53861367E-03  3.6106717    
 3.78864510E-06 1.26477882E-08  934906.96      934903.26     4.65784558E-03  3.6956938    
 3.81402541E-06 1.27325163E-08  953919.50      953915.71     4.78521097E-03  3.7850401    
 3.83957574E-06 1.28178120E-08  973269.41      973265.52     4.91557982E-03  3.8793961    
 3.86529723E-06 1.29036791E-08  992540.46      992536.48     5.04466600E-03  3.9741308    
 3.89119103E-06 1.29901214E-08  1013159.3      1013155.3     5.18709291E-03  4.0760577    
 3.91725829E-06 1.30771428E-08  1033268.2      1033264.0     5.32383357E-03  4.1725570    
 3.94350018E-06 1.31647472E-08  1054132.2      1054127.9     5.46786894E-03  4.2720366    
 3.96991787E-06 1.32529384E-08  1075663.6      1075659.2     5.61840878E-03  4.3735709    
 3.99651253E-06 1.33417205E-08  1096962.0      1096957.5     5.76596978E-03  4.4729470    
 4.02328535E-06 1.34310972E-08  1119591.6      1119587.0     5.92708548E-03  4.5840405    
 4.05023752E-06 1.35210728E-08  1141971.2      1141966.5     6.08504240E-03  4.6943216    
 4.07737024E-06 1.36116511E-08  1164865.8      1164861.0     6.24791321E-03  4.8059153    
 4.10468473E-06 1.37028361E-08  1188823.2      1188818.2     6.42172451E-03  4.9219066    
 4.13218219E-06 1.37946320E-08  1212362.0      1212357.0     6.59040432E-03  5.0332429    
