 OPTXAGNF AGN Spectrum Model Parameters: NLS, Astar 0.0                          
 M_BH:  1.0000E+06 M_0            L  :   1.000     L/Ledd 
 D   :  1.5000E+18 cm             z  :   0.000     redshift 
 Rcor:   40.00     Rg             Ro :   4.000     Rg 
 C_T :  0.2000     keV            Tau:   15.00     Optical Depth 
 gam :   2.200     (-slope)       fpl:  0.2000     Fraction 
 E              0.5DeltaE      E.FE total     E.FE Disk      E.FE Compton   E.FE NonThermal
 (keV)          (keV)          E.E/cm2/s/E    E.E/cm2/s/E    E.E/cm2/s/E    E.E/cm2/s/E    
 1.00334952E-06 3.34952256E-09  23413.572      23405.960     2.84839070E-05  7.6117505    
 1.01007101E-06 3.37196116E-09  23877.730      23870.112     2.92322741E-05  7.6177030    
 1.01683752E-06 3.39455008E-09  24361.459      24353.842     3.00257732E-05  7.6170614    
 1.02364936E-06 3.41729032E-09  24858.554      24850.940     3.08497910E-05  7.6143175    
 1.03050683E-06 3.44018290E-09  25351.285      25343.665     3.16600119E-05  7.6202405    
 1.03741024E-06 3.46322884E-09  25876.013      25868.400     3.25475287E-05  7.6130575    
 1.04435990E-06 3.48642917E-09  26392.698      26385.081     3.34120476E-05  7.6168717    
 1.05135611E-06 3.50978492E-09  26923.606      26915.987     3.43093432E-05  7.6183688    
 1.05839920E-06 3.53329712E-09  27476.834      27469.220     3.52607812E-05  7.6134808    
 1.06548946E-06 3.55696684E-09  28021.501      28013.881     3.61869639E-05  7.6194134    
 1.07262722E-06 3.58079512E-09  28597.484      28589.869     3.71908759E-05  7.6143646    
 1.07981280E-06 3.60478303E-09  29172.606      29164.990     3.81894476E-05  7.6160392    
 1.08704652E-06 3.62893164E-09  29755.267      29747.648     3.92040140E-05  7.6196764    
 1.09432869E-06 3.65324201E-09  30370.934      30363.322     4.03024484E-05  7.6126427    
 1.10165965E-06 3.67771524E-09  30973.010      30965.391     4.13611891E-05  7.6185850    
 1.10903971E-06 3.70235243E-09  31605.226      31597.610     4.24966525E-05  7.6156719    
 1.11646922E-06 3.72715465E-09  32245.361      32237.745     4.36499206E-05  7.6152053    
 1.12394850E-06 3.75212303E-09  32884.789      32877.168     4.47969654E-05  7.6209840    
 1.13147788E-06 3.77725867E-09  33569.906      33562.294     4.60649633E-05  7.6118033    
 1.13905770E-06 3.80256270E-09  34235.440      34227.823     4.72752333E-05  7.6177552    
 1.14668830E-06 3.82803623E-09  34929.348      34921.731     4.85593609E-05  7.6169792    
 1.15437002E-06 3.85368042E-09  35641.804      35634.190     4.98911295E-05  7.6143700    
 1.16210319E-06 3.87949640E-09  36348.306      36340.685     5.12014299E-05  7.6202925    
 1.16988818E-06 3.90548532E-09  37101.019      37093.406     5.26376807E-05  7.6129753    
 1.17772531E-06 3.93164835E-09  37841.539      37833.922     5.40348737E-05  7.6169240    
 1.18561494E-06 3.95798663E-09  38603.122      38595.504     5.54869854E-05  7.6182866    
 1.19355743E-06 3.98450137E-09  39396.029      39388.415     5.70247003E-05  7.6135334    
 1.20155313E-06 4.01119372E-09  40176.994      40169.374     5.85225355E-05  7.6194655    
 1.20960239E-06 4.03806489E-09  41003.228      40995.614     6.01471558E-05  7.6142824    
 1.21770557E-06 4.06511607E-09  41827.502      41819.885     6.17610109E-05  7.6160916    
 1.22586303E-06 4.09234846E-09  42663.321      42655.701     6.34029148E-05  7.6195942    
 1.23407514E-06 4.11976329E-09  43545.715      43538.102     6.51782179E-05  7.6126955    
 1.24234227E-06 4.14736177E-09  44408.990      44401.371     6.68904276E-05  7.6186371    
 1.25066478E-06 4.17514513E-09  45315.886      45308.270     6.87279470E-05  7.6155897    
 1.25904304E-06 4.20311462E-09  46233.333      46225.718     7.05918309E-05  7.6152577    
 1.26747742E-06 4.23127147E-09  47150.582      47142.961     7.24481405E-05  7.6209018    
 1.27596831E-06 4.25961695E-09  48132.511      48124.899     7.44975085E-05  7.6118562    
 1.28451608E-06 4.28815232E-09  49086.769      49079.151     7.64547733E-05  7.6178074    
 1.29312111E-06 4.31687884E-09  50082.155      50074.538     7.85328885E-05  7.6168970    
 1.30178379E-06 4.34579781E-09  51103.253      51095.638     8.06852765E-05  7.6144226    
 1.31050450E-06 4.37491051E-09  52116.247      52108.626     8.28043114E-05  7.6203444    
 1.31928362E-06 4.40421823E-09  53195.974      53188.361     8.51285654E-05  7.6128932    
 1.32812156E-06 4.43372228E-09  54257.278      54249.661     8.73866379E-05  7.6169763    
 1.33701871E-06 4.46342399E-09  55349.738      55342.119     8.97366178E-05  7.6182044    
 1.34597546E-06 4.49332467E-09  56486.133      56478.520     9.22218715E-05  7.6135861    
 1.35499221E-06 4.52342565E-09  57605.888      57598.268     9.46441901E-05  7.6195175    
 1.36406936E-06 4.55372829E-09  58791.072      58783.458     9.72732937E-05  7.6142003    
 1.37320733E-06 4.58423392E-09  59972.406      59964.790     9.98815448E-05  7.6161440    
 1.38240650E-06 4.61494391E-09  61171.350      61163.730     1.02538686E-04  7.6195119    
 1.39166731E-06 4.64585962E-09  62435.995      62428.382     1.05407950E-04  7.6127482    
 1.40099015E-06 4.67698245E-09  63673.758      63666.139     1.08176957E-04  7.6186892    
 1.41037545E-06 4.70831376E-09  64974.641      64967.025     1.11150610E-04  7.6155075    
 1.41982361E-06 4.73985497E-09  66289.505      66281.890     1.14162971E-04  7.6153102    
 1.42933508E-06 4.77160747E-09  67605.251      67597.630     1.17167111E-04  7.6208196    
 1.43891026E-06 4.80357269E-09  69012.543      69004.931     1.20479344E-04  7.6119090    
 1.44854958E-06 4.83575204E-09  70380.748      70373.130     1.23644657E-04  7.6178596    
 1.45825348E-06 4.86814696E-09  71808.559      71800.942     1.27007687E-04  7.6168148    
 1.46802239E-06 4.90075889E-09  73271.966      73264.352     1.30486346E-04  7.6144751    
 1.47785673E-06 4.93358930E-09  74724.381      74716.760     1.33913276E-04  7.6203964    
 1.48775696E-06 4.96663964E-09  76273.152      76265.539     1.37674563E-04  7.6128110    
 1.49772351E-06 4.99991138E-09  77794.160      77786.543     1.41323942E-04  7.6170286    
 1.50775683E-06 5.03340601E-09  79361.209      79353.591     1.45126955E-04  7.6181222    
 1.51785736E-06 5.06712502E-09  80989.852      80982.238     1.49143617E-04  7.6136387    
 1.52802556E-06 5.10106992E-09  82595.325      82587.705     1.53061020E-04  7.6195695    
 1.53826187E-06 5.13524222E-09  84295.358      84287.743     1.57315663E-04  7.6141181    
 1.54856676E-06 5.16964344E-09  85988.379      85980.763     1.61531014E-04  7.6161963    
 1.55894067E-06 5.20427512E-09  87708.165      87700.545     1.65831139E-04  7.6194297    
 1.56938409E-06 5.23913879E-09  89520.600      89512.987     1.70468470E-04  7.6128009    
 1.57989746E-06 5.27423602E-09  91295.258      91287.639     1.74946541E-04  7.6187413    
 1.59048127E-06 5.30956836E-09  93161.240      93153.624     1.79758793E-04  7.6154253    
 1.60113597E-06 5.34513740E-09  95045.622      95038.006     1.84627288E-04  7.6153627    
 1.61186206E-06 5.38094472E-09  96932.940      96925.319     1.89489001E-04  7.6207374    
 1.62265999E-06 5.41699191E-09  98949.801      98942.189     1.94842300E-04  7.6119618    
 1.63353026E-06 5.45328058E-09  100911.47      100903.85     1.99961281E-04  7.6179118    
 1.64447336E-06 5.48981235E-09  102959.50      102951.89     2.05403692E-04  7.6167326    
 1.65548976E-06 5.52658885E-09  105056.76      105049.14     2.11025847E-04  7.6145277    
 1.66657996E-06 5.56361172E-09  107139.15      107131.53     2.16567916E-04  7.6204483    
 1.67774445E-06 5.60088261E-09  109360.66      109353.04     2.22654716E-04  7.6127288    
 1.68898374E-06 5.63840317E-09  111540.43      111532.81     2.28552645E-04  7.6170809    
 1.70029832E-06 5.67617509E-09  113788.18      113780.56     2.34707122E-04  7.6180400    
 1.71168869E-06 5.71420004E-09  116122.22      116114.61     2.41198834E-04  7.6136913    
 1.72315537E-06 5.75247973E-09  118424.04      118416.42     2.47534102E-04  7.6196216    
 1.73469887E-06 5.79101585E-09  120862.50      120854.88     2.54419327E-04  7.6140359    
 1.74631969E-06 5.82981012E-09  123288.77      123281.16     2.61232004E-04  7.6162487    
 1.75801837E-06 5.86886429E-09  125755.59      125747.97     2.68191007E-04  7.6193475    
 1.76979541E-06 5.90818007E-09  128353.01      128345.40     2.75685895E-04  7.6128536    
 1.78165135E-06 5.94775924E-09  130897.38      130889.76     2.82927882E-04  7.6187935    
 1.79358672E-06 5.98760354E-09  133573.85      133566.24     2.90715523E-04  7.6153431    
 1.80560203E-06 6.02771477E-09  136274.35      136266.73     2.98583841E-04  7.6154151    
 1.81769784E-06 6.06809470E-09  138981.46      138973.84     3.06451728E-04  7.6206551    
 1.82987468E-06 6.10874514E-09  141871.83      141864.22     3.15103829E-04  7.6120146    
 1.84213310E-06 6.14966790E-09  144684.29      144676.67     3.23382301E-04  7.6179640    
 1.85447363E-06 6.19086481E-09  147621.87      147614.26     3.32189777E-04  7.6166504    
 1.86689683E-06 6.23233769E-09  150627.42      150619.80     3.41276206E-04  7.6145802    
 1.87940326E-06 6.27408840E-09  153612.94      153605.32     3.50238897E-04  7.6205003    
 1.89199346E-06 6.31611880E-09  156799.30      156791.68     3.60089007E-04  7.6126466    
 1.90466801E-06 6.35843077E-09  159923.05      159915.43     3.69620911E-04  7.6171332    
 1.91742747E-06 6.40102618E-09  163147.07      163139.46     3.79580789E-04  7.6179578    
 1.93027240E-06 6.44390694E-09  166491.93      166484.32     3.90072656E-04  7.6137440    
 1.94320339E-06 6.48707497E-09  169792.02      169784.40     4.00318115E-04  7.6196736    
 1.95622099E-06 6.53053217E-09  173289.53      173281.92     4.11460360E-04  7.6139537    
 1.96932581E-06 6.57428050E-09  176766.52      176758.90     4.22470713E-04  7.6163011    
 1.98251841E-06 6.61832191E-09  180304.74      180297.12     4.33732637E-04  7.6192653    
 1.99579939E-06 6.66265834E-09  184027.02      184019.40     4.45845917E-04  7.6129064    
 2.00916934E-06 6.70729179E-09  187674.80      187667.19     4.57557728E-04  7.6188456    
 2.02262885E-06 6.75222424E-09  191513.68      191506.06     4.70160412E-04  7.6152609    
 2.03617854E-06 6.79745770E-09  195383.61      195375.99     4.82876943E-04  7.6154676    
 2.04981899E-06 6.84299417E-09  199266.46      199258.84     4.95609816E-04  7.6205729    
 2.06355082E-06 6.88883570E-09  203408.52      203400.91     5.09593486E-04  7.6120674    
 2.07737464E-06 6.93498432E-09  207440.63      207433.01     5.22981509E-04  7.6180162    
 2.09129106E-06 6.98144209E-09  211653.99      211646.37     5.37234670E-04  7.6165682    
 2.10530072E-06 7.02821109E-09  215961.03      215953.41     5.51919980E-04  7.6146328    
 2.11940422E-06 7.07529339E-09  220241.23      220233.61     5.66414526E-04  7.6205522    
 2.13360221E-06 7.12269110E-09  224811.32      224803.70     5.82354686E-04  7.6125644    
 2.14789530E-06 7.17040633E-09  229287.70      229280.08     5.97759598E-04  7.6171855    
 2.16228415E-06 7.21844121E-09  233911.86      233904.24     6.13877791E-04  7.6178756    
 2.17676939E-06 7.26679787E-09  238705.12      238697.50     6.30834666E-04  7.6137966    
 2.19135167E-06 7.31547848E-09  243436.24      243428.62     6.47403712E-04  7.6197256    
 2.20603163E-06 7.36448520E-09  248452.57      248444.96     6.65435002E-04  7.6138715    
 2.22080994E-06 7.41382021E-09  253435.10      253427.48     6.83229434E-04  7.6163534    
 2.23568724E-06 7.46348573E-09  258509.87      258502.25     7.01454858E-04  7.6191831    
 2.25066421E-06 7.51348396E-09  263843.93      263836.32     7.21032385E-04  7.6129591    
 2.26574151E-06 7.56381713E-09  269073.47      269065.85     7.39972827E-04  7.6188977    
 2.28091982E-06 7.61448748E-09  274579.36      274571.75     7.60367634E-04  7.6151787    
 2.29619980E-06 7.66549727E-09  280124.93      280117.32     7.80919669E-04  7.6155200    
 2.31158215E-06 7.71684879E-09  285693.97      285686.34     8.01525693E-04  7.6204907    
 2.32706754E-06 7.76854430E-09  291629.52      291621.90     8.24126306E-04  7.6121202    
 2.34265667E-06 7.82058613E-09  297409.96      297402.34     8.45777527E-04  7.6180684    
 2.35835023E-06 7.87297659E-09  303452.91      303445.29     8.68843424E-04  7.6164860    
 2.37414893E-06 7.92571802E-09  309624.80      309617.18     8.92577509E-04  7.6146853    
 2.39005346E-06 7.97881276E-09  315760.86      315753.24     9.16018202E-04  7.6206041    
 2.40606454E-06 8.03226319E-09  322315.32      322307.71     9.41813690E-04  7.6124822    
 2.42218287E-06 8.08607168E-09  328729.78      328722.16     9.66710185E-04  7.6172378    
 2.43840918E-06 8.14024064E-09  335361.87      335354.25     9.92794422E-04  7.6177933    
 2.45474420E-06 8.19477248E-09  342230.42      342222.81     1.02019996E-03  7.6138492    
 2.47118864E-06 8.24966963E-09  349012.85      349005.23     1.04699554E-03  7.6197776    
 2.48774324E-06 8.30493454E-09  356207.25      356199.64     1.07617521E-03  7.6137893    
 2.50440875E-06 8.36056967E-09  363346.92      363339.30     1.10493372E-03  7.6164058    
 2.52118589E-06 8.41657750E-09  370625.22      370617.60     1.13442830E-03  7.6191009    
 2.53807543E-06 8.47296053E-09  378268.65      378261.03     1.16606953E-03  7.6130118    
 2.55507811E-06 8.52972128E-09  385765.50      385757.88     1.19670014E-03  7.6189498    
 2.57219470E-06 8.58686227E-09  393661.96      393654.34     1.22970483E-03  7.6150965    
 2.58942595E-06 8.64438604E-09  401608.36      401600.74     1.26292030E-03  7.6155725    
 2.60677263E-06 8.70229518E-09  409595.46      409587.84     1.29626766E-03  7.6204085    
 2.62423551E-06 8.76059224E-09  418100.70      418093.09     1.33279505E-03  7.6121730    
 2.64181539E-06 8.81927985E-09  426387.20      426379.58     1.36780956E-03  7.6181206    
 2.65951303E-06 8.87836060E-09  435053.82      435046.20     1.40513706E-03  7.6164038    
 2.67732922E-06 8.93783714E-09  443897.59      443889.97     1.44349553E-03  7.6147378    
 2.69526477E-06 8.99771211E-09  452693.82      452686.20     1.48140397E-03  7.6206561    
 2.71332047E-06 9.05798819E-09  462093.85      462086.23     1.52314798E-03  7.6124000    
 2.73149713E-06 9.11866806E-09  471285.06      471277.45     1.56338415E-03  7.6172900    
 2.74979555E-06 9.17975443E-09  480796.52      480788.90     1.60559648E-03  7.6177111    
 2.76821656E-06 9.24125002E-09  490638.43      490630.82     1.64988898E-03  7.6139018    
 2.78676096E-06 9.30315757E-09  500361.12      500353.49     1.69322296E-03  7.6198296    
 2.80542960E-06 9.36547984E-09  510678.80      510671.19     1.74044375E-03  7.6137071    
 2.82422330E-06 9.42821962E-09  520909.05      520901.43     1.78692182E-03  7.6164582    
 2.84314290E-06 9.49137968E-09  531347.18      531339.56     1.83465343E-03  7.6190186    
 2.86218924E-06 9.55496287E-09  542299.27      542291.66     1.88579195E-03  7.6130645    
 2.88136318E-06 9.61897199E-09  553045.94      553038.32     1.93532796E-03  7.6190019    
 2.90066556E-06 9.68340992E-09  564370.35      564362.73     1.98873901E-03  7.6150143    
 2.92009725E-06 9.74827952E-09  575756.40      575748.78     2.04242059E-03  7.6156249    
 2.93965911E-06 9.81358368E-09  587210.94      587203.32     2.09638756E-03  7.6203262    
 2.95935202E-06 9.87932532E-09  599397.75      599390.13     2.15542351E-03  7.6122258    
 2.97917685E-06 9.94550737E-09  611276.19      611268.57     2.21204914E-03  7.6181728    
 2.99913449E-06 1.00121328E-08  623704.97      623697.35     2.27245610E-03  7.6163215    
 3.01922583E-06 1.00792045E-08  636376.67      636369.05     2.33445005E-03  7.6147903    
 3.03945176E-06 1.01467255E-08  648985.69      648978.07     2.39575575E-03  7.6207080    
 3.05981319E-06 1.02146989E-08  662465.94      662458.33     2.46330867E-03  7.6123179    
 3.08031101E-06 1.02831276E-08  675635.28      675627.66     2.52833575E-03  7.6173423    
 3.10094616E-06 1.03520148E-08  689275.48      689267.86     2.59664822E-03  7.6176289    
 3.12171953E-06 1.04213634E-08  703377.16      703369.55     2.66823310E-03  7.6139544    
 3.14263207E-06 1.04911766E-08  717314.00      717306.38     2.73831300E-03  7.6198816    
 3.16368471E-06 1.05614574E-08  732110.08      732102.46     2.81472923E-03  7.6136249    
 3.18487837E-06 1.06322091E-08  746767.95      746760.33     2.88984465E-03  7.6165105    
 3.20621402E-06 1.07034348E-08  761736.92      761729.30     2.96708945E-03  7.6189364    
 3.22769259E-06 1.07751376E-08  777429.07      777421.45     3.04973937E-03  7.6131172    
 3.24931505E-06 1.08473207E-08  792833.47      792825.85     3.12984918E-03  7.6190540    
 3.27108236E-06 1.09199874E-08  809073.05      809065.44     3.21628344E-03  7.6149321    
 3.29299549E-06 1.09931409E-08  825386.73      825379.11     3.30304144E-03  7.6156774    
 3.31505541E-06 1.10667844E-08  841813.11      841805.49     3.39037758E-03  7.6202440    
 3.33726312E-06 1.11409213E-08  859274.09      859266.48     3.48579192E-03  7.6122785    
 3.35961959E-06 1.12155548E-08  876300.52      876292.90     3.57736708E-03  7.6182249    
 3.38212584E-06 1.12906884E-08  894123.59      894115.97     3.67512327E-03  7.6162393    
 3.40478285E-06 1.13663252E-08  912279.04      912271.42     3.77531612E-03  7.6148429    
 3.42759164E-06 1.14424687E-08  930352.50      930344.88     3.87445987E-03  7.6207599    
 3.45055323E-06 1.15191223E-08  949682.93      949675.32     3.98377829E-03  7.6122357    
 3.47366865E-06 1.15962894E-08  968551.09      968543.47     4.08887067E-03  7.6173946    
 3.49693891E-06 1.16739735E-08  988111.10      988103.48     4.19942095E-03  7.6175467    
 3.52036506E-06 1.17521780E-08  1008315.1      1008307.4     4.31511520E-03  7.6140070    
 3.54394814E-06 1.18309064E-08  1028291.4      1028283.8     4.42844857E-03  7.6199336    
 3.56768921E-06 1.19101621E-08  1049508.5      1049500.8     4.55211084E-03  7.6135427    
 3.59158932E-06 1.19899488E-08  1070509.0      1070501.3     4.67350824E-03  7.6165628    
 3.61564954E-06 1.20702701E-08  1091974.1      1091966.5     4.79851451E-03  7.6188542    
 3.63987094E-06 1.21511293E-08  1114456.4      1114448.8     4.93209279E-03  7.6131698    
 3.66425460E-06 1.22325303E-08  1136536.0      1136528.3     5.06164652E-03  7.6191060    
 3.68880161E-06 1.23144766E-08  1159822.6      1159815.0     5.20152149E-03  7.6148499    
 3.71351306E-06 1.23969718E-08  1183195.0      1183187.4     5.34173602E-03  7.6157298    
 3.73839005E-06 1.24800197E-08  1206749.8      1206742.1     5.48307410E-03  7.6201618    
 3.76343369E-06 1.25636239E-08  1231765.9      1231758.3     5.63728321E-03  7.6123313    
 3.78864510E-06 1.26477882E-08  1256169.8      1256162.2     5.78537867E-03  7.6182771    
 3.81402541E-06 1.27325163E-08  1281726.7      1281719.1     5.94357662E-03  7.6161571    
 3.83957574E-06 1.28178120E-08  1307737.4      1307729.8     6.10550514E-03  7.6148954    
 3.86529723E-06 1.29036791E-08  1333641.8      1333634.1     6.26584047E-03  7.6208118    
 3.89119103E-06 1.29901214E-08  1361359.4      1361351.8     6.44274617E-03  7.6121535    
 3.91725829E-06 1.30771428E-08  1388390.7      1388383.1     6.61258906E-03  7.6174468    
 3.94350018E-06 1.31647472E-08  1416437.8      1416430.2     6.79149262E-03  7.6174645    
 3.96991787E-06 1.32529384E-08  1445382.8      1445375.1     6.97847533E-03  7.6140596    
 3.99651253E-06 1.33417205E-08  1474014.0      1474006.4     7.16175806E-03  7.6199856    
 4.02328535E-06 1.34310972E-08  1504436.3      1504428.7     7.36187695E-03  7.6134605    
 4.05023752E-06 1.35210728E-08  1534522.0      1534514.3     7.55807236E-03  7.6166152    
 4.07737024E-06 1.36116511E-08  1565300.5      1565292.8     7.76037126E-03  7.6187720    
 4.10468473E-06 1.37028361E-08  1597508.8      1597501.2     7.97625926E-03  7.6132225    
 4.13218219E-06 1.37946320E-08  1629153.8      1629146.2     8.18577349E-03  7.6191581    
