 OPTXAGNF AGN Spectrum Model Parameters: BLS, Astar 0.0                          
 M_BH:  1.0000E+07 M_0            L  :   1.000     L/Ledd 
 D   :  1.5000E+18 cm             z  :   0.000     redshift 
 Rcor:   60.00     Rg             Ro :   4.000     Rg 
 C_T :  0.2000     keV            Tau:   15.00     Optical Depth 
 gam :   1.800     (-slope)       fpl:  0.5000     Fraction 
 E              0.5DeltaE      E.FE total     E.FE Disk      E.FE Compton   E.FE NonThermal
 (keV)          (keV)          E.E/cm2/s/E    E.E/cm2/s/E    E.E/cm2/s/E    E.E/cm2/s/E    
 1.00334952E-06 3.34952256E-09  1318562.1      1318513.9     6.20732930E-03  48.192596    
 1.01007101E-06 3.37196116E-09  1344702.6      1344654.3     6.37041528E-03  48.230283    
 1.01683752E-06 3.39455008E-09  1371945.1      1371896.8     6.54333643E-03  48.226221    
 1.02364936E-06 3.41729032E-09  1399940.2      1399891.9     6.72290824E-03  48.208848    
 1.03050683E-06 3.44018290E-09  1427689.3      1427641.0     6.89947340E-03  48.246349    
 1.03741024E-06 3.46322884E-09  1457240.1      1457191.9     7.09288293E-03  48.200871    
 1.04435990E-06 3.48642917E-09  1486337.8      1486289.6     7.28128071E-03  48.225020    
 1.05135611E-06 3.50978492E-09  1516236.3      1516188.1     7.47682121E-03  48.234499    
 1.05839920E-06 3.53329712E-09  1547391.5      1547343.3     7.68416041E-03  48.203551    
 1.06548946E-06 3.55696684E-09  1578064.5      1578016.2     7.88599596E-03  48.241112    
 1.07262722E-06 3.58079512E-09  1610500.7      1610452.5     8.10477029E-03  48.209147    
 1.07981280E-06 3.60478303E-09  1642888.2      1642840.0     8.32238084E-03  48.219749    
 1.08704652E-06 3.62893164E-09  1675700.1      1675651.9     8.54347695E-03  48.242777    
 1.09432869E-06 3.65324201E-09  1710370.3      1710322.1     8.78284954E-03  48.198245    
 1.10165965E-06 3.67771524E-09  1744275.0      1744226.8     9.01357207E-03  48.235867    
 1.10903971E-06 3.70235243E-09  1779876.7      1779828.5     9.26101398E-03  48.217423    
 1.11646922E-06 3.72715465E-09  1815924.0      1815875.8     9.51233588E-03  48.214469    
 1.12394850E-06 3.75212303E-09  1851931.4      1851883.1     9.76230157E-03  48.251057    
 1.13147788E-06 3.77725867E-09  1890511.0      1890462.8     1.00386253E-02  48.192931    
 1.13905770E-06 3.80256270E-09  1927987.9      1927939.7     1.03023690E-02  48.230614    
 1.14668830E-06 3.82803623E-09  1967062.1      1967013.9     1.05822077E-02  48.225701    
 1.15437002E-06 3.85368042E-09  2007180.5      2007132.3     1.08724282E-02  48.209181    
 1.16210319E-06 3.87949640E-09  2046963.4      2046915.2     1.11579704E-02  48.246678    
 1.16988818E-06 3.90548532E-09  2089347.8      2089299.6     1.14709595E-02  48.200351    
 1.17772531E-06 3.93164835E-09  2131045.6      2130997.4     1.17754372E-02  48.225351    
 1.18561494E-06 3.95798663E-09  2173929.1      2173880.8     1.20918828E-02  48.233978    
 1.19355743E-06 3.98450137E-09  2218575.7      2218527.5     1.24269828E-02  48.203884    
 1.20155313E-06 4.01119372E-09  2262550.0      2262501.7     1.27533923E-02  48.241442    
 1.20960239E-06 4.03806489E-09  2309072.5      2309024.2     1.31074307E-02  48.208627    
 1.21770557E-06 4.06511607E-09  2355484.4      2355436.2     1.34591230E-02  48.220081    
 1.22586303E-06 4.09234846E-09  2402546.2      2402498.0     1.38169277E-02  48.242257    
 1.23407514E-06 4.11976329E-09  2452229.5      2452181.3     1.42038026E-02  48.198579    
 1.24234227E-06 4.14736177E-09  2500836.5      2500788.3     1.45769281E-02  48.236197    
 1.25066478E-06 4.17514513E-09  2551898.8      2551850.5     1.49773610E-02  48.216903    
 1.25904304E-06 4.20311462E-09  2603554.8      2603506.6     1.53835391E-02  48.214802    
 1.26747742E-06 4.23127147E-09  2655199.6      2655151.3     1.57880666E-02  48.250536    
 1.27596831E-06 4.25961695E-09  2710484.7      2710436.5     1.62346650E-02  48.193265    
 1.28451608E-06 4.28815232E-09  2764212.4      2764164.1     1.66611925E-02  48.230944    
 1.29312111E-06 4.31687884E-09  2820254.7      2820206.5     1.71140553E-02  48.225180    
 1.30178379E-06 4.34579781E-09  2877744.1      2877695.8     1.75831035E-02  48.209514    
 1.31050450E-06 4.37491051E-09  2934777.3      2934729.0     1.80448835E-02  48.247007    
 1.31928362E-06 4.40421823E-09  2995566.2      2995517.9     1.85513843E-02  48.199831    
 1.32812156E-06 4.43372228E-09  3055318.1      3055269.9     1.90434629E-02  48.225683    
 1.33701871E-06 4.46342399E-09  3116823.4      3116775.2     1.95555697E-02  48.233458    
 1.34597546E-06 4.49332467E-09  3180801.2      3180753.0     2.00971550E-02  48.204218    
 1.35499221E-06 4.52342565E-09  3243842.4      3243794.2     2.06250256E-02  48.241771    
 1.36406936E-06 4.55372829E-09  3310565.7      3310517.5     2.11979582E-02  48.208106    
 1.37320733E-06 4.58423392E-09  3377072.2      3377024.0     2.17663466E-02  48.220412    
 1.38240650E-06 4.61494391E-09  3444569.8      3444521.5     2.23453889E-02  48.241736    
 1.39166731E-06 4.64585962E-09  3515764.3      3515716.1     2.29706564E-02  48.198913    
 1.40099015E-06 4.67698245E-09  3585446.2      3585398.0     2.35740762E-02  48.236527    
 1.41037545E-06 4.70831376E-09  3658679.9      3658631.6     2.42220917E-02  48.216383    
 1.41982361E-06 4.73985497E-09  3732700.2      3732652.0     2.48785423E-02  48.215134    
 1.42933508E-06 4.77160747E-09  3806770.2      3806721.9     2.55332012E-02  48.250015    
 1.43891026E-06 4.80357269E-09  3885991.1      3885942.9     2.62549987E-02  48.193599    
 1.44854958E-06 4.83575204E-09  3963012.9      3962964.7     2.69447799E-02  48.231275    
 1.45825348E-06 4.86814696E-09  4043388.4      4043340.2     2.76776467E-02  48.224660    
 1.46802239E-06 4.90075889E-09  4125766.7      4125718.5     2.84357110E-02  48.209847    
 1.47785673E-06 4.93358930E-09  4207526.7      4207478.4     2.91825024E-02  48.247336    
 1.48775696E-06 4.96663964E-09  4294707.8      4294659.6     3.00021558E-02  48.199310    
 1.49772351E-06 4.99991138E-09  4380327.0      4380278.8     3.07974224E-02  48.226014    
 1.50775683E-06 5.03340601E-09  4468536.7      4468488.4     3.16261684E-02  48.232937    
 1.51785736E-06 5.06712502E-09  4560211.4      4560163.2     3.25014715E-02  48.204551    
 1.52802556E-06 5.10106992E-09  4650583.0      4650534.7     3.33551446E-02  48.242101    
 1.53826187E-06 5.13524222E-09  4746274.1      4746225.9     3.42823075E-02  48.207586    
 1.54856676E-06 5.16964344E-09  4841571.0      4841522.8     3.52009081E-02  48.220744    
 1.55894067E-06 5.20427512E-09  4938373.7      4938325.4     3.61379820E-02  48.241216    
 1.56938409E-06 5.23913879E-09  5040388.3      5040340.0     3.71485380E-02  48.199247    
 1.57989746E-06 5.27423602E-09  5140278.1      5140229.8     3.81243891E-02  48.236857    
 1.59048127E-06 5.30956836E-09  5245305.1      5245256.8     3.91730629E-02  48.215862    
 1.60113597E-06 5.34513740E-09  5351367.2      5351319.0     4.02339928E-02  48.215466    
 1.61186206E-06 5.38094472E-09  5457594.9      5457546.6     4.12934448E-02  48.249495    
 1.62265999E-06 5.41699191E-09  5571109.1      5571060.9     4.24600204E-02  48.193934    
 1.63353026E-06 5.45328058E-09  5681519.2      5681470.9     4.35755348E-02  48.231605    
 1.64447336E-06 5.48981235E-09  5796787.4      5796739.1     4.47615289E-02  48.224139    
 1.65548976E-06 5.52658885E-09  5914824.0      5914775.8     4.59866918E-02  48.210179    
 1.66657996E-06 5.56361172E-09  6032025.2      6031976.9     4.71944027E-02  48.247665    
 1.67774445E-06 5.60088261E-09  6157050.8      6157002.6     4.85208180E-02  48.198790    
 1.68898374E-06 5.63840317E-09  6279729.5      6279681.2     4.98060757E-02  48.226345    
 1.70029832E-06 5.67617509E-09  6406231.5      6406183.2     5.11472386E-02  48.232417    
 1.71168869E-06 5.71420004E-09  6537587.0      6537538.7     5.25618895E-02  48.204884    
 1.72315537E-06 5.75247973E-09  6667130.9      6667082.6     5.39424489E-02  48.242430    
 1.73469887E-06 5.79101585E-09  6804359.1      6804310.8     5.54428513E-02  48.207065    
 1.74631969E-06 5.82981012E-09  6940902.5      6940854.3     5.69274443E-02  48.221076    
 1.75801837E-06 5.86886429E-09  7079726.5      7079678.2     5.84439238E-02  48.240695    
 1.76979541E-06 5.90818007E-09  7225895.9      7225847.0     6.00771794E-02  48.851440    
 1.78165135E-06 5.94775924E-09  7369082.8      7369032.6     6.16553242E-02  50.155398    
 1.79358672E-06 5.98760354E-09  7519699.1      7519647.5     6.33523741E-02  51.579545    
 1.80560203E-06 6.02771477E-09  7671666.6      7671613.6     6.50670045E-02  52.987582    
 1.81769784E-06 6.06809470E-09  7824006.5      7823952.1     6.67815407E-02  54.370133    
 1.82987468E-06 6.10874514E-09  7986651.5      7986595.6     6.86669668E-02  55.856679    
 1.84213310E-06 6.14966790E-09  8144916.2      8144858.8     7.04709742E-02  57.258325    
 1.85447363E-06 6.19086481E-09  8310217.1      8310158.3     7.23902580E-02  58.786349    
 1.86689683E-06 6.23233769E-09  8479339.5      8479279.0     7.43703289E-02  60.398910    
 1.87940326E-06 6.27408840E-09  8647337.2      8647275.2     7.63234356E-02  61.964369    
 1.89199346E-06 6.31611880E-09  8826626.7      8826563.0     7.84699213E-02  63.647142    
 1.90466801E-06 6.35843077E-09  9002397.4      9002332.1     8.05470659E-02  65.245678    
 1.91742747E-06 6.40102618E-09  9183806.1      9183739.1     8.27174708E-02  66.883894    
 1.93027240E-06 6.44390694E-09  9372008.7      9371940.0     8.50038021E-02  68.580320    
 1.94320339E-06 6.48707497E-09  9557695.4      9557625.0     8.72364379E-02  70.292877    
 1.95622099E-06 6.53053217E-09  9754481.3      9754409.1     8.96644935E-02  72.180789    
 1.96932581E-06 6.57428050E-09  9950114.2      9950040.1     9.20638079E-02  74.014939    
 1.98251841E-06 6.61832191E-09  10149190.      10149115.     9.45179424E-02  75.857504    
 1.99579939E-06 6.66265834E-09  10358614.      10358536.     9.71575961E-02  77.790573    
 2.00916934E-06 6.70729179E-09  10563851.      10563771.     9.97097653E-02  79.633706    
 2.02262885E-06 6.75222424E-09  10779831.      10779749.     0.10245606      81.584390    
 2.03617854E-06 6.79745770E-09  10997557.      10997473.     0.10522717      83.623997    
 2.04981899E-06 6.84299417E-09  11216011.      11215925.     0.10800184      85.691741    
 2.06355082E-06 6.88883570E-09  11449034.      11448946.     0.11104907      87.907997    
 2.07737464E-06 6.93498432E-09  11675879.      11675789.     0.11396650      90.000304    
 2.09129106E-06 6.98144209E-09  11912913.      11912821.     0.11707246      92.177642    
 2.10530072E-06 7.02821109E-09  12155213.      12155119.     0.12027258      94.372874    
 2.11940422E-06 7.07529339E-09  12396006.      12395909.     0.12343113      96.534861    
 2.13360221E-06 7.12269110E-09  12653092.      12652993.     0.12690470      98.975343    
 2.14789530E-06 7.17040633E-09  12904914.      12904812.     0.13026163      101.36448    
 2.16228415E-06 7.21844121E-09  13165042.      13164938.     0.13377399      103.81393    
 2.17676939E-06 7.26679787E-09  13434673.      13434567.     0.13746910      106.32916    
 2.19135167E-06 7.31547848E-09  13700815.      13700706.     0.14107971      108.75716    
 2.20603163E-06 7.36448520E-09  13982985.      13982874.     0.14500895      111.32301    
 2.22080994E-06 7.41382021E-09  14263258.      14263144.     0.14888657      113.86312    
 2.23568724E-06 7.46348573E-09  14548715.      14548599.     0.15285812      116.55414    
 2.25066421E-06 7.51348396E-09  14848744.      14848625.     0.15712429      119.43610    
 2.26574151E-06 7.56381713E-09  15142902.      15142780.     0.16125164      122.19075    
 2.28091982E-06 7.61448748E-09  15452589.      15452464.     0.16569591      125.07945    
 2.29619980E-06 7.66549727E-09  15764508.      15764380.     0.17017444      127.93851    
 2.31158215E-06 7.71684879E-09  16077746.      16077616.     0.17466473      130.76568    
 2.32706754E-06 7.76854430E-09  16411579.      16411445.     0.17958966      133.82346    
 2.34265667E-06 7.82058613E-09  16736700.      16736563.     0.18430770      136.90362    
 2.35835023E-06 7.87297659E-09  17076571.      17076431.     0.18933402      140.15426    
 2.37414893E-06 7.92571802E-09  17423688.      17423545.     0.19450593      143.42782    
 2.39005346E-06 7.97881276E-09  17768795.      17768649.     0.19961392      146.62272    
 2.40606454E-06 8.03226319E-09  18137409.      18137258.     0.20523503      150.02159    
 2.42218287E-06 8.08607168E-09  18498160.      18498006.     0.21066024      153.27850    
 2.43840918E-06 8.14024064E-09  18871138.      18870981.     0.21634427      156.68459    
 2.45474420E-06 8.19477248E-09  19257402.      19257242.     0.22231621      160.39282    
 2.47118864E-06 8.24966963E-09  19638832.      19638668.     0.22815525      164.01594    
 2.48774324E-06 8.30493454E-09  20043404.      20043236.     0.23451379      167.84387    
 2.50440875E-06 8.36056967E-09  20444905.      20444733.     0.24078055      171.56735    
 2.52118589E-06 8.41657750E-09  20854196.      20854020.     0.24720771      175.31750    
 2.53807543E-06 8.47296053E-09  21283996.      21283817.     0.25410263      179.21849    
 2.55507811E-06 8.52972128E-09  21705568.      21705385.     0.26077734      183.08164    
 2.57219470E-06 8.58686227E-09  22149587.      22149399.     0.26796937      187.35748    
 2.58942595E-06 8.64438604E-09  22596413.      22596221.     0.27520732      191.61810    
 2.60677263E-06 8.70229518E-09  23045528.      23045332.     0.28247402      195.83627    
 2.62423551E-06 8.76059224E-09  23523744.      23523544.     0.29043366      200.29949    
 2.64181539E-06 8.81927985E-09  23989680.      23989475.     0.29806363      204.55804    
 2.65951303E-06 8.87836060E-09  24476966.      24476757.     0.30619761      208.97164    
 2.67732922E-06 8.93783714E-09  24974203.      24973989.     0.31455624      213.58548    
 2.69526477E-06 8.99771211E-09  25468775.      25468557.     0.32281681      218.32185    
 2.71332047E-06 9.05798819E-09  25997254.      25997030.     0.33191317      223.39054    
 2.73149713E-06 9.11866806E-09  26514013.      26513784.     0.34068095      228.23882    
 2.74979555E-06 9.17975443E-09  27048757.      27048523.     0.34987935      233.20753    
 2.76821656E-06 9.24125002E-09  27602058.      27601819.     0.35953102      238.28518    
 2.78676096E-06 9.30315757E-09  28148671.      28148427.     0.36897383      243.22756    
 2.80542960E-06 9.36547984E-09  28728692.      28728443.     0.37926358      248.64882    
 2.82422330E-06 9.42821962E-09  29303810.      29303556.     0.38939149      254.17659    
 2.84314290E-06 9.49137968E-09  29890604.      29890344.     0.39979255      259.76669    
 2.86218924E-06 9.55496287E-09  30506255.      30505989.     0.41093598      265.57558    
 2.88136318E-06 9.61897199E-09  31110379.      31110107.     0.42173022      271.17071    
 2.90066556E-06 9.68340992E-09  31746940.      31746663.     0.43336883      277.01240    
 2.92009725E-06 9.74827952E-09  32386966.      32386683.     0.44506640      282.82290    
 2.93965911E-06 9.81358368E-09  33030844.      33030555.     0.45682614      288.84249    
 2.95935202E-06 9.87932532E-09  33715828.      33715532.     0.46969042      295.46924    
 2.97917685E-06 9.94550737E-09  34383511.      34383208.     0.48202949      301.81048    
 2.99913449E-06 1.00121328E-08  35082088.      35081779.     0.49519251      308.38875    
 3.01922583E-06 1.00792045E-08  35794305.      35793989.     0.50870134      314.99978    
 3.03945176E-06 1.01467255E-08  36503011.      36502689.     0.52206020      321.48339    
 3.05981319E-06 1.02146989E-08  37260618.      37260289.     0.53678032      328.38629    
 3.08031101E-06 1.02831276E-08  38000784.      38000448.     0.55095006      335.36229    
 3.10094616E-06 1.03520148E-08  38767381.      38767037.     0.56583568      342.74622    
 3.12171953E-06 1.04213634E-08  39559881.      39559530.     0.58143436      350.30638    
 3.14263207E-06 1.04911766E-08  40343139.      40342781.     0.59670510      357.65384    
 3.16368471E-06 1.05614574E-08  41174618.      41174252.     0.61335652      365.38190    
 3.18487837E-06 1.06322091E-08  41998350.      41997976.     0.62972449      372.91379    
 3.20621402E-06 1.07034348E-08  42839546.      42839165.     0.64655645      380.57607    
 3.22769259E-06 1.07751376E-08  43721325.      43720935.     0.66456618      388.95689    
 3.24931505E-06 1.08473207E-08  44586970.      44586572.     0.68202241      397.27566    
 3.27108236E-06 1.09199874E-08  45499479.      45499072.     0.70085673      405.98084    
 3.29299549E-06 1.09931409E-08  46416154.      46415738.     0.71976159      414.58692    
 3.31505541E-06 1.10667844E-08  47339162.      47338738.     0.73879242      423.13935    
 3.33726312E-06 1.11409213E-08  48320216.      48319783.     0.75958346      432.12407    
 3.35961959E-06 1.12155548E-08  49276905.      49276463.     0.77953796      440.86747    
 3.38212584E-06 1.12906884E-08  50278291.      50277840.     0.80083928      450.40261    
 3.40478285E-06 1.13663252E-08  51298330.      51297869.     0.82267153      460.24059    
 3.42759164E-06 1.14424687E-08  52313783.      52313313.     0.84427519      469.88544    
 3.45055323E-06 1.15191223E-08  53399746.      53399265.     0.86809587      480.10620    
 3.47366865E-06 1.15962894E-08  54459794.      54459303.     0.89099570      489.91245    
 3.49693891E-06 1.16739735E-08  55558656.      55558156.     0.91508479      499.96359    
 3.52036506E-06 1.17521780E-08  56693643.      56693132.     0.94029471      510.38090    
 3.54394814E-06 1.18309064E-08  57815882.      57815359.     0.96499021      521.09628    
 3.56768921E-06 1.19101621E-08  59007704.      59007170.     0.99193633      532.61305    
 3.59158932E-06 1.19899488E-08  60187398.      60186853.      1.0183889      543.81339    
 3.61564954E-06 1.20702701E-08  61393164.      61392608.      1.0456279      555.12683    
 3.63987094E-06 1.21511293E-08  62655972.      62655404.      1.0747346      566.82694    
 3.66425460E-06 1.22325303E-08  63896213.      63895634.      1.1029644      578.15752    
 3.68880161E-06 1.23144766E-08  65204148.      65203556.      1.1334432      590.18195    
 3.71351306E-06 1.23969718E-08  66516906.      66516302.      1.1639959      602.81799    
 3.73839005E-06 1.24800197E-08  67839906.      67839290.      1.1947934      615.54296    
 3.76343369E-06 1.25636239E-08  69244844.      69244214.      1.2283955      628.92188    
 3.78864510E-06 1.26477882E-08  70615484.      70614841.      1.2606654      641.75359    
 3.81402541E-06 1.27325163E-08  72050770.      72050113.      1.2951365      655.04263    
 3.83957574E-06 1.28178120E-08  73511506.      73510836.      1.3304205      668.37866    
 3.86529723E-06 1.29036791E-08  74966308.      74965625.      1.3653574      681.77717    
 3.89119103E-06 1.29901214E-08  76522758.      76522059.      1.4039048      696.86734    
 3.91725829E-06 1.30771428E-08  78040760.      78040047.      1.4409133      711.43933    
 3.94350018E-06 1.31647472E-08  79615716.      79614988.      1.4798960      726.40148    
 3.96991787E-06 1.32529384E-08  81241007.      81240263.      1.5206391      741.63498    
 3.99651253E-06 1.33417205E-08  82848741.      82847983.      1.5605759      756.49674    
 4.02328535E-06 1.34310972E-08  84556862.      84556089.      1.6041812      772.08483    
 4.05023752E-06 1.35210728E-08  86246139.      86245350.      1.6469316      787.79343    
 4.07737024E-06 1.36116511E-08  87974267.      87973461.      1.6910119      804.49807    
 4.10468473E-06 1.37028361E-08  89782533.      89781709.      1.7380531      821.91275    
 4.13218219E-06 1.37946320E-08  91559257.      91558417.      1.7837056      838.74756    
