 OPTXAGNF AGN Spectrum Model Parameters: NLS, Astar 0.0                          
 M_BH:  1.0000E+07 M_0            L  :  3.0000E-02 L/Ledd 
 D   :  1.5000E+18 cm             z  :   0.000     redshift 
 Rcor:   40.00     Rg             Ro :   4.000     Rg 
 C_T :  0.2000     keV            Tau:   15.00     Optical Depth 
 gam :   2.200     (-slope)       fpl:  0.2000     Fraction 
 E              0.5DeltaE      E.FE total     E.FE Disk      E.FE Compton   E.FE NonThermal
 (keV)          (keV)          E.E/cm2/s/E    E.E/cm2/s/E    E.E/cm2/s/E    E.E/cm2/s/E    
 1.00334952E-06 3.34952256E-09  554480.47      554466.90     1.87050229E-02  13.544630    
 1.01007101E-06 3.37196116E-09  565464.76      565450.92     1.91964496E-02  13.823419    
 1.01683752E-06 3.39455008E-09  576911.53      576897.38     1.97175117E-02  14.126214    
 1.02364936E-06 3.41729032E-09  588674.11      588659.65     2.02586135E-02  14.435230    
 1.03050683E-06 3.44018290E-09  600333.62      600318.86     2.07906555E-02  14.736690    
 1.03741024E-06 3.46322884E-09  612749.06      612733.98     2.13734530E-02  15.054636    
 1.04435990E-06 3.48642917E-09  624974.50      624959.12     2.19411490E-02  15.362612    
 1.05135611E-06 3.50978492E-09  637535.99      637520.30     2.25303672E-02  15.675357    
 1.05839920E-06 3.53329712E-09  650624.73      650608.70     2.31551372E-02  16.010373    
 1.06548946E-06 3.55696684E-09  663511.33      663494.96     2.37633235E-02  16.350441    
 1.07262722E-06 3.58079512E-09  677137.61      677120.88     2.44225494E-02  16.708371    
 1.07981280E-06 3.60478303E-09  690743.60      690726.52     2.50782684E-02  17.059924    
 1.08704652E-06 3.62893164E-09  704527.72      704510.28     2.57444900E-02  17.411638    
 1.09432869E-06 3.65324201E-09  719091.27      719073.47     2.64657817E-02  17.778665    
 1.10165965E-06 3.67771524E-09  733333.97      733315.81     2.71610092E-02  18.133334    
 1.10903971E-06 3.70235243E-09  748288.45      748269.90     2.79066148E-02  18.517444    
 1.11646922E-06 3.72715465E-09  763429.95      763411.00     2.86639113E-02  18.917893    
 1.12394850E-06 3.75212303E-09  778554.90      778535.56     2.94171213E-02  19.313183    
 1.13147788E-06 3.77725867E-09  794758.52      794738.76     3.02497521E-02  19.732634    
 1.13905770E-06 3.80256270E-09  810499.95      810479.79     3.10444769E-02  20.133194    
 1.14668830E-06 3.82803623E-09  826911.27      826890.69     3.18876984E-02  20.546123    
 1.15437002E-06 3.85368042E-09  843760.49      843739.49     3.27622017E-02  20.966463    
 1.16210319E-06 3.87949640E-09  860469.33      860447.90     3.36226084E-02  21.396926    
 1.16988818E-06 3.90548532E-09  878268.93      878247.03     3.45657164E-02  21.868494    
 1.17772531E-06 3.93164835E-09  895780.92      895758.56     3.54831781E-02  22.325415    
 1.18561494E-06 3.95798663E-09  913790.12      913767.29     3.64367003E-02  22.790006    
 1.19355743E-06 3.98450137E-09  932538.57      932515.27     3.74464307E-02  23.267349    
 1.20155313E-06 4.01119372E-09  951005.43      950981.66     3.84299752E-02  23.731039    
 1.20960239E-06 4.03806489E-09  970540.54      970516.28     3.94967685E-02  24.218900    
 1.21770557E-06 4.06511607E-09  990029.58      990004.81     4.05564929E-02  24.724595    
 1.22586303E-06 4.09234846E-09  1009791.2      1009765.9     4.16346343E-02  25.245924    
 1.23407514E-06 4.11976329E-09  1030651.7      1030625.9     4.28003670E-02  25.791395    
 1.24234227E-06 4.14736177E-09  1051061.5      1051035.1     4.39246714E-02  26.316408    
 1.25066478E-06 4.17514513E-09  1072500.3      1072473.4     4.51312552E-02  26.861695    
 1.25904304E-06 4.20311462E-09  1094188.2      1094160.7     4.63551498E-02  27.405444    
 1.26747742E-06 4.23127147E-09  1115871.7      1115843.7     4.75740708E-02  27.947474    
 1.27596831E-06 4.25961695E-09  1139080.7      1139052.1     4.89197548E-02  28.552990    
 1.28451608E-06 4.28815232E-09  1161637.5      1161608.3     5.02049629E-02  29.147397    
 1.29312111E-06 4.31687884E-09  1185164.4      1185134.6     5.15695217E-02  29.761167    
 1.30178379E-06 4.34579781E-09  1209297.8      1209267.4     5.29828477E-02  30.382051    
 1.31050450E-06 4.37491051E-09  1233240.5      1233209.4     5.43742737E-02  30.989823    
 1.31928362E-06 4.40421823E-09  1258756.6      1258725.0     5.59004463E-02  31.629012    
 1.32812156E-06 4.43372228E-09  1283838.8      1283806.5     5.73831636E-02  32.258676    
 1.33701871E-06 4.46342399E-09  1309655.8      1309622.8     5.89262269E-02  32.932522    
 1.34597546E-06 4.49332467E-09  1336508.7      1336475.0     6.05581100E-02  33.641923    
 1.35499221E-06 4.52342565E-09  1362969.8      1362935.4     6.21486698E-02  34.330087    
 1.36406936E-06 4.55372829E-09  1390973.3      1390938.2     6.38750030E-02  35.050302    
 1.37320733E-06 4.58423392E-09  1418886.4      1418850.6     6.55876441E-02  35.757655    
 1.38240650E-06 4.61494391E-09  1447215.0      1447178.5     6.73323855E-02  36.466951    
 1.39166731E-06 4.64585962E-09  1477092.0      1477054.8     6.92164043E-02  37.218285    
 1.40099015E-06 4.67698245E-09  1506336.2      1506298.1     7.10345951E-02  37.985233    
 1.41037545E-06 4.70831376E-09  1537067.9      1537029.1     7.29871536E-02  38.796227    
 1.41982361E-06 4.73985497E-09  1568129.5      1568089.8     7.49651263E-02  39.603782    
 1.42933508E-06 4.77160747E-09  1599212.4      1599171.9     7.69377004E-02  40.401518    
 1.43891026E-06 4.80357269E-09  1632452.1      1632410.8     7.91125636E-02  41.243453    
 1.44854958E-06 4.83575204E-09  1664771.7      1664729.6     8.11909607E-02  42.051578    
 1.45825348E-06 4.86814696E-09  1698495.8      1698452.8     8.33991743E-02  42.901023    
 1.46802239E-06 4.90075889E-09  1733058.7      1733014.8     8.56833074E-02  43.813089    
 1.47785673E-06 4.93358930E-09  1767363.4      1767318.6     8.79334749E-02  44.715135    
 1.48775696E-06 4.96663964E-09  1803937.7      1803891.9     9.04031740E-02  45.666613    
 1.49772351E-06 4.99991138E-09  1839858.8      1839812.1     9.27993956E-02  46.586678    
 1.50775683E-06 5.03340601E-09  1876864.6      1876817.0     9.52964893E-02  47.523298    
 1.51785736E-06 5.06712502E-09  1915321.1      1915272.5     9.79338578E-02  48.482926    
 1.52802556E-06 5.10106992E-09  1953232.9      1953183.4     0.10050606      49.442075    
 1.53826187E-06 5.13524222E-09  1993371.4      1993320.8     0.10329967      50.505059    
 1.54856676E-06 5.16964344E-09  2033345.6      2033293.9     0.10606749      51.555256    
 1.55894067E-06 5.20427512E-09  2073950.4      2073897.7     0.10889097      52.609034    
 1.56938409E-06 5.23913879E-09  2116736.5      2116682.7     0.11193585      53.704964    
 1.57989746E-06 5.27423602E-09  2158634.4      2158579.5     0.11487616      54.763664    
 1.59048127E-06 5.30956836E-09  2202682.1      2202626.1     0.11803588      55.862001    
 1.60113597E-06 5.34513740E-09  2247163.6      2247106.5     0.12123253      56.996375    
 1.61186206E-06 5.38094472E-09  2291715.2      2291656.9     0.12442472      58.173875    
 1.62265999E-06 5.41699191E-09  2339315.3      2339255.8     0.12793967      59.426629    
 1.63353026E-06 5.45328058E-09  2385617.9      2385557.1     0.13130077      60.625404    
 1.64447336E-06 5.48981235E-09  2433953.2      2433891.2     0.13487422      61.862437    
 1.65548976E-06 5.52658885E-09  2483447.1      2483383.8     0.13856568      63.111230    
 1.66657996E-06 5.56361172E-09  2532592.5      2532528.0     0.14220456      64.337607    
 1.67774445E-06 5.60088261E-09  2585010.7      2584944.9     0.14620109      65.681279    
 1.68898374E-06 5.63840317E-09  2636448.5      2636381.3     0.15007361      67.042441    
 1.70029832E-06 5.67617509E-09  2689486.0      2689417.4     0.15411456      68.434692    
 1.71168869E-06 5.71420004E-09  2744553.6      2744483.6     0.15837692      69.861038    
 1.72315537E-06 5.75247973E-09  2798864.8      2798793.4     0.16253657      71.248833    
 1.73469887E-06 5.79101585E-09  2856389.5      2856316.6     0.16705729      72.699270    
 1.74631969E-06 5.82981012E-09  2913628.9      2913554.6     0.17153038      74.129280    
 1.75801837E-06 5.86886429E-09  2971822.8      2971747.0     0.17609953      75.626630    
 1.76979541E-06 5.90818007E-09  3033087.8      3033010.4     0.18102052      77.251280    
 1.78165135E-06 5.94775924E-09  3093107.2      3093028.2     0.18577546      78.822701    
 1.79358672E-06 5.98760354E-09  3156232.6      3156152.0     0.19088864      80.456851    
 1.80560203E-06 6.02771477E-09  3219923.9      3219841.6     0.19605479      82.082090    
 1.81769784E-06 6.06809470E-09  3283772.1      3283688.2     0.20122065      83.692118    
 1.82987468E-06 6.10874514E-09  3351927.5      3351841.9     0.20690137      85.394694    
 1.84213310E-06 6.14966790E-09  3418254.1      3418166.8     0.21233679      87.113426    
 1.85447363E-06 6.19086481E-09  3487521.9      3487432.8     0.21811951      88.948050    
 1.86689683E-06 6.23233769E-09  3558387.5      3558296.5     0.22408538      90.804034    
 1.87940326E-06 6.27408840E-09  3628784.8      3628692.0     0.22997000      92.623249    
 1.89199346E-06 6.31611880E-09  3703900.4      3703805.6     0.23643723      94.539114    
 1.90466801E-06 6.35843077E-09  3777547.6      3777451.0     0.24269555      96.392416    
 1.91742747E-06 6.40102618E-09  3853551.3      3853452.8     0.24923485      98.295779    
 1.93027240E-06 6.44390694E-09  3932394.1      3932293.5     0.25612340      100.34927    
 1.94320339E-06 6.48707497E-09  4010187.9      4010085.3     0.26285017      102.40677    
 1.95622099E-06 6.53053217E-09  4092618.4      4092513.5     0.27016570      104.56601    
 1.96932581E-06 6.57428050E-09  4174568.9      4174462.0     0.27739463      106.68064    
 1.98251841E-06 6.61832191E-09  4257959.2      4257850.1     0.28478873      108.80669    
 1.99579939E-06 6.66265834E-09  4345671.3      4345560.0     0.29274174      111.01029    
 2.00916934E-06 6.70729179E-09  4431637.6      4431524.1     0.30043118      113.17045    
 2.02262885E-06 6.75222424E-09  4522090.4      4521974.5     0.30870548      115.53354    
 2.03617854E-06 6.79745770E-09  4613274.2      4613156.0     0.31705452      117.94794    
 2.04981899E-06 6.84299417E-09  4704764.0      4704643.3     0.32541428      120.33924    
 2.06355082E-06 6.88883570E-09  4802336.8      4802213.6     0.33459519      122.85739    
 2.07737464E-06 6.93498432E-09  4897333.1      4897207.4     0.34338506      125.27511    
 2.09129106E-06 6.98144209E-09  4996583.6      4996455.5     0.35274288      127.76901    
 2.10530072E-06 7.02821109E-09  5098033.9      5097903.2     0.36238440      130.32344    
 2.11940422E-06 7.07529339E-09  5198857.9      5198724.6     0.37190068      132.96699    
 2.13360221E-06 7.12269110E-09  5306482.4      5306346.2     0.38236599      135.82071    
 2.14789530E-06 7.17040633E-09  5411912.6      5411773.6     0.39247991      138.57128    
 2.16228415E-06 7.21844121E-09  5520810.9      5520669.1     0.40306209      141.37934    
 2.17676939E-06 7.26679787E-09  5633676.0      5633531.3     0.41419484      144.24871    
 2.19135167E-06 7.31547848E-09  5745088.3      5744940.8     0.42507298      147.04832    
 2.20603163E-06 7.36448520E-09  5863188.5      5863038.0     0.43691106      150.02471    
 2.22080994E-06 7.41382021E-09  5980499.9      5980346.4     0.44859364      153.12264    
 2.23568724E-06 7.46348573E-09  6099977.1      6099820.4     0.46055915      156.28205    
 2.25066421E-06 7.51348396E-09  6225533.0      6225373.0     0.47341228      159.56044    
 2.26574151E-06 7.56381713E-09  6348644.0      6348480.7     0.48584717      162.72980    
 2.28091982E-06 7.61448748E-09  6478232.9      6478066.4     0.49923680      166.02344    
 2.29619980E-06 7.66549727E-09  6608755.1      6608585.3     0.51272965      169.29611    
 2.31158215E-06 7.71684879E-09  6739831.3      6739658.2     0.52625793      172.60967    
 2.32706754E-06 7.76854430E-09  6879495.5      6879318.6     0.54109558      176.31989    
 2.34265667E-06 7.82058613E-09  7015531.5      7015351.1     0.55530998      179.90863    
 2.35835023E-06 7.87297659E-09  7157719.2      7157535.0     0.57045306      183.61834    
 2.37414893E-06 7.92571802E-09  7302929.8      7302741.9     0.58603476      187.35357    
 2.39005346E-06 7.97881276E-09  7447307.0      7447115.3     0.60142386      191.02268    
 2.40606454E-06 8.03226319E-09  7601482.3      7601286.8     0.61835877      194.88163    
 2.42218287E-06 8.08607168E-09  7752385.8      7752186.5     0.63470353      198.73065    
 2.43840918E-06 8.14024064E-09  7908388.3      7908184.7     0.65182797      202.87079    
 2.45474420E-06 8.19477248E-09  8069929.1      8069721.2     0.66981976      207.13771    
 2.47118864E-06 8.24966963E-09  8229460.4      8229248.5     0.68741115      211.29240    
 2.48774324E-06 8.30493454E-09  8398635.6      8398419.3     0.70656754      215.64326    
 2.50440875E-06 8.36056967E-09  8566535.8      8566315.2     0.72544746      219.90207    
 2.52118589E-06 8.41657750E-09  8737685.2      8737460.3     0.74481055      224.19157    
 2.53807543E-06 8.47296053E-09  8917379.9      8917150.3     0.76558277      228.80154    
 2.55507811E-06 8.52972128E-09  9093653.3      9093419.1     0.78569158      233.48128    
 2.57219470E-06 8.58686227E-09  9279277.4      9279038.3     0.80735881      238.38327    
 2.58942595E-06 8.64438604E-09  9466075.2      9465831.2     0.82916437      243.24414    
 2.60677263E-06 8.70229518E-09  9653832.1      9653583.2     0.85105651      248.07073    
 2.62423551E-06 8.76059224E-09  9853706.8      9853452.8     0.87503609      253.13442    
 2.64181539E-06 8.81927985E-09  10048476.      10048217.     0.89802255      258.02320    
 2.65951303E-06 8.87836060E-09  10252137.      10251872.     0.92252731      263.27056    
 2.67732922E-06 8.93783714E-09  10459944.      10459674.     0.94770880      268.79963    
 2.69526477E-06 8.99771211E-09  10666649.      10666374.     0.97259486      274.24599    
 2.71332047E-06 9.05798819E-09  10887467.      10887186.     0.99999865      279.99479    
 2.73149713E-06 9.11866806E-09  11103416.      11103129.      1.0264126      285.53629    
 2.74979555E-06 9.17975443E-09  11326853.      11326561.      1.0541238      291.20011    
 2.76821656E-06 9.24125002E-09  11558015.      11557717.      1.0832004      297.00328    
 2.78676096E-06 9.30315757E-09  11786404.      11786100.      1.1116477      302.92083    
 2.80542960E-06 9.36547984E-09  12028693.      12028383.      1.1426464      309.37633    
 2.82422330E-06 9.42821962E-09  12268950.      12268633.      1.1731575      315.69996    
 2.84314290E-06 9.49137968E-09  12514070.      12513747.      1.2044915      322.07489    
 2.86218924E-06 9.55496287E-09  12771195.      12770865.      1.2380617      328.66965    
 2.88136318E-06 9.61897199E-09  13023536.      13023200.      1.2705799      335.06194    
 2.90066556E-06 9.68340992E-09  13289369.      13289026.      1.3056417      341.74422    
 2.92009725E-06 9.74827952E-09  13556651.      13556301.      1.3408811      348.71674    
 2.93965911E-06 9.81358368E-09  13825542.      13825185.      1.3763078      355.87003    
 2.95935202E-06 9.87932532E-09  14111525.      14111160.      1.4150616      363.40737    
 2.97917685E-06 9.94550737E-09  14390326.      14389954.      1.4522333      370.64563    
 2.99913449E-06 1.00121328E-08  14681974.      14681595.      1.4918869      378.12588    
 3.01922583E-06 1.00792045E-08  14979298.      14978910.      1.5325822      385.64455    
 3.03945176E-06 1.01467255E-08  15275174.      15274779.      1.5728258      393.10168    
 3.05981319E-06 1.02146989E-08  15591371.      15590968.      1.6171697      401.38948    
 3.08031101E-06 1.02831276E-08  15900334.      15899923.      1.6598558      409.61315    
 3.10094616E-06 1.03520148E-08  16220286.      16219866.      1.7046982      418.03508    
 3.12171953E-06 1.04213634E-08  16551003.      16550575.      1.7516885      426.62116    
 3.14263207E-06 1.04911766E-08  16877895.      16877458.      1.7976910      435.00081    
 3.16368471E-06 1.05614574E-08  17224817.      17224372.      1.8478523      443.76833    
 3.18487837E-06 1.06322091E-08  17568535.      17568081.      1.8971598      452.46020    
 3.20621402E-06 1.07034348E-08  17919516.      17919052.      1.9478648      461.68863    
 3.22769259E-06 1.07751376E-08  18287350.      18286877.      2.0021175      471.50017    
 3.24931505E-06 1.08473207E-08  18648503.      18648020.      2.0547029      480.98875    
 3.27108236E-06 1.09199874E-08  19029115.      19028622.      2.1114393      490.87027    
 3.29299549E-06 1.09931409E-08  19411467.      19410964.      2.1683881      500.65785    
 3.31505541E-06 1.10667844E-08  19796462.      19795949.      2.2257163      510.39912    
 3.33726312E-06 1.11409213E-08  20205548.      20205025.      2.2883465      520.74714    
 3.35961959E-06 1.12155548E-08  20604544.      20604010.      2.3484568      531.31439    
 3.38212584E-06 1.12906884E-08  21022091.      21021547.      2.4126239      542.44323    
 3.40478285E-06 1.13663252E-08  21447388.      21446832.      2.4783901      553.61821    
 3.42759164E-06 1.14424687E-08  21870801.      21870234.      2.5434678      564.60306    
 3.45055323E-06 1.15191223E-08  22323461.      22322882.      2.6152232      576.18444    
 3.47366865E-06 1.15962894E-08  22765394.      22764804.      2.6842050      587.35132    
 3.49693891E-06 1.16739735E-08  23223434.      23222832.      2.7567687      598.97091    
 3.52036506E-06 1.17521780E-08  23696461.      23695847.      2.8327085      611.58156    
 3.54394814E-06 1.18309064E-08  24164226.      24163599.      2.9070987      624.02003    
 3.56768921E-06 1.19101621E-08  24660840.      24660199.      2.9882677      637.07674    
 3.59158932E-06 1.19899488E-08  25152447.      25151794.      3.0679503      649.81353    
 3.61564954E-06 1.20702701E-08  25654875.      25654209.      3.1500012      662.67575    
 3.63987094E-06 1.21511293E-08  26180949.      26180270.      3.2376778      675.94371    
 3.66425460E-06 1.22325303E-08  26697698.      26697006.      3.3227131      689.15027    
 3.68880161E-06 1.23144766E-08  27242501.      27241794.      3.4145220      703.70306    
 3.71351306E-06 1.23969718E-08  27789322.      27788600.      3.5065536      718.24248    
 3.73839005E-06 1.24800197E-08  28340407.      28339671.      3.5993226      732.71340    
 3.76343369E-06 1.25636239E-08  28925431.      28924679.      3.7005383      747.87282    
 3.78864510E-06 1.26477882E-08  29496282.      29495516.      3.7977418      762.47166    
 3.81402541E-06 1.27325163E-08  30093913.      30093131.      3.9015752      777.55424    
 3.83957574E-06 1.28178120E-08  30702098.      30701301.      4.0078566      793.21476    
 3.86529723E-06 1.29036791E-08  31307857.      31307043.      4.1130925      809.38662    
 3.89119103E-06 1.29901214E-08  31955690.      31954859.      4.2292027      826.64276    
 3.91725829E-06 1.30771428E-08  32587646.      32586798.      4.3406778      843.21150    
 3.94350018E-06 1.31647472E-08  33243187.      33242322.      4.4580988      860.19863    
 3.96991787E-06 1.32529384E-08  33919569.      33918687.      4.5808217      877.47788    
 3.99651253E-06 1.33417205E-08  34588723.      34587824.      4.7011164      894.39450    
 4.02328535E-06 1.34310972E-08  35299409.      35298491.      4.8324595      912.78104    
 4.05023752E-06 1.35210728E-08  36002335.      36001399.      4.9612277      931.60038    
 4.07737024E-06 1.36116511E-08  36721353.      36720398.      5.0940012      950.71786    
 4.10468473E-06 1.37028361E-08  37473519.      37472543.      5.2356921      970.45681    
 4.13218219E-06 1.37946320E-08  38212686.      38211691.      5.3732002      989.59424    
