 OPTXAGNF AGN Spectrum Model Parameters: NLS, Astar 0.0                          
 M_BH:  1.0000E+07 M_0            L  :  0.3000     L/Ledd 
 D   :  1.5000E+18 cm             z  :   0.000     redshift 
 Rcor:   40.00     Rg             Ro :   4.000     Rg 
 C_T :  0.2000     keV            Tau:   15.00     Optical Depth 
 gam :   2.200     (-slope)       fpl:  0.2000     Fraction 
 E              0.5DeltaE      E.FE total     E.FE Disk      E.FE Compton   E.FE NonThermal
 (keV)          (keV)          E.E/cm2/s/E    E.E/cm2/s/E    E.E/cm2/s/E    E.E/cm2/s/E    
 1.00334952E-06 3.34952256E-09  985696.29      985674.83     3.21793282E-03  21.456653    
 1.01007101E-06 3.37196116E-09  1005234.1      1005212.6     3.30247793E-03  21.473433    
 1.01683752E-06 3.39455008E-09  1025595.4      1025573.9     3.39212165E-03  21.471624    
 1.02364936E-06 3.41729032E-09  1046518.9      1046497.4     3.48521313E-03  21.463889    
 1.03050683E-06 3.44018290E-09  1067258.7      1067237.3     3.57674594E-03  21.480586    
 1.03741024E-06 3.46322884E-09  1089344.7      1089323.3     3.67701100E-03  21.460338    
 1.04435990E-06 3.48642917E-09  1111092.2      1111070.7     3.77467793E-03  21.471089    
 1.05135611E-06 3.50978492E-09  1133438.0      1133416.5     3.87604769E-03  21.475310    
 1.05839920E-06 3.53329712E-09  1156722.7      1156701.2     3.98353400E-03  21.461531    
 1.06548946E-06 3.55696684E-09  1179647.2      1179625.7     4.08816716E-03  21.478254    
 1.07262722E-06 3.58079512E-09  1203889.0      1203867.5     4.20158152E-03  21.464022    
 1.07981280E-06 3.60478303E-09  1228094.5      1228073.1     4.31439256E-03  21.468743    
 1.08704652E-06 3.62893164E-09  1252617.1      1252595.6     4.42901055E-03  21.478995    
 1.09432869E-06 3.65324201E-09  1278528.0      1278506.6     4.55310320E-03  21.459168    
 1.10165965E-06 3.67771524E-09  1303867.2      1303845.7     4.67271159E-03  21.475919    
 1.10903971E-06 3.70235243E-09  1330474.0      1330452.6     4.80098743E-03  21.467707    
 1.11646922E-06 3.72715465E-09  1357413.9      1357392.4     4.93127469E-03  21.466392    
 1.12394850E-06 3.75212303E-09  1384324.0      1384302.5     5.06085887E-03  21.482682    
 1.13147788E-06 3.77725867E-09  1413155.7      1413134.3     5.20410727E-03  21.456802    
 1.13905770E-06 3.80256270E-09  1441163.7      1441142.2     5.34083405E-03  21.473580    
 1.14668830E-06 3.82803623E-09  1470365.0      1470343.5     5.48590461E-03  21.471392    
 1.15437002E-06 3.85368042E-09  1500346.3      1500324.9     5.63635720E-03  21.464037    
 1.16210319E-06 3.87949640E-09  1530077.2      1530055.7     5.78438450E-03  21.480732    
 1.16988818E-06 3.90548532E-09  1561751.4      1561729.9     5.94664051E-03  21.460106    
 1.17772531E-06 3.93164835E-09  1592912.8      1592891.3     6.10448412E-03  21.471237    
 1.18561494E-06 3.95798663E-09  1624959.9      1624938.5     6.26853193E-03  21.475078    
 1.19355743E-06 3.98450137E-09  1658324.2      1658302.7     6.44225038E-03  21.461679    
 1.20155313E-06 4.01119372E-09  1691186.3      1691164.8     6.61146359E-03  21.478401    
 1.20960239E-06 4.03806489E-09  1725951.9      1725930.4     6.79499977E-03  21.463790    
 1.21770557E-06 4.06511607E-09  1760635.1      1760613.6     6.97731979E-03  21.468890    
 1.22586303E-06 4.09234846E-09  1795803.7      1795782.2     7.16280848E-03  21.478764    
 1.23407514E-06 4.11976329E-09  1832930.5      1832909.0     7.36336734E-03  21.459317    
 1.24234227E-06 4.14736177E-09  1869253.5      1869232.0     7.55679849E-03  21.476066    
 1.25066478E-06 4.17514513E-09  1907410.4      1907389.0     7.76438591E-03  21.467475    
 1.25904304E-06 4.20311462E-09  1946011.0      1945989.5     7.97495173E-03  21.466540    
 1.26747742E-06 4.23127147E-09  1984603.3      1984581.8     8.18466186E-03  21.482450    
 1.27596831E-06 4.25961695E-09  2025914.6      2025893.2     8.41618183E-03  21.456951    
 1.28451608E-06 4.28815232E-09  2066062.8      2066041.4     8.63729685E-03  21.473727    
 1.29312111E-06 4.31687884E-09  2107940.0      2107918.5     8.87206436E-03  21.471161    
 1.30178379E-06 4.34579781E-09  2150897.9      2150876.4     9.11522245E-03  21.464186    
 1.31050450E-06 4.37491051E-09  2193515.4      2193493.9     9.35461263E-03  21.480879    
 1.31928362E-06 4.40421823E-09  2238937.8      2238916.3     9.61718638E-03  21.459874    
 1.32812156E-06 4.43372228E-09  2283586.0      2283564.5     9.87228360E-03  21.471384    
 1.33701871E-06 4.46342399E-09  2329543.8      2329522.3     1.01377636E-02  21.474846    
 1.34597546E-06 4.49332467E-09  2377348.2      2377326.8     1.04185254E-02  21.461827    
 1.35499221E-06 4.52342565E-09  2424453.4      2424432.0     1.06921774E-02  21.478548    
 1.36406936E-06 4.55372829E-09  2474308.5      2474287.1     1.09891898E-02  21.463559    
 1.37320733E-06 4.58423392E-09  2524001.9      2523980.5     1.12838465E-02  21.469038    
 1.38240650E-06 4.61494391E-09  2574435.6      2574414.1     1.15840263E-02  21.478532    
 1.39166731E-06 4.64585962E-09  2627630.3      2627608.8     1.19081695E-02  21.459466    
 1.40099015E-06 4.67698245E-09  2679695.5      2679674.0     1.22209867E-02  21.476213    
 1.41037545E-06 4.70831376E-09  2734413.3      2734391.8     1.25569227E-02  21.467244    
 1.41982361E-06 4.73985497E-09  2789718.7      2789697.2     1.28972314E-02  21.466688    
 1.42933508E-06 4.77160747E-09  2845061.4      2845039.9     1.32366112E-02  21.482218    
 1.43891026E-06 4.80357269E-09  2904250.7      2904229.2     1.36107963E-02  21.457100    
 1.44854958E-06 4.83575204E-09  2961798.0      2961776.5     1.39683838E-02  21.473874    
 1.45825348E-06 4.86814696E-09  3021849.8      3021828.3     1.43483071E-02  21.470929    
 1.46802239E-06 4.90075889E-09  3083397.4      3083375.9     1.47412930E-02  21.464334    
 1.47785673E-06 4.93358930E-09  3144483.5      3144462.0     1.51284350E-02  21.481025    
 1.48775696E-06 4.96663964E-09  3209617.7      3209596.2     1.55533491E-02  21.459643    
 1.49772351E-06 4.99991138E-09  3273585.9      3273564.4     1.59656209E-02  21.471532    
 1.50775683E-06 5.03340601E-09  3339488.6      3339467.1     1.63952486E-02  21.474614    
 1.51785736E-06 5.06712502E-09  3407978.8      3407957.3     1.68490119E-02  21.461976    
 1.52802556E-06 5.10106992E-09  3475496.2      3475474.7     1.72915620E-02  21.478694    
 1.53826187E-06 5.13524222E-09  3546985.8      3546964.3     1.77722096E-02  21.463327    
 1.54856676E-06 5.16964344E-09  3618181.2      3618159.7     1.82484186E-02  21.469186    
 1.55894067E-06 5.20427512E-09  3690501.2      3690479.7     1.87342042E-02  21.478300    
 1.56938409E-06 5.23913879E-09  3766712.8      3766691.3     1.92580833E-02  21.459614    
 1.57989746E-06 5.27423602E-09  3841338.3      3841316.8     1.97639712E-02  21.476360    
 1.59048127E-06 5.30956836E-09  3919799.5      3919778.0     2.03076109E-02  21.467012    
 1.60113597E-06 5.34513740E-09  3999033.9      3999012.4     2.08576042E-02  21.466836    
 1.61186206E-06 5.38094472E-09  4078392.2      4078370.7     2.14068313E-02  21.481986    
 1.62265999E-06 5.41699191E-09  4163190.7      4163169.2     2.20115919E-02  21.457249    
 1.63353026E-06 5.45328058E-09  4245672.2      4245650.7     2.25898821E-02  21.474021    
 1.64447336E-06 5.48981235E-09  4331780.8      4331759.3     2.32047094E-02  21.470697    
 1.65548976E-06 5.52658885E-09  4419956.7      4419935.1     2.38398420E-02  21.644425    
 1.66657996E-06 5.56361172E-09  4507509.7      4507487.5     2.44659274E-02  22.154946    
 1.67774445E-06 5.60088261E-09  4600904.2      4600881.4     2.51535499E-02  22.801349    
 1.68898374E-06 5.63840317E-09  4692547.1      4692523.6     2.58198360E-02  23.413703    
 1.70029832E-06 5.67617509E-09  4787044.5      4787020.5     2.65151037E-02  24.041206    
 1.71168869E-06 5.71420004E-09  4885165.4      4885140.7     2.72484679E-02  24.688867    
 1.72315537E-06 5.75247973E-09  4981934.4      4981909.1     2.79641590E-02  25.310419    
 1.73469887E-06 5.79101585E-09  5084440.1      5084414.0     2.87419773E-02  25.990653    
 1.74631969E-06 5.82981012E-09  5186435.0      5186408.2     2.95116000E-02  26.685472    
 1.75801837E-06 5.86886429E-09  5290132.6      5290105.2     3.02977527E-02  27.387997    
 1.76979541E-06 5.90818007E-09  5399313.3      5399285.1     3.11444429E-02  28.127942    
 1.78165135E-06 5.94775924E-09  5506267.7      5506238.8     3.19625633E-02  28.830525    
 1.79358672E-06 5.98760354E-09  5618767.9      5618738.3     3.28423247E-02  29.569585    
 1.80560203E-06 6.02771477E-09  5732277.1      5732246.8     3.37312000E-02  30.303357    
 1.81769784E-06 6.06809470E-09  5846065.0      5846033.9     3.46200265E-02  31.048040    
 1.82987468E-06 6.10874514E-09  5967544.8      5967512.9     3.55974431E-02  31.888271    
 1.84213310E-06 6.14966790E-09  6085756.0      6085723.3     3.65326519E-02  32.683220    
 1.85447363E-06 6.19086481E-09  6209219.3      6209185.7     3.75276206E-02  33.511553    
 1.86689683E-06 6.23233769E-09  6335535.1      6335500.7     3.85541017E-02  34.347796    
 1.87940326E-06 6.27408840E-09  6461012.3      6460977.1     3.95666043E-02  35.160708    
 1.89199346E-06 6.31611880E-09  6594917.4      6594881.3     4.06793556E-02  36.031326    
 1.90466801E-06 6.35843077E-09  6726197.0      6726160.1     4.17561601E-02  36.896923    
 1.91742747E-06 6.40102618E-09  6861685.0      6861647.2     4.28813112E-02  37.821378    
 1.93027240E-06 6.44390694E-09  7002243.9      7002205.1     4.40665593E-02  38.776984    
 1.94320339E-06 6.48707497E-09  7140926.0      7140886.2     4.52239712E-02  39.696868    
 1.95622099E-06 6.53053217E-09  7287891.6      7287850.9     4.64826897E-02  40.670934    
 1.96932581E-06 6.57428050E-09  7433997.4      7433955.7     4.77265087E-02  41.618326    
 1.98251841E-06 6.61832191E-09  7582673.8      7582631.1     4.89987466E-02  42.572676    
 1.99579939E-06 6.66265834E-09  7739072.2      7739028.5     5.03671587E-02  43.619050    
 2.00916934E-06 6.70729179E-09  7892347.7      7892303.0     5.16902183E-02  44.658921    
 2.02262885E-06 6.75222424E-09  8053639.9      8053594.1     5.31139160E-02  45.752051    
 2.03617854E-06 6.79745770E-09  8216236.3      8216189.4     5.45504743E-02  46.834367    
 2.04981899E-06 6.84299417E-09  8379376.5      8379328.5     5.59888787E-02  47.902435    
 2.06355082E-06 6.88883570E-09  8553389.1      8553340.0     5.75685800E-02  49.038184    
 2.07737464E-06 6.93498432E-09  8722792.5      8722742.3     5.90809935E-02  50.122414    
 2.09129106E-06 6.98144209E-09  8899799.0      8899747.7     6.06911375E-02  51.304771    
 2.10530072E-06 7.02821109E-09  9080735.9      9080683.3     6.23500994E-02  52.541602    
 2.11940422E-06 7.07529339E-09  9260549.5      9260495.6     6.39875112E-02  53.746391    
 2.13360221E-06 7.12269110E-09  9452520.2      9452465.1     6.57882272E-02  55.030467    
 2.14789530E-06 7.17040633E-09  9640564.0      9640507.7     6.75284784E-02  56.258747    
 2.16228415E-06 7.21844121E-09  9834806.3      9834748.7     6.93493053E-02  57.515770    
 2.17676939E-06 7.26679787E-09  10036140.      10036081.     7.12648738E-02  58.814113    
 2.19135167E-06 7.31547848E-09  10234872.      10234811.     7.31366309E-02  60.140777    
 2.20603163E-06 7.36448520E-09  10445562.      10445500.     7.51735700E-02  61.582429    
 2.22080994E-06 7.41382021E-09  10654838.      10654775.     7.71837522E-02  62.985400    
 2.23568724E-06 7.46348573E-09  10867983.      10867919.     7.92426211E-02  64.396860    
 2.25066421E-06 7.51348396E-09  11091999.      11091933.     8.14542295E-02  65.868113    
 2.26574151E-06 7.56381713E-09  11311638.      11311570.     8.35938696E-02  67.281769    
 2.28091982E-06 7.61448748E-09  11542862.      11542793.     8.58978011E-02  68.774380    
 2.29619980E-06 7.66549727E-09  11775751.      11775681.     8.82194932E-02  70.342981    
 2.31158215E-06 7.71684879E-09  12009628.      12009556.     9.05472841E-02  71.926078    
 2.32706754E-06 7.76854430E-09  12258867.      12258793.     9.31003916E-02  73.607318    
 2.34265667E-06 7.82058613E-09  12501609.      12501534.     9.55462516E-02  75.207486    
 2.35835023E-06 7.87297659E-09  12755356.      12755279.     9.81519188E-02  76.866882    
 2.37414893E-06 7.92571802E-09  13014508.      13014429.     0.10083307      78.537834    
 2.39005346E-06 7.97881276E-09  13272163.      13272083.     0.10348107      80.197722    
 2.40606454E-06 8.03226319E-09  13547351.      13547269.     0.10639508      82.063808    
 2.42218287E-06 8.08607168E-09  13816678.      13816594.     0.10920754      83.884161    
 2.43840918E-06 8.14024064E-09  14095126.      14095040.     0.11215417      85.748844    
 2.45474420E-06 8.19477248E-09  14383484.      14383397.     0.11525005      87.657379    
 2.47118864E-06 8.24966963E-09  14668239.      14668149.     0.11827704      89.509467    
 2.48774324E-06 8.30493454E-09  14970255.      14970163.     0.12157333      91.456809    
 2.50440875E-06 8.36056967E-09  15269982.      15269888.     0.12482206      93.401936    
 2.52118589E-06 8.41657750E-09  15575521.      15575425.     0.12815393      95.461973    
 2.53807543E-06 8.47296053E-09  15896357.      15896259.     0.13172829      97.642968    
 2.55507811E-06 8.52972128E-09  16211058.      16210958.     0.13518848      99.739610    
 2.57219470E-06 8.58686227E-09  16542500.      16542398.     0.13891686      101.93021    
 2.58942595E-06 8.64438604E-09  16876038.      16875934.     0.14266905      104.09990    
 2.60677263E-06 8.70229518E-09  17211286.      17211180.     0.14643614      106.25172    
 2.62423551E-06 8.76059224E-09  17568235.      17568126.     0.15056245      108.58280    
 2.64181539E-06 8.81927985E-09  17916030.      17915919.     0.15451787      110.93261    
 2.65951303E-06 8.87836060E-09  18279747.      18279634.     0.15873456      113.39589    
 2.67732922E-06 8.93783714E-09  18650886.      18650770.     0.16306771      115.87384    
 2.69526477E-06 8.99771211E-09  19020041.      19019922.     0.16735002      118.30072    
 2.71332047E-06 9.05798819E-09  19414478.      19414357.     0.17206561      120.87010    
 2.73149713E-06 9.11866806E-09  19800180.      19800056.     0.17661087      123.34420    
 2.74979555E-06 9.17975443E-09  20199294.      20199168.     0.18137936      125.94924    
 2.76821656E-06 9.24125002E-09  20612246.      20612117.     0.18638283      128.75832    
 2.78676096E-06 9.30315757E-09  21020215.      21020083.     0.19127802      131.50583    
 2.80542960E-06 9.36547984E-09  21453093.      21452958.     0.19661227      134.39814    
 2.82422330E-06 9.42821962E-09  21882318.      21882180.     0.20186262      137.21699    
 2.84314290E-06 9.49137968E-09  22320250.      22320110.     0.20725457      140.05882    
 2.86218924E-06 9.55496287E-09  22779697.      22779554.     0.21303137      143.00982    
 2.88136318E-06 9.61897199E-09  23230556.      23230410.     0.21862714      145.96386    
 2.90066556E-06 9.68340992E-09  23705597.      23705448.     0.22466065      149.19902    
 2.92009725E-06 9.74827952E-09  24183225.      24183072.     0.23072471      152.41787    
 2.93965911E-06 9.81358368E-09  24663727.      24663571.     0.23682100      155.61218    
 2.95935202E-06 9.87932532E-09  25174872.      25174712.     0.24348990      158.97551    
 2.97917685E-06 9.94550737E-09  25673125.      25672962.     0.24988652      162.19991    
 2.99913449E-06 1.00121328E-08  26194409.      26194243.     0.25671027      165.54234    
 3.01922583E-06 1.00792045E-08  26725862.      26725692.     0.26371330      169.05246    
 3.03945176E-06 1.01467255E-08  27254704.      27254531.     0.27063858      172.64269    
 3.05981319E-06 1.02146989E-08  27819994.      27819817.     0.27826954      176.46238    
 3.08031101E-06 1.02831276E-08  28372290.      28372110.     0.28561518      180.12560    
 3.10094616E-06 1.03520148E-08  28944289.      28944105.     0.29333194      183.87868    
 3.12171953E-06 1.04213634E-08  29535595.      29535407.     0.30141835      187.70616    
 3.14263207E-06 1.04911766E-08  30120020.      30119828.     0.30933475      191.44674    
 3.16368471E-06 1.05614574E-08  30740382.      30740186.     0.31796690      195.56703    
 3.18487837E-06 1.06322091E-08  31354977.      31354777.     0.32645211      199.74925    
 3.20621402E-06 1.07034348E-08  31982591.      31982387.     0.33517786      203.96983    
 3.22769259E-06 1.07751376E-08  32640448.      32640240.     0.34451415      208.34231    
 3.24931505E-06 1.08473207E-08  33286290.      33286077.     0.35356352      212.56826    
 3.27108236E-06 1.09199874E-08  33967055.      33966838.     0.36332729      216.97153    
 3.29299549E-06 1.09931409E-08  34650929.      34650708.     0.37312762      221.35827    
 3.31505541E-06 1.10667844E-08  35339529.      35339303.     0.38299326      225.94282    
 3.33726312E-06 1.11409213E-08  36071380.      36071149.     0.39377140      230.93673    
 3.35961959E-06 1.12155548E-08  36785085.      36784849.     0.40411587      235.72144    
 3.38212584E-06 1.12906884E-08  37532095.      37531854.     0.41515853      240.67849    
 3.40478285E-06 1.13663252E-08  38293007.      38292761.     0.42647643      245.65602    
 3.42759164E-06 1.14424687E-08  39050511.      39050260.     0.43767583      250.54797    
 3.45055323E-06 1.15191223E-08  39860545.      39860289.     0.45002453      255.75492    
 3.47366865E-06 1.15962894E-08  40651282.      40651021.     0.46189586      261.05762    
 3.49693891E-06 1.16739735E-08  41470940.      41470673.     0.47438371      266.62804    
 3.52036506E-06 1.17521780E-08  42317512.      42317239.     0.48745259      272.31357    
 3.54394814E-06 1.18309064E-08  43154597.      43154318.     0.50025480      277.85251    
 3.56768921E-06 1.19101621E-08  44043516.      44043231.     0.51422373      283.66679    
 3.59158932E-06 1.19899488E-08  44923410.      44923120.     0.52793682      289.33858    
 3.61564954E-06 1.20702701E-08  45822731.      45822435.     0.54205756      295.13404    
 3.63987094E-06 1.21511293E-08  46764543.      46764241.     0.55714656      301.48447    
 3.66425460E-06 1.22325303E-08  47689558.      47689249.     0.57178095      307.75291    
 3.68880161E-06 1.23144766E-08  48664993.      48664678.     0.58758119      314.30132    
 3.71351306E-06 1.23969718E-08  49644029.      49643708.     0.60341979      320.77480    
 3.73839005E-06 1.24800197E-08  50630703.      50630375.     0.61938529      327.21825    
 3.76343369E-06 1.25636239E-08  51678399.      51678064.     0.63680465      333.96663    
 3.78864510E-06 1.26477882E-08  52700567.      52700226.     0.65353343      340.58860    
 3.81402541E-06 1.27325163E-08  53770881.      53770533.     0.67140334      347.81164    
 3.83957574E-06 1.28178120E-08  54860156.      54859800.     0.68969464      355.20471    
 3.86529723E-06 1.29036791E-08  55945024.      55944661.     0.70780597      362.46491    
 3.89119103E-06 1.29901214E-08  57105580.      57105209.     0.72778901      370.14422    
 3.91725829E-06 1.30771428E-08  58237524.      58237146.     0.74697426      377.52147    
 3.94350018E-06 1.31647472E-08  59411882.      59411497.     0.76718296      385.08349    
 3.96991787E-06 1.32529384E-08  60623723.      60623329.     0.78830423      392.96878    
 3.99651253E-06 1.33417205E-08  61822509.      61822107.     0.80900756      401.07104    
 4.02328535E-06 1.34310972E-08  63096036.      63095625.     0.83161261      409.72354    
 4.05023752E-06 1.35210728E-08  64355548.      64355129.     0.85377448      418.14187    
 4.07737024E-06 1.36116511E-08  65643993.      65643566.     0.87662576      426.65213    
 4.10468473E-06 1.37028361E-08  66992100.      66991664.     0.90101197      435.43549    
 4.13218219E-06 1.37946320E-08  68316746.      68316301.     0.92467824      443.96377    
