 OPTXAGNF AGN Spectrum Model Parameters: BLS, Astar 0.0                          
 M_BH:  1.0000E+07 M_0            L  :  1.0000E-02 L/Ledd 
 D   :  1.5000E+18 cm             z  :   0.000     redshift 
 Rcor:   60.00     Rg             Ro :   4.000     Rg 
 C_T :  0.2000     keV            Tau:   15.00     Optical Depth 
 gam :   1.800     (-slope)       fpl:  0.5000     Fraction 
 E              0.5DeltaE      E.FE total     E.FE Disk      E.FE Compton   E.FE NonThermal
 (keV)          (keV)          E.E/cm2/s/E    E.E/cm2/s/E    E.E/cm2/s/E    E.E/cm2/s/E    
 1.00334952E-06 3.34952256E-09  417326.13      417293.73     0.16282733      32.244230    
 1.01007101E-06 3.37196116E-09  425589.84      425556.80     0.16710495      32.879929    
 1.01683752E-06 3.39455008E-09  434201.20      434167.49     0.17164053      33.534113    
 1.02364936E-06 3.41729032E-09  443049.97      443015.59     0.17635052      34.201813    
 1.03050683E-06 3.44018290E-09  451821.36      451786.29     0.18098166      34.892274    
 1.03741024E-06 3.46322884E-09  461160.98      461125.15     0.18605456      35.640547    
 1.04435990E-06 3.48642917E-09  470357.84      470321.28     0.19099602      36.365892    
 1.05135611E-06 3.50978492E-09  479807.32      479770.03     0.19612481      37.102407    
 1.05839920E-06 3.53329712E-09  489653.10      489615.04     0.20156303      37.859023    
 1.06548946E-06 3.55696684E-09  499347.00      499308.20     0.20685691      38.595009    
 1.07262722E-06 3.58079512E-09  509596.86      509557.28     0.21259503      39.370290    
 1.07981280E-06 3.60478303E-09  519831.57      519791.17     0.21830261      40.181137    
 1.08704652E-06 3.62893164E-09  530200.22      530158.98     0.22410161      41.009095    
 1.09432869E-06 3.65324201E-09  541154.66      541112.56     0.23037993      41.873747    
 1.10165965E-06 3.67771524E-09  551868.05      551825.11     0.23643138      42.707183    
 1.10903971E-06 3.70235243E-09  563116.36      563072.55     0.24292131      43.571275    
 1.11646922E-06 3.72715465E-09  574505.26      574460.58     0.24951299      44.434005    
 1.12394850E-06 3.75212303E-09  585881.82      585836.26     0.25606909      45.298282    
 1.13147788E-06 3.77725867E-09  598069.00      598022.47     0.26331645      46.267584    
 1.13905770E-06 3.80256270E-09  609908.99      609861.51     0.27023388      47.211337    
 1.14668830E-06 3.82803623E-09  622252.40      622203.94     0.27757340      48.184459    
 1.15437002E-06 3.85368042E-09  634924.90      634875.45     0.28518519      49.169540    
 1.16210319E-06 3.87949640E-09  647492.00      647441.57     0.29267428      50.134446    
 1.16988818E-06 3.90548532E-09  660878.67      660827.23     0.30088316      51.147087    
 1.17772531E-06 3.93164835E-09  674049.37      673996.91     0.30886882      52.154513    
 1.18561494E-06 3.95798663E-09  687593.77      687540.22     0.31716833      53.231590    
 1.19355743E-06 3.98450137E-09  701693.66      701638.97     0.32595704      54.357111    
 1.20155313E-06 4.01119372E-09  715582.08      715526.30     0.33451784      55.449759    
 1.20960239E-06 4.03806489E-09  730273.12      730216.19     0.34380319      56.591338    
 1.21770557E-06 4.06511607E-09  744929.62      744871.55     0.35302700      57.714421    
 1.22586303E-06 4.09234846E-09  759791.02      759731.81     0.36241110      58.839807    
 1.23407514E-06 4.11976329E-09  775477.99      775417.57     0.37255753      60.043338    
 1.24234227E-06 4.14736177E-09  790826.51      790764.86     0.38234340      61.267630    
 1.25066478E-06 4.17514513E-09  806948.19      806885.24     0.39284536      62.553628    
 1.25904304E-06 4.20311462E-09  823257.06      823192.82     0.40349797      63.835721    
 1.26747742E-06 4.23127147E-09  839562.74      839497.22     0.41410730      65.101823    
 1.27596831E-06 4.25961695E-09  857014.39      856947.53     0.42581986      66.437328    
 1.28451608E-06 4.28815232E-09  873976.24      873908.08     0.43700608      67.721902    
 1.29312111E-06 4.31687884E-09  891666.88      891597.34     0.44888290      69.083567    
 1.30178379E-06 4.34579781E-09  909813.21      909742.22     0.46118414      70.536641    
 1.31050450E-06 4.37491051E-09  927816.45      927744.01     0.47329477      71.969082    
 1.31928362E-06 4.40421823E-09  947001.61      946927.64     0.48657811      73.477570    
 1.32812156E-06 4.43372228E-09  965860.92      965785.48     0.49948325      74.939054    
 1.33701871E-06 4.46342399E-09  985272.23      985195.29     0.51291357      76.425118    
 1.34597546E-06 4.49332467E-09  1005461.6      1005383.1     0.52711688      77.951812    
 1.35499221E-06 4.52342565E-09  1025356.9      1025276.9     0.54096055      79.491544    
 1.36406936E-06 4.55372829E-09  1046410.8      1046329.1     0.55598584      81.181186    
 1.37320733E-06 4.58423392E-09  1067396.9      1067313.5     0.57089196      82.849246    
 1.38240650E-06 4.61494391E-09  1088695.2      1088610.1     0.58607744      84.521610    
 1.39166731E-06 4.64585962E-09  1111156.3      1111069.5     0.60247502      86.261081    
 1.40099015E-06 4.67698245E-09  1133142.4      1133053.8     0.61829970      87.942358    
 1.41037545E-06 4.70831376E-09  1156245.6      1156155.3     0.63529375      89.689115    
 1.41982361E-06 4.73985497E-09  1179596.7      1179504.5     0.65250896      91.508355    
 1.42933508E-06 4.77160747E-09  1202964.0      1202870.0     0.66967718      93.382685    
 1.43891026E-06 4.80357269E-09  1227951.0      1227854.9     0.68860586      95.371112    
 1.44854958E-06 4.83575204E-09  1252247.2      1252149.3     0.70669500      97.274929    
 1.45825348E-06 4.86814696E-09  1277598.1      1277498.2     0.72591389      99.237686    
 1.46802239E-06 4.90075889E-09  1303579.0      1303477.0     0.74579346      101.22066    
 1.47785673E-06 4.93358930E-09  1329366.2      1329262.2     0.76537744      103.17155    
 1.48775696E-06 4.96663964E-09  1356857.4      1356751.3     0.78687189      105.32421    
 1.49772351E-06 4.99991138E-09  1383858.7      1383750.4     0.80772688      107.49362    
 1.50775683E-06 5.03340601E-09  1411674.4      1411563.9     0.82945971      109.70309    
 1.51785736E-06 5.06712502E-09  1440579.4      1440466.5     0.85241326      111.96796    
 1.52802556E-06 5.10106992E-09  1469075.6      1468960.6     0.87479964      114.17203    
 1.53826187E-06 5.13524222E-09  1499243.5      1499126.1     0.89911292      116.47303    
 1.54856676E-06 5.16964344E-09  1529288.2      1529168.5     0.92320166      118.74820    
 1.55894067E-06 5.20427512E-09  1559806.8      1559684.7     0.94777476      121.14982    
 1.56938409E-06 5.23913879E-09  1591962.7      1591838.0     0.97427451      123.73719    
 1.57989746E-06 5.27423602E-09  1623452.3      1623325.1     0.99986428      126.23297    
 1.59048127E-06 5.30956836E-09  1656555.7      1656425.9      1.0273634      128.82589    
 1.60113597E-06 5.34513740E-09  1689984.9      1689852.4      1.0551838      131.40743    
 1.61186206E-06 5.38094472E-09  1723466.9      1723331.9      1.0829655      133.96333    
 1.62265999E-06 5.41699191E-09  1759237.0      1759099.2      1.1135558      136.67404    
 1.63353026E-06 5.45328058E-09  1794033.8      1793893.3      1.1428073      139.43265    
 1.64447336E-06 5.48981235E-09  1830356.4      1830212.9      1.1739067      142.34935    
 1.65548976E-06 5.52658885E-09  1867548.7      1867402.2      1.2060330      145.29730    
 1.66657996E-06 5.56361172E-09  1904479.9      1904330.5      1.2377017      148.18667    
 1.67774445E-06 5.60088261E-09  1943867.1      1943714.6      1.2724826      151.22624    
 1.68898374E-06 5.63840317E-09  1982518.9      1982363.4      1.3061844      154.17080    
 1.70029832E-06 5.67617509E-09  2022371.4      2022212.8      1.3413519      157.20466    
 1.71168869E-06 5.71420004E-09  2063747.5      2063585.6      1.3784460      160.49900    
 1.72315537E-06 5.75247973E-09  2104556.6      2104391.5      1.4146463      163.76886    
 1.73469887E-06 5.79101585E-09  2147777.0      2147608.4      1.4539885      167.19503    
 1.74631969E-06 5.82981012E-09  2190783.7      2190611.7      1.4929162      170.55461    
 1.75801837E-06 5.86886429E-09  2234506.9      2234331.4      1.5326799      173.92945    
 1.76979541E-06 5.90818007E-09  2280534.2      2280355.2      1.5755050      177.42893    
 1.78165135E-06 5.94775924E-09  2325627.6      2325445.1      1.6168853      180.88195    
 1.79358672E-06 5.98760354E-09  2373051.6      2372865.3      1.6613828      184.66486    
 1.80560203E-06 6.02771477E-09  2420900.5      2420710.3      1.7063412      188.50052    
 1.81769784E-06 6.06809470E-09  2468867.6      2468673.6      1.7512970      192.29673    
 1.82987468E-06 6.10874514E-09  2520065.8      2519867.7      1.8007329      196.29570    
 1.84213310E-06 6.14966790E-09  2569892.7      2569690.7      1.8480343      200.13571    
 1.85447363E-06 6.19086481E-09  2621926.0      2621720.0      1.8983577      204.09391    
 1.86689683E-06 6.23233769E-09  2675158.2      2674948.1      1.9502746      208.18743    
 1.87940326E-06 6.27408840E-09  2728040.0      2727825.6      2.0014846      212.41335    
 1.89199346E-06 6.31611880E-09  2784460.7      2784241.7      2.0577640      216.94154    
 1.90466801E-06 6.35843077E-09  2839780.8      2839557.4      2.1122256      221.31204    
 1.91742747E-06 6.40102618E-09  2896868.6      2896640.7      2.1691320      225.76924    
 1.93027240E-06 6.44390694E-09  2956085.7      2955853.2      2.2290773      230.32688    
 1.94320339E-06 6.48707497E-09  3014517.0      3014279.9      2.2876149      234.77549    
 1.95622099E-06 6.53053217E-09  3076425.4      3076183.5      2.3512753      239.54845    
 1.96932581E-06 6.57428050E-09  3137975.0      3137728.1      2.4141821      244.49116    
 1.98251841E-06 6.61832191E-09  3200604.7      3200352.8      2.4785260      249.50636    
 1.99579939E-06 6.66265834E-09  3266475.2      3266217.9      2.5477330      254.71355    
 2.00916934E-06 6.70729179E-09  3331037.6      3330775.2      2.6146467      259.74737    
 2.02262885E-06 6.75222424E-09  3398964.0      3398696.3      2.6866491      264.97472    
 2.03617854E-06 6.79745770E-09  3467439.1      3467166.1      2.7593017      270.18313    
 2.04981899E-06 6.84299417E-09  3536144.5      3535866.2      2.8320476      275.50059    
 2.06355082E-06 6.88883570E-09  3609410.6      3609126.3      2.9119381      281.41005    
 2.07737464E-06 6.93498432E-09  3680746.4      3680456.3      2.9884262      287.10994    
 2.09129106E-06 6.98144209E-09  3755271.7      3754975.6      3.0698558      292.99798    
 2.10530072E-06 7.02821109E-09  3831446.4      3831144.3      3.1537537      298.93169    
 2.11940422E-06 7.07529339E-09  3907152.7      3906844.7      3.2365619      304.75921    
 2.13360221E-06 7.12269110E-09  3987956.2      3987642.0      3.3276272      310.89622    
 2.14789530E-06 7.17040633E-09  4067116.6      4066796.1      3.4156351      317.07138    
 2.16228415E-06 7.21844121E-09  4148877.1      4148549.9      3.5077170      323.66577    
 2.17676939E-06 7.26679787E-09  4233611.2      4233277.1      3.6045891      330.44387    
 2.19135167E-06 7.31547848E-09  4317257.7      4316916.9      3.6992460      337.04255    
 2.20603163E-06 7.36448520E-09  4405916.4      4405568.6      3.8022545      343.94754    
 2.22080994E-06 7.41382021E-09  4493985.0      4493630.4      3.9039101      350.71387    
 2.23568724E-06 7.46348573E-09  4583677.4      4583315.9      4.0080272      357.53158    
 2.25066421E-06 7.51348396E-09  4677925.4      4677556.3      4.1198667      364.92537    
 2.26574151E-06 7.56381713E-09  4770343.2      4769966.5      4.2280673      372.38764    
 2.28091982E-06 7.61448748E-09  4867615.2      4867230.7      4.3445743      380.16759    
 2.29619980E-06 7.66549727E-09  4965587.4      4965195.0      4.4619791      387.89010    
 2.31158215E-06 7.71684879E-09  5063976.0      5063575.9      4.5796922      395.55228    
 2.32706754E-06 7.76854430E-09  5168798.4      5168390.1      4.7087967      403.59490    
 2.34265667E-06 7.82058613E-09  5270904.7      5270488.5      4.8324787      411.36724    
 2.35835023E-06 7.87297659E-09  5377620.3      5377195.5      4.9642402      419.78231    
 2.37414893E-06 7.92571802E-09  5486601.6      5486167.9      5.0998175      428.59729    
 2.39005346E-06 7.97881276E-09  5594960.3      5594517.8      5.2337191      437.24718    
 2.40606454E-06 8.03226319E-09  5710658.2      5710206.5      5.3810688      446.37027    
 2.42218287E-06 8.08607168E-09  5823907.4      5823446.7      5.5232840      455.17498    
 2.43840918E-06 8.14024064E-09  5940976.3      5940506.4      5.6722823      464.16526    
 2.45474420E-06 8.19477248E-09  6062193.8      6061714.6      5.8288261      473.40447    
 2.47118864E-06 8.24966963E-09  6181909.1      6181420.2      5.9818863      482.90253    
 2.48774324E-06 8.30493454E-09  6308846.9      6308347.6      6.1485613      493.17102    
 2.50440875E-06 8.36056967E-09  6434831.8      6434322.3      6.3128308      503.21791    
 2.52118589E-06 8.41657750E-09  6563251.4      6562731.6      6.4813036      513.33707    
 2.53807543E-06 8.47296053E-09  6698069.7      6697539.2      6.6620349      523.81219    
 2.55507811E-06 8.52972128E-09  6830328.7      6829787.9      6.8369946      533.96417    
 2.57219470E-06 8.58686227E-09  6969589.3      6969037.7      7.0255113      544.60819    
 2.58942595E-06 8.64438604E-09  7109731.0      7109168.0      7.2152313      555.79925    
 2.60677263E-06 8.70229518E-09  7250593.1      7250018.6      7.4057043      567.16713    
 2.62423551E-06 8.76059224E-09  7400526.9      7399940.2      7.6143360      579.13897    
 2.64181539E-06 8.81927985E-09  7546641.7      7546043.3      7.8143282      590.63424    
 2.65951303E-06 8.87836060E-09  7699413.1      7698802.6      8.0275280      602.50671    
 2.67732922E-06 8.93783714E-09  7855289.6      7854666.9      8.2466144      614.45035    
 2.69526477E-06 8.99771211E-09  8010344.1      8009709.3      8.4631308      626.35553    
 2.71332047E-06 9.05798819E-09  8175962.1      8175313.8      8.7015482      639.63546    
 2.73149713E-06 9.11866806E-09  8337939.1      8337277.4      8.9313553      652.70139    
 2.74979555E-06 9.17975443E-09  8505522.0      8504846.8      9.1724459      666.06851    
 2.76821656E-06 9.24125002E-09  8678887.3      8678198.2      9.4254136      679.70712    
 2.78676096E-06 9.30315757E-09  8850179.6      8849476.9      9.6729080      693.01468    
 2.80542960E-06 9.36547984E-09  9031874.0      9031157.1      9.9425947      706.92900    
 2.82422330E-06 9.42821962E-09  9212051.0      9211319.9      10.208040      720.84541    
 2.84314290E-06 9.49137968E-09  9395869.7      9395123.7      10.480643      735.60317    
 2.86218924E-06 9.55496287E-09  9588670.9      9587908.9      10.772697      751.18763    
 2.88136318E-06 9.61897199E-09  9777897.3      9777120.0      11.055601      766.25584    
 2.90066556E-06 9.68340992E-09  9977217.7      9976424.4      11.360628      781.93809    
 2.92009725E-06 9.74827952E-09  10177624.      10176815.      11.667200      797.48622    
 2.93965911E-06 9.81358368E-09  10379238.      10378413.      11.975401      812.94886    
 2.95935202E-06 9.87932532E-09  10593636.      10592794.      12.312542      829.55028    
 2.97917685E-06 9.94550737E-09  10802669.      10801810.      12.635920      846.41580    
 2.99913449E-06 1.00121328E-08  11021312.      11020435.      12.980887      864.07744    
 3.01922583E-06 1.00792045E-08  11244201.      11243306.      13.334913      881.82860    
 3.03945176E-06 1.01467255E-08  11466013.      11465100.      13.685010      899.27236    
 3.05981319E-06 1.02146989E-08  11703019.      11702088.      14.070771      917.65066    
 3.08031101E-06 1.02831276E-08  11934622.      11933672.      14.442111      935.41231    
 3.10094616E-06 1.03520148E-08  12174444.      12173475.      14.832206      954.05144    
 3.12171953E-06 1.04213634E-08  12422318.      12421329.      15.240983      974.15032    
 3.14263207E-06 1.04911766E-08  12667338.      12666328.      15.641167      993.90176    
 3.16368471E-06 1.05614574E-08  12927332.      12926302.      16.077522      1014.6210    
 3.18487837E-06 1.06322091E-08  13184936.      13183885.      16.506450      1034.8541    
 3.20621402E-06 1.07034348E-08  13447973.      13446900.      16.947534      1055.2683    
 3.22769259E-06 1.07751376E-08  13723608.      13722514.      17.419471      1076.3775    
 3.24931505E-06 1.08473207E-08  13994256.      13993140.      17.876908      1097.5475    
 3.27108236E-06 1.09199874E-08  14279449.      14278310.      18.370445      1120.7361    
 3.29299549E-06 1.09931409E-08  14565949.      14564786.      18.865830      1143.8314    
 3.31505541E-06 1.10667844E-08  14854429.      14853243.      19.364514      1166.7984    
 3.33726312E-06 1.11409213E-08  15160911.      15159700.      19.909308      1190.8739    
 3.35961959E-06 1.12155548E-08  15459860.      15458626.      20.432186      1214.0549    
 3.38212584E-06 1.12906884E-08  15772674.      15771415.      20.990345      1238.0158    
 3.40478285E-06 1.13663252E-08  16091282.      16089997.      21.562411      1263.1162    
 3.42759164E-06 1.14424687E-08  16408491.      16407180.      22.128488      1288.9220    
 3.45055323E-06 1.15191223E-08  16747548.      16746209.      22.752638      1316.3021    
 3.47366865E-06 1.15962894E-08  17078601.      17077235.      23.352665      1342.6220    
 3.49693891E-06 1.16739735E-08  17421688.      17420295.      23.983843      1369.5798    
 3.52036506E-06 1.17521780E-08  17775973.      17774551.      24.644379      1397.0229    
 3.54394814E-06 1.18309064E-08  18126336.      18124887.      25.291440      1423.8942    
 3.56768921E-06 1.19101621E-08  18498245.      18496766.      25.997450      1453.3680    
 3.59158932E-06 1.19899488E-08  18866425.      18864915.      26.690531      1483.3860    
 3.61564954E-06 1.20702701E-08  19242693.      19241151.      27.404209      1513.7237    
 3.63987094E-06 1.21511293E-08  19636616.      19635043.      28.166806      1545.0714    
 3.66425460E-06 1.22325303E-08  20023589.      20021985.      28.906433      1575.4567    
 3.68880161E-06 1.23144766E-08  20431507.      20429870.      29.704962      1607.0633    
 3.71351306E-06 1.23969718E-08  20840939.      20839270.      30.505427      1638.5404    
 3.73839005E-06 1.24800197E-08  21253565.      21251863.      31.312303      1671.4119    
 3.76343369E-06 1.25636239E-08  21691526.      21689786.      32.192628      1707.1855    
 3.78864510E-06 1.26477882E-08  22118921.      22117146.      33.038063      1741.5900    
 3.81402541E-06 1.27325163E-08  22566306.      22564495.      33.941147      1777.1970    
 3.83957574E-06 1.28178120E-08  23021574.      23019726.      34.865517      1812.9237    
 3.86529723E-06 1.29036791E-08  23475043.      23473159.      35.780795      1848.0983    
 3.89119103E-06 1.29901214E-08  23959906.      23957984.      36.790626      1885.4259    
 3.91725829E-06 1.30771428E-08  24432939.      24430978.      37.760152      1923.4201    
 3.94350018E-06 1.31647472E-08  24923577.      24921574.      38.781379      1963.4368    
 3.96991787E-06 1.32529384E-08  25429767.      25427723.      39.848704      2004.2390    
 3.99651253E-06 1.33417205E-08  25930580.      25928495.      40.894914      2044.0667    
 4.02328535E-06 1.34310972E-08  26462373.      26460245.      42.037188      2085.8117    
 4.05023752E-06 1.35210728E-08  26988391.      26986221.      43.157071      2126.5577    
 4.07737024E-06 1.36116511E-08  27526421.      27524209.      44.311778      2168.1703    
 4.10468473E-06 1.37028361E-08  28089177.      28086918.      45.544018      2213.6092    
 4.13218219E-06 1.37946320E-08  28642259.      28639953.      46.739887      2258.6766    
