 OPTXAGNF AGN Spectrum Model Parameters: NLS, Astar 0.0                          
 M_BH:  1.0000E+07 M_0            L  :  0.2000     L/Ledd 
 D   :  1.5000E+18 cm             z  :   0.000     redshift 
 Rcor:   40.00     Rg             Ro :   4.000     Rg 
 C_T :  0.2000     keV            Tau:   15.00     Optical Depth 
 gam :   2.200     (-slope)       fpl:  0.2000     Fraction 
 E              0.5DeltaE      E.FE total     E.FE Disk      E.FE Compton   E.FE NonThermal
 (keV)          (keV)          E.E/cm2/s/E    E.E/cm2/s/E    E.E/cm2/s/E    E.E/cm2/s/E    
 1.00334952E-06 3.34952256E-09  890959.60      890945.44     4.35503889E-03  14.158228    
 1.01007101E-06 3.37196116E-09  908618.29      908604.12     4.46945899E-03  14.169300    
 1.01683752E-06 3.39455008E-09  927021.11      927006.94     4.59077935E-03  14.168107    
 1.02364936E-06 3.41729032E-09  945932.07      945917.90     4.71676575E-03  14.163003    
 1.03050683E-06 3.44018290E-09  964677.03      964662.85     4.84064271E-03  14.174020    
 1.03741024E-06 3.46322884E-09  984638.48      984624.32     4.97633751E-03  14.160659    
 1.04435990E-06 3.48642917E-09  1004294.0      1004279.9     5.10851612E-03  14.167754    
 1.05135611E-06 3.50978492E-09  1024490.3      1024476.1     5.24570598E-03  14.170539    
 1.05839920E-06 3.53329712E-09  1045535.1      1045520.9     5.39117370E-03  14.161447    
 1.06548946E-06 3.55696684E-09  1066254.3      1066240.1     5.53278011E-03  14.172482    
 1.07262722E-06 3.58079512E-09  1088164.0      1088149.8     5.68627059E-03  14.163091    
 1.07981280E-06 3.60478303E-09  1110040.9      1110026.7     5.83894458E-03  14.166205    
 1.08704652E-06 3.62893164E-09  1132204.3      1132190.1     5.99406399E-03  14.172971    
 1.09432869E-06 3.65324201E-09  1155622.3      1155608.2     6.16200599E-03  14.159888    
 1.10165965E-06 3.67771524E-09  1178523.7      1178509.5     6.32387919E-03  14.170941    
 1.10903971E-06 3.70235243E-09  1202570.6      1202556.4     6.49748253E-03  14.165522    
 1.11646922E-06 3.72715465E-09  1226918.5      1226904.3     6.67380803E-03  14.164654    
 1.12394850E-06 3.75212303E-09  1251239.5      1251225.3     6.84918202E-03  14.175403    
 1.13147788E-06 3.77725867E-09  1277296.9      1277282.7     7.04304853E-03  14.158327    
 1.13905770E-06 3.80256270E-09  1302610.0      1302595.9     7.22808899E-03  14.169397    
 1.14668830E-06 3.82803623E-09  1329001.5      1328987.3     7.42442153E-03  14.167954    
 1.15437002E-06 3.85368042E-09  1356097.8      1356083.6     7.62803786E-03  14.163101    
 1.16210319E-06 3.87949640E-09  1382967.8      1382953.7     7.82837190E-03  14.174117    
 1.16988818E-06 3.90548532E-09  1411593.9      1411579.7     8.04796243E-03  14.160506    
 1.17772531E-06 3.93164835E-09  1439756.7      1439742.5     8.26158141E-03  14.167851    
 1.18561494E-06 3.95798663E-09  1468719.8      1468705.6     8.48359687E-03  14.170386    
 1.19355743E-06 3.98450137E-09  1498873.1      1498858.9     8.71870011E-03  14.161545    
 1.20155313E-06 4.01119372E-09  1528572.7      1528558.5     8.94770618E-03  14.172578    
 1.20960239E-06 4.03806489E-09  1559992.3      1559978.1     9.19609627E-03  14.162938    
 1.21770557E-06 4.06511607E-09  1591337.4      1591323.2     9.44284046E-03  14.166303    
 1.22586303E-06 4.09234846E-09  1623121.2      1623107.1     9.69387298E-03  14.172818    
 1.23407514E-06 4.11976329E-09  1656674.5      1656660.3     9.96530074E-03  14.159986    
 1.24234227E-06 4.14736177E-09  1689501.5      1689487.3     1.02270822E-02  14.171038    
 1.25066478E-06 4.17514513E-09  1723985.6      1723971.4     1.05080221E-02  14.165369    
 1.25904304E-06 4.20311462E-09  1758870.6      1758856.4     1.07929928E-02  14.164752    
 1.26747742E-06 4.23127147E-09  1793748.1      1793734.0     1.10768054E-02  14.175250    
 1.27596831E-06 4.25961695E-09  1831082.6      1831068.4     1.13901344E-02  14.158425    
 1.28451608E-06 4.28815232E-09  1867366.1      1867351.9     1.16893819E-02  14.169494    
 1.29312111E-06 4.31687884E-09  1905211.8      1905197.6     1.20071059E-02  14.167801    
 1.30178379E-06 4.34579781E-09  1944034.1      1944020.0     1.23361854E-02  14.163198    
 1.31050450E-06 4.37491051E-09  1982548.9      1982534.7     1.26601655E-02  14.174213    
 1.31928362E-06 4.40421823E-09  2023598.1      2023583.9     1.30155211E-02  14.160354    
 1.32812156E-06 4.43372228E-09  2063947.8      2063933.6     1.33607584E-02  14.167949    
 1.33701871E-06 4.46342399E-09  2105480.8      2105466.7     1.37200471E-02  14.170233    
 1.34597546E-06 4.49332467E-09  2148682.4      2148668.2     1.41000175E-02  14.161642    
 1.35499221E-06 4.52342565E-09  2191252.3      2191238.1     1.44703659E-02  14.172675    
 1.36406936E-06 4.55372829E-09  2236306.8      2236292.6     1.48723291E-02  14.162785    
 1.37320733E-06 4.58423392E-09  2281215.2      2281201.0     1.52711042E-02  14.204381    
 1.38240650E-06 4.61494391E-09  2326792.9      2326778.4     1.56773538E-02  14.470362    
 1.39166731E-06 4.64585962E-09  2374865.3      2374850.4     1.61160344E-02  14.893902    
 1.40099015E-06 4.67698245E-09  2421917.3      2421902.0     1.65393869E-02  15.293681    
 1.41037545E-06 4.70831376E-09  2471366.0      2471350.2     1.69940271E-02  15.715141    
 1.41982361E-06 4.73985497E-09  2521345.6      2521329.5     1.74545852E-02  16.133113    
 1.42933508E-06 4.77160747E-09  2571359.0      2571342.5     1.79138862E-02  16.542738    
 1.43891026E-06 4.80357269E-09  2624847.9      2624830.9     1.84202907E-02  16.988040    
 1.44854958E-06 4.83575204E-09  2676853.3      2676835.9     1.89042330E-02  17.432151    
 1.45825348E-06 4.86814696E-09  2731121.6      2731103.7     1.94184034E-02  17.903972    
 1.46802239E-06 4.90075889E-09  2786741.3      2786722.9     1.99502520E-02  18.381685    
 1.47785673E-06 4.93358930E-09  2841944.2      2841925.3     2.04741917E-02  18.844212    
 1.48775696E-06 4.96663964E-09  2900804.5      2900785.2     2.10492501E-02  19.339795    
 1.49772351E-06 4.99991138E-09  2958611.5      2958591.7     2.16071992E-02  19.812577    
 1.50775683E-06 5.03340601E-09  3018166.3      3018146.0     2.21886369E-02  20.302441    
 1.51785736E-06 5.06712502E-09  3080058.9      3080038.0     2.28027382E-02  20.839575    
 1.52802556E-06 5.10106992E-09  3141072.7      3141051.3     2.34016642E-02  21.362774    
 1.53826187E-06 5.13524222E-09  3205675.2      3205653.3     2.40521494E-02  21.918273    
 1.54856676E-06 5.16964344E-09  3270012.1      3269989.6     2.46966274E-02  22.458554    
 1.55894067E-06 5.20427512E-09  3335365.1      3335342.1     2.53540660E-02  23.000056    
 1.56938409E-06 5.23913879E-09  3404233.9      3404210.4     2.60630582E-02  23.568623    
 1.57989746E-06 5.27423602E-09  3471670.0      3471645.9     2.67477021E-02  24.122922    
 1.59048127E-06 5.30956836E-09  3542571.5      3542546.7     2.74834371E-02  24.736482    
 1.60113597E-06 5.34513740E-09  3614171.5      3614146.2     2.82277707E-02  25.353981    
 1.61186206E-06 5.38094472E-09  3685883.7      3685857.7     2.89710674E-02  25.961011    
 1.62265999E-06 5.41699191E-09  3762510.7      3762484.0     2.97895201E-02  26.610471    
 1.63353026E-06 5.45328058E-09  3837044.5      3837017.2     3.05721491E-02  27.224446    
 1.64447336E-06 5.48981235E-09  3914855.3      3914827.4     3.14042253E-02  27.861842    
 1.65548976E-06 5.52658885E-09  3994533.6      3994505.0     3.22637816E-02  28.525070    
 1.66657996E-06 5.56361172E-09  4073649.0      4073619.7     3.31110938E-02  29.202747    
 1.67774445E-06 5.60088261E-09  4158041.6      4158011.6     3.40416868E-02  29.935039    
 1.68898374E-06 5.63840317E-09  4240851.9      4240821.2     3.49434043E-02  30.634829    
 1.70029832E-06 5.67617509E-09  4326241.1      4326209.8     3.58843438E-02  31.350110    
 1.71168869E-06 5.71420004E-09  4414903.8      4414871.7     3.68768410E-02  32.085590    
 1.72315537E-06 5.75247973E-09  4502345.4      4502312.5     3.78454202E-02  32.796771    
 1.73469887E-06 5.79101585E-09  4594969.3      4594935.7     3.88980789E-02  33.570978    
 1.74631969E-06 5.82981012E-09  4687132.0      4687097.6     3.99396459E-02  34.365087    
 1.75801837E-06 5.86886429E-09  4780833.1      4780797.9     4.10035838E-02  35.167678    
 1.76979541E-06 5.90818007E-09  4879487.3      4879451.2     4.21494493E-02  36.007971    
 1.78165135E-06 5.94775924E-09  4976130.7      4976093.8     4.32566503E-02  36.812096    
 1.79358672E-06 5.98760354E-09  5077783.9      5077746.2     4.44472725E-02  37.652954    
 1.80560203E-06 6.02771477E-09  5180348.7      5180310.2     4.56502288E-02  38.490010    
 1.81769784E-06 6.06809470E-09  5283165.5      5283126.1     4.68531189E-02  39.344351    
 1.82987468E-06 6.10874514E-09  5392930.7      5392890.4     4.81759016E-02  40.299288    
 1.84213310E-06 6.14966790E-09  5499743.5      5499702.2     4.94415627E-02  41.209446    
 1.85447363E-06 6.19086481E-09  5611300.7      5611258.5     5.07880992E-02  42.153963    
 1.86689683E-06 6.23233769E-09  5725434.9      5725391.7     5.21772824E-02  43.107120    
 1.87940326E-06 6.27408840E-09  5838811.7      5838767.6     5.35475482E-02  44.037759    
 1.89199346E-06 6.31611880E-09  5959801.5      5959756.4     5.50534842E-02  45.027961    
 1.90466801E-06 6.35843077E-09  6078420.0      6078373.9     5.65107720E-02  46.020982    
 1.91742747E-06 6.40102618E-09  6200840.1      6200793.0     5.80334890E-02  47.077410    
 1.93027240E-06 6.44390694E-09  6327840.7      6327792.5     5.96375373E-02  48.166445    
 1.94320339E-06 6.48707497E-09  6453146.4      6453097.1     6.12039140E-02  49.219870    
 1.95622099E-06 6.53053217E-09  6585934.4      6585884.0     6.29073925E-02  50.329215    
 1.96932581E-06 6.57428050E-09  6717946.2      6717894.7     6.45907067E-02  51.412220    
 1.98251841E-06 6.61832191E-09  6852280.0      6852227.4     6.63124815E-02  52.504771    
 1.99579939E-06 6.66265834E-09  6993588.9      6993535.1     6.81644119E-02  53.699835    
 2.00916934E-06 6.70729179E-09  7132077.5      7132022.5     6.99549653E-02  54.891072    
 2.02262885E-06 6.75222424E-09  7277807.1      7277750.9     7.18817155E-02  56.138233    
 2.03617854E-06 6.79745770E-09  7424715.0      7424657.6     7.38258706E-02  57.374961    
 2.04981899E-06 6.84299417E-09  7572114.5      7572055.9     7.57725238E-02  58.597895    
 2.06355082E-06 6.88883570E-09  7729334.3      7729274.3     7.79103988E-02  59.891254    
 2.07737464E-06 6.93498432E-09  7882391.3      7882330.1     7.99572109E-02  61.135324    
 2.09129106E-06 6.98144209E-09  8042315.9      8042253.3     8.21362850E-02  62.488842    
 2.10530072E-06 7.02821109E-09  8205790.6      8205726.6     8.43814257E-02  63.901775    
 2.11940422E-06 7.07529339E-09  8368251.1      8368185.7     8.65974021E-02  65.282038    
 2.13360221E-06 7.12269110E-09  8541691.9      8541625.1     8.90343830E-02  66.745930    
 2.14789530E-06 7.17040633E-09  8711586.6      8711518.3     9.13895350E-02  68.152392    
 2.16228415E-06 7.21844121E-09  8887079.8      8887010.1     9.38537326E-02  69.589732    
 2.17676939E-06 7.26679787E-09  9068978.0      9068906.9     9.64461468E-02  71.072825    
 2.19135167E-06 7.31547848E-09  9248526.6      9248453.9     9.89792696E-02  72.596918    
 2.20603163E-06 7.36448520E-09  9438876.1      9438801.8     0.10173594      74.243738    
 2.22080994E-06 7.41382021E-09  9627948.3      9627872.4     0.10445640      75.849542    
 2.23568724E-06 7.46348573E-09  9820516.0      9820438.4     0.10724274      77.465230    
 2.25066421E-06 7.51348396E-09  10022902.      10022823.     0.11023580      79.144768    
 2.26574151E-06 7.56381713E-09  10221334.      10221253.     0.11313145      80.764523    
 2.28091982E-06 7.61448748E-09  10430230.      10430147.     0.11624945      82.471390    
 2.29619980E-06 7.66549727E-09  10640631.      10640547.     0.11939148      84.270732    
 2.31158215E-06 7.71684879E-09  10851923.      10851837.     0.12254177      86.084996    
 2.32706754E-06 7.76854430E-09  11077090.      11077002.     0.12599698      88.004398    
 2.34265667E-06 7.82058613E-09  11296391.      11296301.     0.12930705      89.838167    
 2.35835023E-06 7.87297659E-09  11525629.      11525537.     0.13283340      91.735954    
 2.37414893E-06 7.92571802E-09  11759749.      11759655.     0.13646189      93.646854    
 2.39005346E-06 7.97881276E-09  11992518.      11992423.     0.14004553      95.551571    
 2.40606454E-06 8.03226319E-09  12241122.      12241024.     0.14398916      97.688374    
 2.42218287E-06 8.08607168E-09  12484432.      12484332.     0.14779536      99.774160    
 2.43840918E-06 8.14024064E-09  12735980.      12735878.     0.15178313      101.90861    
 2.45474420E-06 8.19477248E-09  12996478.      12996374.     0.15597290      104.09102    
 2.47118864E-06 8.24966963E-09  13253723.      13253616.     0.16006942      106.21371    
 2.48774324E-06 8.30493454E-09  13526555.      13526446.     0.16453041      108.43952    
 2.50440875E-06 8.36056967E-09  13797321.      13797210.     0.16892701      110.67165    
 2.52118589E-06 8.41657750E-09  14073336.      14073223.     0.17343614      113.03574    
 2.53807543E-06 8.47296053E-09  14363165.      14363049.     0.17827344      115.52968    
 2.55507811E-06 8.52972128E-09  14647456.      14647338.     0.18295624      117.93295    
 2.57219470E-06 8.58686227E-09  14946863.      14946742.     0.18800198      120.43897    
 2.58942595E-06 8.64438604E-09  15248164.      15248041.     0.19307993      122.92319    
 2.60677263E-06 8.70229518E-09  15551010.      15550884.     0.19817805      125.38909    
 2.62423551E-06 8.76059224E-09  15873451.      15873323.     0.20376232      128.06084    
 2.64181539E-06 8.81927985E-09  16187628.      16187497.     0.20911530      130.75790    
 2.65951303E-06 8.87836060E-09  16516182.      16516049.     0.21482188      133.57787    
 2.67732922E-06 8.93783714E-09  16851439.      16851302.     0.22068606      136.41467    
 2.69526477E-06 8.99771211E-09  17184905.      17184766.     0.22648144      139.19669    
 2.71332047E-06 9.05798819E-09  17541200.      17541058.     0.23286319      142.13496    
 2.73149713E-06 9.11866806E-09  17889609.      17889464.     0.23901442      144.97146    
 2.74979555E-06 9.17975443E-09  18250129.      18249981.     0.24546775      147.96309    
 2.76821656E-06 9.24125002E-09  18623144.      18622992.     0.25223908      151.18143    
 2.78676096E-06 9.30315757E-09  18991661.      18991506.     0.25886389      154.33130    
 2.80542960E-06 9.36547984E-09  19382668.      19382510.     0.26608287      157.64114    
 2.82422330E-06 9.42821962E-09  19770379.      19770218.     0.27318831      160.87118    
 2.84314290E-06 9.49137968E-09  20165953.      20165788.     0.28048539      164.12743    
 2.86218924E-06 9.55496287E-09  20580952.      20580784.     0.28830328      167.50678    
 2.88136318E-06 9.61897199E-09  20988198.      20988027.     0.29587619      170.90274    
 2.90066556E-06 9.68340992E-09  21417279.      21417104.     0.30404148      174.60898    
 2.92009725E-06 9.74827952E-09  21848695.      21848517.     0.31224813      178.29682    
 2.93965911E-06 9.81358368E-09  22282709.      22282526.     0.32049841      181.95852    
 2.95935202E-06 9.87932532E-09  22744387.      22744201.     0.32952358      185.80765    
 2.97917685E-06 9.94550737E-09  23194429.      23194239.     0.33818028      189.50443    
 2.99913449E-06 1.00121328E-08  23665264.      23665071.     0.34741504      193.33648    
 3.01922583E-06 1.00792045E-08  24145282.      24145084.     0.35689240      197.36793    
 3.03945176E-06 1.01467255E-08  24622944.      24622742.     0.36626454      201.48539    
 3.05981319E-06 1.02146989E-08  25133510.      25133304.     0.37659169      205.85791    
 3.08031101E-06 1.02831276E-08  25632348.      25632138.     0.38653272      210.05762    
 3.10094616E-06 1.03520148E-08  26148975.      26148760.     0.39697598      214.35801    
 3.12171953E-06 1.04213634E-08  26683032.      26682813.     0.40791949      218.74174    
 3.14263207E-06 1.04911766E-08  27210879.      27210656.     0.41863293      223.03687    
 3.16368471E-06 1.05614574E-08  27771169.      27770941.     0.43031500      227.76660    
 3.18487837E-06 1.06322091E-08  28326255.      28326022.     0.44179821      232.56061    
 3.20621402E-06 1.07034348E-08  28893096.      28892858.     0.45360693      237.39837    
 3.22769259E-06 1.07751376E-08  29487237.      29486994.     0.46624192      242.40623    
 3.24931505E-06 1.08473207E-08  30070536.      30070288.     0.47848861      247.25181    
 3.27108236E-06 1.09199874E-08  30685359.      30685107.     0.49170210      252.29577    
 3.29299549E-06 1.09931409E-08  31302992.      31302734.     0.50496507      257.32538    
 3.31505541E-06 1.10667844E-08  31924893.      31924630.     0.51831642      262.59565    
 3.33726312E-06 1.11409213E-08  32585835.      32585566.     0.53290266      268.31940    
 3.35961959E-06 1.12155548E-08  33230401.      33230127.     0.54690201      273.80595    
 3.38212584E-06 1.12906884E-08  33905031.      33904751.     0.56184623      279.48623    
 3.40478285E-06 1.13663252E-08  34592212.      34591926.     0.57716293      285.19025    
 3.42759164E-06 1.14424687E-08  35276318.      35276027.     0.59231925      290.79970    
 3.45055323E-06 1.15191223E-08  36007840.      36007543.     0.60903093      296.76785    
 3.47366865E-06 1.15962894E-08  36721948.      36721645.     0.62509659      302.86425    
 3.49693891E-06 1.16739735E-08  37462161.      37461851.     0.64199657      309.25187    
 3.52036506E-06 1.17521780E-08  38226668.      38226352.     0.65968288      315.76698    
 3.54394814E-06 1.18309064E-08  38982617.      38982294.     0.67700829      322.11857    
 3.56768921E-06 1.19101621E-08  39785349.      39785020.     0.69591262      328.77989    
 3.59158932E-06 1.19899488E-08  40579940.      40579604.     0.71447073      335.28238    
 3.61564954E-06 1.20702701E-08  41392067.      41391724.     0.73358050      341.93387    
 3.63987094E-06 1.21511293E-08  42242544.      42242194.     0.75400061      349.22909    
 3.66425460E-06 1.22325303E-08  43077866.      43077509.     0.77380551      356.41827    
 3.68880161E-06 1.23144766E-08  43958695.      43958330.     0.79518815      363.92274    
 3.71351306E-06 1.23969718E-08  44842777.      44842404.     0.81662269      371.34377    
 3.73839005E-06 1.24800197E-08  45733755.      45733375.     0.83822897      378.73207    
 3.76343369E-06 1.25636239E-08  46679805.      46679417.     0.86180274      386.46407    
 3.78864510E-06 1.26477882E-08  47602822.      47602427.     0.88444196      394.07085    
 3.81402541E-06 1.27325163E-08  48569291.      48568888.     0.90862547      402.36796    
 3.83957574E-06 1.28178120E-08  49552873.      49552462.     0.93337922      410.84275    
 3.86529723E-06 1.29036791E-08  50532484.      50532064.     0.95788944      419.16864    
 3.89119103E-06 1.29901214E-08  51580399.      51579970.     0.98493261      427.96804    
 3.91725829E-06 1.30771428E-08  52602499.      52602061.      1.0108962      436.42783    
 3.94350018E-06 1.31647472E-08  53662876.      53662430.      1.0382447      445.09691    
 3.96991787E-06 1.32529384E-08  54757080.      54756625.      1.0668282      454.15610    
 3.99651253E-06 1.33417205E-08  55839509.      55839045.      1.0948462      463.46220    
 4.02328535E-06 1.34310972E-08  56989384.      56988909.      1.1254377      473.37893    
 4.05023752E-06 1.35210728E-08  58126617.      58126133.      1.1554294      483.03182    
 4.07737024E-06 1.36116511E-08  59289963.      59289469.      1.1863542      492.78962    
 4.10468473E-06 1.37028361E-08  60507144.      60506640.      1.2193561      502.85684    
 4.13218219E-06 1.37946320E-08  61703164.      61702650.      1.2513837      512.63869    
