 OPTXAGNF AGN Spectrum Model Parameters: NLS, Astar 0.0                          
 M_BH:  1.0000E+07 M_0            L  :   1.000     L/Ledd 
 D   :  1.5000E+18 cm             z  :   0.000     redshift 
 Rcor:   40.00     Rg             Ro :   4.000     Rg 
 C_T :  0.2000     keV            Tau:   15.00     Optical Depth 
 gam :   2.200     (-slope)       fpl:  0.2000     Fraction 
 E              0.5DeltaE      E.FE total     E.FE Disk      E.FE Compton   E.FE NonThermal
 (keV)          (keV)          E.E/cm2/s/E    E.E/cm2/s/E    E.E/cm2/s/E    E.E/cm2/s/E    
 1.00334952E-06 3.34952256E-09  1329419.7      1329346.1     1.90518004E-03  73.512623    
 1.01007101E-06 3.37196116E-09  1355774.9      1355701.3     1.95523529E-03  73.570110    
 1.01683752E-06 3.39455008E-09  1383241.2      1383167.7     2.00830922E-03  73.563914    
 1.02364936E-06 3.41729032E-09  1411466.3      1411392.7     2.06342442E-03  73.537414    
 1.03050683E-06 3.44018290E-09  1439443.4      1439369.8     2.11761681E-03  73.594617    
 1.03741024E-06 3.46322884E-09  1469237.0      1469163.5     2.17697918E-03  73.525245    
 1.04435990E-06 3.48642917E-09  1498573.7      1498500.2     2.23480332E-03  73.562082    
 1.05135611E-06 3.50978492E-09  1528717.9      1528644.3     2.29481974E-03  73.576541    
 1.05839920E-06 3.53329712E-09  1560129.0      1560055.5     2.35845752E-03  73.529333    
 1.06548946E-06 3.55696684E-09  1591053.9      1590980.4     2.42040608E-03  73.586629    
 1.07262722E-06 3.58079512E-09  1623756.6      1623683.1     2.48755361E-03  73.537869    
 1.07981280E-06 3.60478303E-09  1656410.2      1656336.7     2.55434395E-03  73.554042    
 1.08704652E-06 3.62893164E-09  1689491.7      1689418.1     2.62220410E-03  73.589169    
 1.09432869E-06 3.65324201E-09  1724446.7      1724373.2     2.69567382E-03  73.521239    
 1.10165965E-06 3.67771524E-09  1758630.0      1758556.4     2.76648859E-03  73.578628    
 1.10903971E-06 3.70235243E-09  1794524.1      1794450.5     2.84243500E-03  73.550494    
 1.11646922E-06 3.72715465E-09  1830867.5      1830794.0     2.91957230E-03  73.545988    
 1.12394850E-06 3.75212303E-09  1867170.8      1867097.2     2.99629333E-03  73.601798    
 1.13147788E-06 3.77725867E-09  1906067.3      1905993.8     3.08110439E-03  73.513133    
 1.13905770E-06 3.80256270E-09  1943852.1      1943778.6     3.16205427E-03  73.570614    
 1.14668830E-06 3.82803623E-09  1983247.3      1983173.8     3.24794417E-03  73.563120    
 1.15437002E-06 3.85368042E-09  2023695.3      2023621.7     3.33702055E-03  73.537921    
 1.16210319E-06 3.87949640E-09  2063805.0      2063731.4     3.42466101E-03  73.595119    
 1.16988818E-06 3.90548532E-09  2106537.6      2106464.1     3.52072573E-03  73.524452    
 1.17772531E-06 3.93164835E-09  2148578.0      2148504.4     3.61417805E-03  73.562587    
 1.18561494E-06 3.95798663E-09  2191813.7      2191740.2     3.71130363E-03  73.575747    
 1.19355743E-06 3.98450137E-09  2236827.2      2236753.6     3.81415481E-03  73.529841    
 1.20155313E-06 4.01119372E-09  2281162.7      2281089.1     3.91433862E-03  73.587132    
 1.20960239E-06 4.03806489E-09  2328067.3      2327993.8     4.02300250E-03  73.537075    
 1.21770557E-06 4.06511607E-09  2374860.6      2374787.0     4.13094635E-03  73.554548    
 1.22586303E-06 4.09234846E-09  2422309.0      2422235.4     4.24076625E-03  73.588375    
 1.23407514E-06 4.11976329E-09  2472400.5      2472326.9     4.35950861E-03  73.521749    
 1.24234227E-06 4.14736177E-09  2521406.8      2521333.2     4.47403093E-03  73.579132    
 1.25066478E-06 4.17514513E-09  2572888.5      2572814.9     4.59693464E-03  73.549700    
 1.25904304E-06 4.20311462E-09  2624968.9      2624895.3     4.72160175E-03  73.546495    
 1.26747742E-06 4.23127147E-09  2677038.0      2676964.4     4.84576224E-03  73.601004    
 1.27596831E-06 4.25961695E-09  2732777.2      2732703.7     4.98283550E-03  73.513643    
 1.28451608E-06 4.28815232E-09  2786946.3      2786872.7     5.11374841E-03  73.571119    
 1.29312111E-06 4.31687884E-09  2843449.0      2843375.5     5.25274444E-03  73.562326    
 1.30178379E-06 4.34579781E-09  2901410.7      2901337.1     5.39670821E-03  73.538429    
 1.31050450E-06 4.37491051E-09  2958912.5      2958838.9     5.53844115E-03  73.595621    
 1.31928362E-06 4.40421823E-09  3020200.7      3020127.2     5.69390023E-03  73.523658    
 1.32812156E-06 4.43372228E-09  3080443.5      3080369.9     5.84493273E-03  73.563093    
 1.33701871E-06 4.46342399E-09  3142454.1      3142380.5     6.00211248E-03  73.574953    
 1.34597546E-06 4.49332467E-09  3206957.4      3206883.9     6.16834005E-03  73.530350    
 1.35499221E-06 4.52342565E-09  3270516.6      3270443.0     6.33035818E-03  73.587634    
 1.36406936E-06 4.55372829E-09  3337788.0      3337714.5     6.50620716E-03  73.536282    
 1.37320733E-06 4.58423392E-09  3404840.9      3404767.3     6.68066142E-03  73.555053    
 1.38240650E-06 4.61494391E-09  3472893.0      3472819.4     6.85838568E-03  73.587581    
 1.39166731E-06 4.64585962E-09  3544672.3      3544598.8     7.05029782E-03  73.522258    
 1.40099015E-06 4.67698245E-09  3614926.7      3614853.1     7.23550428E-03  73.579635    
 1.41037545E-06 4.70831376E-09  3688761.9      3688688.4     7.43439850E-03  73.548906    
 1.41982361E-06 4.73985497E-09  3763390.4      3763316.8     7.63588169E-03  73.547001    
 1.42933508E-06 4.77160747E-09  3838068.9      3837995.3     7.83681497E-03  73.600210    
 1.43891026E-06 4.80357269E-09  3917940.6      3917867.1     8.05835514E-03  73.514153    
 1.44854958E-06 4.83575204E-09  3995595.1      3995521.6     8.27006854E-03  73.571623    
 1.45825348E-06 4.86814696E-09  4076630.9      4076557.3     8.49500620E-03  73.561532    
 1.46802239E-06 4.90075889E-09  4159685.9      4159612.4     8.72767776E-03  73.538936    
 1.47785673E-06 4.93358930E-09  4242117.6      4242044.0     8.95688935E-03  73.596123    
 1.48775696E-06 4.96663964E-09  4330014.9      4329941.3     9.20846448E-03  73.522864    
 1.49772351E-06 4.99991138E-09  4416337.5      4416263.9     9.45255461E-03  73.563598    
 1.50775683E-06 5.03340601E-09  4505271.8      4505198.2     9.70692058E-03  73.574159    
 1.51785736E-06 5.06712502E-09  4597699.6      4597626.1     9.97557638E-03  73.530858    
 1.52802556E-06 5.10106992E-09  4688813.6      4688740.0     1.02375933E-02  73.588137    
 1.53826187E-06 5.13524222E-09  4785290.8      4785217.3     1.05221665E-02  73.535488    
 1.54856676E-06 5.16964344E-09  4881370.6      4881297.0     1.08041116E-02  73.555559    
 1.55894067E-06 5.20427512E-09  4978968.5      4978894.9     1.10917268E-02  73.586787    
 1.56938409E-06 5.23913879E-09  5081821.1      5081747.6     1.14018960E-02  73.522767    
 1.57989746E-06 5.27423602E-09  5182531.5      5182457.9     1.17014132E-02  73.580138    
 1.59048127E-06 5.30956836E-09  5288421.3      5288347.7     1.20232819E-02  73.548113    
 1.60113597E-06 5.34513740E-09  5395354.8      5395281.2     1.23489125E-02  73.547508    
 1.61186206E-06 5.38094472E-09  5502455.1      5502381.5     1.26740894E-02  73.599416    
 1.62265999E-06 5.41699191E-09  5616901.8      5616828.3     1.30321460E-02  73.514663    
 1.63353026E-06 5.45328058E-09  5728218.9      5728145.3     1.33745302E-02  73.572127    
 1.64447336E-06 5.48981235E-09  5844434.0      5844360.4     1.37385470E-02  73.560738    
 1.65548976E-06 5.52658885E-09  5963440.3      5963366.8     1.41145859E-02  73.539444    
 1.66657996E-06 5.56361172E-09  6081604.3      6081530.7     1.44852683E-02  73.596624    
 1.67774445E-06 5.60088261E-09  6207657.0      6207583.4     1.48923848E-02  73.522071    
 1.68898374E-06 5.63840317E-09  6331343.5      6331269.9     1.52868688E-02  73.564103    
 1.70029832E-06 5.67617509E-09  6458884.7      6458811.1     1.56985119E-02  73.573365    
 1.71168869E-06 5.71420004E-09  6591319.2      6591245.7     1.61327109E-02  73.531367    
 1.72315537E-06 5.75247973E-09  6721927.3      6721853.7     1.65564461E-02  73.588639    
 1.73469887E-06 5.79101585E-09  6860282.8      6860209.3     1.70169650E-02  73.534694    
 1.74631969E-06 5.82981012E-09  6997948.0      6997874.4     1.74726315E-02  73.556065    
 1.75801837E-06 5.86886429E-09  7137912.3      7137838.7     1.79380851E-02  73.585993    
 1.76979541E-06 5.90818007E-09  7285281.8      7285208.3     1.84393811E-02  73.523276    
 1.78165135E-06 5.94775924E-09  7429643.8      7429570.2     1.89237618E-02  73.580642    
 1.79358672E-06 5.98760354E-09  7581495.9      7581422.3     1.94446384E-02  73.547319    
 1.80560203E-06 6.02771477E-09  7734710.3      7734636.8     1.99709110E-02  73.548015    
 1.81769784E-06 6.06809470E-09  7888300.3      7888226.7     2.04971548E-02  73.598621    
 1.82987468E-06 6.10874514E-09  8052279.8      8052206.3     2.10758503E-02  73.515173    
 1.84213310E-06 6.14966790E-09  8211843.3      8211769.7     2.16295558E-02  73.572631    
 1.85447363E-06 6.19086481E-09  8378500.6      8378427.0     2.22186436E-02  73.559944    
 1.86689683E-06 6.23233769E-09  8549010.6      8548937.0     2.28263889E-02  73.539951    
 1.87940326E-06 6.27408840E-09  8718386.9      8718313.3     2.34258580E-02  73.597126    
 1.89199346E-06 6.31611880E-09  8899147.4      8899073.9     2.40846817E-02  73.521277    
 1.90466801E-06 6.35843077E-09  9076360.5      9076286.9     2.47222222E-02  73.564608    
 1.91742747E-06 6.40102618E-09  9259257.7      9259184.1     2.53883876E-02  73.572571    
 1.93027240E-06 6.44390694E-09  9449004.6      9448931.0     2.60901347E-02  73.531875    
 1.94320339E-06 6.48707497E-09  9636215.0      9636141.4     2.67754009E-02  73.589142    
 1.95622099E-06 6.53053217E-09  9834615.5      9834542.0     2.75206482E-02  73.533900    
 1.96932581E-06 6.57428050E-09  10031854.      10031780.     2.82570738E-02  73.556571    
 1.98251841E-06 6.61832191E-09  10232563.      10232490.     2.90103256E-02  73.585199    
 1.99579939E-06 6.66265834E-09  10443705.      10443632.     2.98205197E-02  73.523785    
 2.00916934E-06 6.70729179E-09  10650627.      10650553.     3.06038619E-02  73.581145    
 2.02262885E-06 6.75222424E-09  10868378.      10868305.     3.14467893E-02  73.546525    
 2.03617854E-06 6.79745770E-09  11087891.      11087817.     3.22973313E-02  73.548521    
 2.04981899E-06 6.84299417E-09  11308137.      11308064.     3.31489664E-02  73.597827    
 2.06355082E-06 6.88883570E-09  11543073.      11542999.     3.40842599E-02  73.515683    
 2.07737464E-06 6.93498432E-09  11771779.      11771706.     3.49797141E-02  73.573135    
 2.09129106E-06 6.98144209E-09  12010758.      12010684.     3.59330322E-02  73.559150    
 2.10530072E-06 7.02821109E-09  12255046.      12254973.     3.69152543E-02  73.540459    
 2.11940422E-06 7.07529339E-09  12497815.      12497741.     3.78847172E-02  73.597627    
 2.13360221E-06 7.12269110E-09  12757011.      12756937.     3.89508688E-02  73.520483    
 2.14789530E-06 7.17040633E-09  13010898.      13010825.     3.99812206E-02  73.565112    
 2.16228415E-06 7.21844121E-09  13273160.      13273087.     4.10592796E-02  73.571777    
 2.17676939E-06 7.26679787E-09  13545005.      13544931.     4.21934330E-02  73.532383    
 2.19135167E-06 7.31547848E-09  13813330.      13813257.     4.33016468E-02  73.589644    
 2.20603163E-06 7.36448520E-09  14097816.      14097742.     4.45076613E-02  73.533106    
 2.22080994E-06 7.41382021E-09  14380388.      14380314.     4.56978337E-02  73.557077    
 2.23568724E-06 7.46348573E-09  14668188.      14668114.     4.69168326E-02  73.584405    
 2.25066421E-06 7.51348396E-09  14970678.      14970605.     4.82262654E-02  73.524294    
 2.26574151E-06 7.56381713E-09  15267250.      15267176.     4.94930874E-02  73.581648    
 2.28091982E-06 7.61448748E-09  15579478.      15579404.     5.08571830E-02  73.545731    
 2.29619980E-06 7.66549727E-09  15893956.      15893882.     5.22317945E-02  73.549028    
 2.31158215E-06 7.71684879E-09  16209765.      16209691.     5.36100170E-02  73.597033    
 2.32706754E-06 7.76854430E-09  16546337.      16546263.     5.51216452E-02  73.516193    
 2.34265667E-06 7.82058613E-09  16874125.      16874052.     5.65697743E-02  73.573639    
 2.35835023E-06 7.87297659E-09  17216785.      17216711.     5.81125224E-02  73.558356    
 2.37414893E-06 7.92571802E-09  17566750.      17566677.     5.96999612E-02  73.540966    
 2.39005346E-06 7.97881276E-09  17914689.      17914615.     6.12677769E-02  73.598129    
 2.40606454E-06 8.03226319E-09  18286326.      18286253.     6.29930900E-02  73.519689    
 2.42218287E-06 8.08607168E-09  18650038.      18649964.     6.46582749E-02  73.565617    
 2.43840918E-06 8.14024064E-09  19026077.      19026003.     6.64029005E-02  73.570983    
 2.45474420E-06 8.19477248E-09  19415510.      19415436.     6.82358992E-02  73.532891    
 2.47118864E-06 8.24966963E-09  19800069.      19799995.     7.00281021E-02  73.590147    
 2.48774324E-06 8.30493454E-09  20207961.      20207887.     7.19797610E-02  73.532313    
 2.50440875E-06 8.36056967E-09  20612756.      20612682.     7.39032515E-02  73.557582    
 2.52118589E-06 8.41657750E-09  21025405.      21025332.     7.58759723E-02  73.583611    
 2.53807543E-06 8.47296053E-09  21458732.      21458659.     7.79922689E-02  73.524803    
 2.55507811E-06 8.52972128E-09  21883763.      21883690.     8.00409721E-02  73.582151    
 2.57219470E-06 8.58686227E-09  22331425.      22331351.     8.22484616E-02  73.544937    
 2.58942595E-06 8.64438604E-09  22781917.      22781843.     8.44700485E-02  73.549534    
 2.60677263E-06 8.70229518E-09  23234718.      23234644.     8.67004566E-02  73.894663    
 2.62423551E-06 8.76059224E-09  23716859.      23716783.     8.91435562E-02  75.620573    
 2.64181539E-06 8.81927985E-09  24186620.      24186542.     9.14854683E-02  77.681115    
 2.65951303E-06 8.87836060E-09  24677906.      24677826.     9.39820818E-02  79.842534    
 2.67732922E-06 8.93783714E-09  25179225.      25179143.     9.65476494E-02  82.016672    
 2.69526477E-06 8.99771211E-09  25677857.      25677773.     9.90831173E-02  84.126716    
 2.71332047E-06 9.05798819E-09  26210674.      26210588.     0.10187512      86.397745    
 2.73149713E-06 9.11866806E-09  26731675.      26731587.     0.10456628      88.596678    
 2.74979555E-06 9.17975443E-09  27270809.      27270718.     0.10738960      90.977060    
 2.76821656E-06 9.24125002E-09  27828653.      27828559.     0.11035206      93.462080    
 2.78676096E-06 9.30315757E-09  28379752.      28379657.     0.11325040      95.849229    
 2.80542960E-06 9.36547984E-09  28964536.      28964437.     0.11640871      98.393191    
 2.82422330E-06 9.42821962E-09  29544375.      29544274.     0.11951734      100.85068    
 2.84314290E-06 9.49137968E-09  30135985.      30135882.     0.12270981      103.32872    
 2.86218924E-06 9.55496287E-09  30756690.      30756584.     0.12613015      105.99192    
 2.88136318E-06 9.61897199E-09  31365774.      31365665.     0.12944331      108.66385    
 2.90066556E-06 9.68340992E-09  32007561.      32007449.     0.13301564      111.51475    
 2.92009725E-06 9.74827952E-09  32652841.      32652727.     0.13660606      114.32338    
 2.93965911E-06 9.81358368E-09  33302004.      33301887.     0.14021557      117.10052    
 2.95935202E-06 9.87932532E-09  33992611.      33992491.     0.14416411      120.05671    
 2.97917685E-06 9.94550737E-09  34665774.      34665651.     0.14795144      122.86130    
 2.99913449E-06 1.00121328E-08  35370087.      35369960.     0.15199168      125.86997    
 3.01922583E-06 1.00792045E-08  36088150.      36088020.     0.15613805      129.05571    
 3.03945176E-06 1.01467255E-08  36802674.      36802542.     0.16023840      132.18122    
 3.05981319E-06 1.02146989E-08  37566500.      37566365.     0.16475658      135.53205    
 3.08031101E-06 1.02831276E-08  38312742.      38312603.     0.16910582      138.71413    
 3.10094616E-06 1.03520148E-08  39085632.      39085489.     0.17367480      141.98597    
 3.12171953E-06 1.04213634E-08  39884637.      39884491.     0.17846264      145.34109    
 3.14263207E-06 1.04911766E-08  40674325.      40674176.     0.18314983      148.69876    
 3.16368471E-06 1.05614574E-08  41512629.      41512477.     0.18826081      152.43675    
 3.18487837E-06 1.06322091E-08  42343123.      42342967.     0.19328478      156.07286    
 3.20621402E-06 1.07034348E-08  43191225.      43191065.     0.19845118      159.74348    
 3.22769259E-06 1.07751376E-08  44080242.      44080078.     0.20397908      163.56579    
 3.24931505E-06 1.08473207E-08  44952993.      44952825.     0.20933709      167.23281    
 3.27108236E-06 1.09199874E-08  45872992.      45872821.     0.21511810      171.08843    
 3.29299549E-06 1.09931409E-08  46797192.      46797017.     0.22092076      175.06021    
 3.31505541E-06 1.10667844E-08  47727777.      47727597.     0.22676209      179.16319    
 3.33726312E-06 1.11409213E-08  48716885.      48716701.     0.23314371      183.53104    
 3.35961959E-06 1.12155548E-08  49681427.      49681239.     0.23926855      187.68133    
 3.38212584E-06 1.12906884E-08  50691033.      50690840.     0.24580679      191.99977    
 3.40478285E-06 1.13663252E-08  51719445.      51719248.     0.25250800      196.33468    
 3.42759164E-06 1.14424687E-08  52743234.      52743033.     0.25913905      200.58761    
 3.45055323E-06 1.15191223E-08  53838111.      53837905.     0.26645060      205.34205    
 3.47366865E-06 1.15962894E-08  54906860.      54906650.     0.27347951      210.05586    
 3.49693891E-06 1.16739735E-08  56014743.      56014528.     0.28087344      214.90515    
 3.52036506E-06 1.17521780E-08  57159046.      57158826.     0.28861142      219.85700    
 3.54394814E-06 1.18309064E-08  58290497.      58290272.     0.29619150      224.66031    
 3.56768921E-06 1.19101621E-08  59492102.      59491872.     0.30446240      229.73046    
 3.59158932E-06 1.19899488E-08  60681479.      60681244.     0.31258181      234.68238    
 3.61564954E-06 1.20702701E-08  61897143.      61896903.     0.32094260      239.94278    
 3.63987094E-06 1.21511293E-08  63170317.      63170071.     0.32987669      245.60062    
 3.66425460E-06 1.22325303E-08  64420739.      64420488.     0.33854162      251.03764    
 3.68880161E-06 1.23144766E-08  65739410.      65739153.     0.34789685      256.73725    
 3.71351306E-06 1.23969718E-08  67062944.      67062682.     0.35727479      262.36069    
 3.73839005E-06 1.24800197E-08  68396804.      68396535.     0.36672787      267.95040    
 3.76343369E-06 1.25636239E-08  69813273.      69812999.     0.37704179      273.88394    
 3.78864510E-06 1.26477882E-08  71195164.      71194884.     0.38694682      279.88965    
 3.81402541E-06 1.27325163E-08  72642232.      72641945.     0.39752752      286.28922    
 3.83957574E-06 1.28178120E-08  74114959.      74114666.     0.40835773      292.71252    
 3.86529723E-06 1.29036791E-08  75581703.      75581403.     0.41908138      299.00556    
 3.89119103E-06 1.29901214E-08  77150928.      77150622.     0.43091328      305.69279    
 3.91725829E-06 1.30771428E-08  78681389.      78681077.     0.44227281      312.08878    
 3.94350018E-06 1.31647472E-08  80269273.      80268954.     0.45423833      318.73419    
 3.96991787E-06 1.32529384E-08  81907905.      81907579.     0.46674420      325.91637    
 3.99651253E-06 1.33417205E-08  83528836.      83528503.     0.47900261      333.03586    
 4.02328535E-06 1.34310972E-08  85250979.      85250638.     0.49238704      340.55949    
 4.05023752E-06 1.35210728E-08  86954122.      86953774.     0.50550906      347.86066    
 4.07737024E-06 1.36116511E-08  88696434.      88696079.     0.51903929      355.24360    
 4.10468473E-06 1.37028361E-08  90519542.      90519179.     0.53347838      362.87889    
 4.13218219E-06 1.37946320E-08  92310850.      92310479.     0.54749118      370.39387    
