 OPTXAGNF AGN Spectrum Model Parameters: NLS, Astar 0.0                          
 M_BH:  1.0000E+07 M_0            L  :  0.5000     L/Ledd 
 D   :  1.5000E+18 cm             z  :   0.000     redshift 
 Rcor:   40.00     Rg             Ro :   4.000     Rg 
 C_T :  0.2000     keV            Tau:   15.00     Optical Depth 
 gam :   2.200     (-slope)       fpl:  0.2000     Fraction 
 E              0.5DeltaE      E.FE total     E.FE Disk      E.FE Compton   E.FE NonThermal
 (keV)          (keV)          E.E/cm2/s/E    E.E/cm2/s/E    E.E/cm2/s/E    E.E/cm2/s/E    
 1.00334952E-06 3.34952256E-09  1119294.2      1119257.9     2.21107972E-03  36.251710    
 1.01007101E-06 3.37196116E-09  1141481.9      1141445.6     2.26917182E-03  36.280059    
 1.01683752E-06 3.39455008E-09  1164604.8      1164568.5     2.33076727E-03  36.277003    
 1.02364936E-06 3.41729032E-09  1188366.4      1188330.2     2.39473173E-03  36.263935    
 1.03050683E-06 3.44018290E-09  1211919.3      1211883.0     2.45762520E-03  36.292144    
 1.03741024E-06 3.46322884E-09  1237001.2      1236965.0     2.52651874E-03  36.257935    
 1.04435990E-06 3.48642917E-09  1261698.6      1261662.3     2.59362707E-03  36.276100    
 1.05135611E-06 3.50978492E-09  1287075.6      1287039.3     2.66327968E-03  36.283230    
 1.05839920E-06 3.53329712E-09  1313519.0      1313482.7     2.73713506E-03  36.259950    
 1.06548946E-06 3.55696684E-09  1339553.2      1339516.9     2.80903001E-03  36.288205    
 1.07262722E-06 3.58079512E-09  1367083.7      1367047.4     2.88695866E-03  36.264160    
 1.07981280E-06 3.60478303E-09  1394572.9      1394536.7     2.96447276E-03  36.272135    
 1.08704652E-06 3.62893164E-09  1422422.3      1422386.0     3.04322845E-03  36.289458    
 1.09432869E-06 3.65324201E-09  1451848.6      1451812.4     3.12849434E-03  36.255959    
 1.10165965E-06 3.67771524E-09  1480625.4      1480589.1     3.21067902E-03  36.284260    
 1.10903971E-06 3.70235243E-09  1510842.2      1510805.9     3.29881925E-03  36.270386    
 1.11646922E-06 3.72715465E-09  1541437.2      1541400.9     3.38834157E-03  36.268164    
 1.12394850E-06 3.75212303E-09  1571998.3      1571962.0     3.47738079E-03  36.295685    
 1.13147788E-06 3.77725867E-09  1604742.2      1604705.9     3.57580893E-03  36.251962    
 1.13905770E-06 3.80256270E-09  1636550.4      1636514.1     3.66975596E-03  36.280308    
 1.14668830E-06 3.82803623E-09  1669714.0      1669677.7     3.76943614E-03  36.276612    
 1.15437002E-06 3.85368042E-09  1703763.6      1703727.3     3.87281441E-03  36.264186    
 1.16210319E-06 3.87949640E-09  1737528.7      1737492.4     3.97452623E-03  36.292392    
 1.16988818E-06 3.90548532E-09  1773501.2      1773464.9     4.08601485E-03  36.257543    
 1.17772531E-06 3.93164835E-09  1808891.2      1808854.9     4.19447163E-03  36.276349    
 1.18561494E-06 3.95798663E-09  1845287.3      1845251.0     4.30719143E-03  36.282839    
 1.19355743E-06 3.98450137E-09  1883179.5      1883143.3     4.42655610E-03  36.260201    
 1.20155313E-06 4.01119372E-09  1920501.3      1920465.0     4.54282514E-03  36.288453    
 1.20960239E-06 4.03806489E-09  1959985.3      1959949.0     4.66893576E-03  36.263768    
 1.21770557E-06 4.06511607E-09  1999375.5      1999339.2     4.79421074E-03  36.272385    
 1.22586303E-06 4.09234846E-09  2039317.2      2039280.9     4.92166297E-03  36.289066    
 1.23407514E-06 4.11976329E-09  2081483.3      2081447.1     5.05947019E-03  36.256210    
 1.24234227E-06 4.14736177E-09  2122736.3      2122700.0     5.19237984E-03  36.284508    
 1.25066478E-06 4.17514513E-09  2166072.5      2166036.2     5.33501652E-03  36.269994    
 1.25904304E-06 4.20311462E-09  2209912.6      2209876.3     5.47969973E-03  36.268413    
 1.26747742E-06 4.23127147E-09  2253743.2      2253706.9     5.62379497E-03  36.295294    
 1.27596831E-06 4.25961695E-09  2300662.6      2300626.3     5.78287617E-03  36.252213    
 1.28451608E-06 4.28815232E-09  2346260.6      2346224.3     5.93480795E-03  36.280556    
 1.29312111E-06 4.31687884E-09  2393822.6      2393786.3     6.09612061E-03  36.276220    
 1.30178379E-06 4.34579781E-09  2442612.4      2442576.1     6.26319860E-03  36.264436    
 1.31050450E-06 4.37491051E-09  2491015.3      2490979.0     6.42768759E-03  36.292639    
 1.31928362E-06 4.40421823E-09  2542604.7      2542568.4     6.60810647E-03  36.257152    
 1.32812156E-06 4.43372228E-09  2593314.4      2593278.1     6.78338808E-03  36.276598    
 1.33701871E-06 4.46342399E-09  2645511.8      2645475.6     6.96580388E-03  36.282447    
 1.34597546E-06 4.49332467E-09  2699807.1      2699770.8     7.15872014E-03  36.260452    
 1.35499221E-06 4.52342565E-09  2753307.8      2753271.5     7.34675113E-03  36.288701    
 1.36406936E-06 4.55372829E-09  2809932.5      2809896.2     7.55083354E-03  36.263377    
 1.37320733E-06 4.58423392E-09  2866373.4      2866337.2     7.75329729E-03  36.272634    
 1.38240650E-06 4.61494391E-09  2923655.3      2923619.0     7.95955605E-03  36.288674    
 1.39166731E-06 4.64585962E-09  2984073.7      2984037.4     8.18228056E-03  36.256461    
 1.40099015E-06 4.67698245E-09  3043209.0      3043172.7     8.39722277E-03  36.284756    
 1.41037545E-06 4.70831376E-09  3105357.6      3105321.3     8.62805034E-03  36.269603    
 1.41982361E-06 4.73985497E-09  3168173.7      3168137.4     8.86188252E-03  36.268663    
 1.42933508E-06 4.77160747E-09  3231032.1      3230995.8     9.09507650E-03  36.294902    
 1.43891026E-06 4.80357269E-09  3298260.5      3298224.3     9.35218582E-03  36.252465    
 1.44854958E-06 4.83575204E-09  3363623.4      3363587.1     9.59789066E-03  36.280805    
 1.45825348E-06 4.86814696E-09  3431831.6      3431795.3     9.85894292E-03  36.275829    
 1.46802239E-06 4.90075889E-09  3501739.0      3501702.7     1.01289708E-02  36.264686    
 1.47785673E-06 4.93358930E-09  3571121.9      3571085.6     1.03949831E-02  36.292887    
 1.48775696E-06 4.96663964E-09  3645104.0      3645067.7     1.06869495E-02  36.256760    
 1.49772351E-06 4.99991138E-09  3717761.3      3717725.0     1.09702291E-02  36.276847    
 1.50775683E-06 5.03340601E-09  3792616.2      3792579.9     1.12654344E-02  36.282056    
 1.51785736E-06 5.06712502E-09  3870410.8      3870374.5     1.15772236E-02  36.260703    
 1.52802556E-06 5.10106992E-09  3947100.1      3947063.8     1.18813082E-02  36.288949    
 1.53826187E-06 5.13524222E-09  4028302.2      4028265.9     1.22115703E-02  36.262986    
 1.54856676E-06 5.16964344E-09  4109170.0      4109133.7     1.25387826E-02  36.272884    
 1.55894067E-06 5.20427512E-09  4191315.4      4191279.1     1.28725752E-02  36.288283    
 1.56938409E-06 5.23913879E-09  4277882.1      4277845.9     1.32325427E-02  36.256713    
 1.57989746E-06 5.27423602E-09  4362646.7      4362610.4     1.35801481E-02  36.285004    
 1.59048127E-06 5.30956836E-09  4451769.2      4451732.9     1.39536935E-02  36.269211    
 1.60113597E-06 5.34513740E-09  4541770.1      4541733.8     1.43316047E-02  36.268913    
 1.61186206E-06 5.38094472E-09  4631911.5      4631875.2     1.47089895E-02  36.294511    
 1.62265999E-06 5.41699191E-09  4728234.1      4728197.8     1.51245326E-02  36.252716    
 1.63353026E-06 5.45328058E-09  4821923.8      4821887.5     1.55218872E-02  36.281054    
 1.64447336E-06 5.48981235E-09  4919734.6      4919698.3     1.59443474E-02  36.275437    
 1.65548976E-06 5.52658885E-09  5019894.0      5019857.7     1.63807599E-02  36.264936    
 1.66657996E-06 5.56361172E-09  5119345.0      5119308.7     1.68109558E-02  36.293134    
 1.67774445E-06 5.60088261E-09  5225433.1      5225396.9     1.72834353E-02  36.256369    
 1.68898374E-06 5.63840317E-09  5329530.8      5329494.5     1.77412541E-02  36.277097    
 1.70029832E-06 5.67617509E-09  5436871.8      5436835.5     1.82189868E-02  36.281664    
 1.71168869E-06 5.71420004E-09  5548329.8      5548293.5     1.87228966E-02  36.260953    
 1.72315537E-06 5.75247973E-09  5658251.4      5658215.1     1.92146628E-02  36.289197    
 1.73469887E-06 5.79101585E-09  5774691.3      5774655.0     1.97491181E-02  36.262594    
 1.74631969E-06 5.82981012E-09  5890550.5      5890514.2     2.02779420E-02  36.273133    
 1.75801837E-06 5.86886429E-09  6008344.4      6008308.1     2.08181242E-02  36.287891    
 1.76979541E-06 5.90818007E-09  6132368.4      6132332.1     2.13999031E-02  36.256964    
 1.78165135E-06 5.94775924E-09  6253862.4      6253826.1     2.19620511E-02  36.285253    
 1.79358672E-06 5.98760354E-09  6381658.0      6381621.7     2.25665541E-02  36.268820    
 1.80560203E-06 6.02771477E-09  6510600.0      6510563.7     2.31773196E-02  36.269163    
 1.81769784E-06 6.06809470E-09  6639858.2      6639821.9     2.37880515E-02  36.294119    
 1.82987468E-06 6.10874514E-09  6777856.9      6777820.6     2.44596560E-02  36.252968    
 1.84213310E-06 6.14966790E-09  6912140.9      6912104.6     2.51022584E-02  36.281302    
 1.85447363E-06 6.19086481E-09  7052392.9      7052356.6     2.57859235E-02  36.275046    
 1.86689683E-06 6.23233769E-09  7195886.3      7195850.0     2.64912414E-02  36.265187    
 1.87940326E-06 6.27408840E-09  7338426.3      7338390.0     2.71869545E-02  36.293381    
 1.89199346E-06 6.31611880E-09  7490543.2      7490506.9     2.79515511E-02  36.255978    
 1.90466801E-06 6.35843077E-09  7639676.3      7639640.0     2.86914478E-02  36.277346    
 1.91742747E-06 6.40102618E-09  7793591.4      7793555.1     2.94645647E-02  36.281273    
 1.93027240E-06 6.44390694E-09  7953268.8      7953232.5     3.02789758E-02  36.261204    
 1.94320339E-06 6.48707497E-09  8110813.0      8110776.7     3.10742600E-02  36.289444    
 1.95622099E-06 6.53053217E-09  8277770.4      8277734.1     3.19391547E-02  36.262203    
 1.96932581E-06 6.57428050E-09  8443750.4      8443714.1     3.27938116E-02  36.273382    
 1.98251841E-06 6.61832191E-09  8612651.3      8612614.9     3.36679959E-02  36.287500    
 1.99579939E-06 6.66265834E-09  8790327.4      8790291.2     3.46082642E-02  36.257215    
 2.00916934E-06 6.70729179E-09  8964454.2      8964417.8     3.55173696E-02  36.285501    
 2.02262885E-06 6.75222424E-09  9147691.0      9147654.7     3.64956262E-02  36.268428    
 2.03617854E-06 6.79745770E-09  9332409.8      9332373.5     3.74827197E-02  36.269413    
 2.04981899E-06 6.84299417E-09  9517746.1      9517709.8     3.84710818E-02  36.293727    
 2.06355082E-06 6.88883570E-09  9715438.4      9715402.1     3.95565330E-02  36.253219    
 2.07737464E-06 6.93498432E-09  9907891.8      9907855.5     4.05957489E-02  36.301889    
 2.09129106E-06 6.98144209E-09  10108986.      10108949.     4.17021182E-02  36.683820    
 2.10530072E-06 7.02821109E-09  10314548.      10314510.     4.28420318E-02  37.660267    
 2.11940422E-06 7.07529339E-09  10518832.      10518793.     4.39671377E-02  38.681028    
 2.13360221E-06 7.12269110E-09  10736933.      10736893.     4.52044547E-02  39.782287    
 2.14789530E-06 7.17040633E-09  10950570.      10950529.     4.64002246E-02  40.824267    
 2.16228415E-06 7.21844121E-09  11171251.      11171209.     4.76513605E-02  41.894396    
 2.17676939E-06 7.26679787E-09  11399992.      11399949.     4.89675962E-02  42.999173    
 2.19135167E-06 7.31547848E-09  11625775.      11625731.     5.02537279E-02  44.099983    
 2.20603163E-06 7.36448520E-09  11865149.      11865104.     5.16533610E-02  45.326696    
 2.22080994E-06 7.41382021E-09  12102915.      12102868.     5.30346088E-02  46.518174    
 2.23568724E-06 7.46348573E-09  12345079.      12345031.     5.44493108E-02  47.716552    
 2.25066421E-06 7.51348396E-09  12599598.      12599549.     5.59689647E-02  48.974219    
 2.26574151E-06 7.56381713E-09  12849140.      12849089.     5.74391670E-02  50.171577    
 2.28091982E-06 7.61448748E-09  13111850.      13111798.     5.90222591E-02  51.436062    
 2.29619980E-06 7.66549727E-09  13376453.      13376400.     6.06175552E-02  52.743123    
 2.31158215E-06 7.71684879E-09  13642176.      13642122.     6.22170420E-02  54.081358    
 2.32706754E-06 7.76854430E-09  13925361.      13925306.     6.39713509E-02  55.518319    
 2.34265667E-06 7.82058613E-09  14201161.      14201104.     6.56519668E-02  56.873093    
 2.35835023E-06 7.87297659E-09  14489468.      14489409.     6.74423913E-02  58.285195    
 2.37414893E-06 7.92571802E-09  14783918.      14783859.     6.92846811E-02  59.707323    
 2.39005346E-06 7.97881276E-09  15076667.      15076605.     7.11041974E-02  61.098321    
 2.40606454E-06 8.03226319E-09  15389345.      15389282.     7.31064950E-02  62.661610    
 2.42218287E-06 8.08607168E-09  15695358.      15695294.     7.50390117E-02  64.203403    
 2.43840918E-06 8.14024064E-09  16011740.      16011674.     7.70637220E-02  65.786736    
 2.45474420E-06 8.19477248E-09  16339386.      16339318.     7.91909924E-02  67.411478    
 2.47118864E-06 8.24966963E-09  16662934.      16662865.     8.12709177E-02  68.979142    
 2.48774324E-06 8.30493454E-09  17006103.      17006033.     8.35358972E-02  70.638738    
 2.50440875E-06 8.36056967E-09  17346670.      17346598.     8.57681862E-02  72.263033    
 2.52118589E-06 8.41657750E-09  17693843.      17693769.     8.80576086E-02  73.984002    
 2.53807543E-06 8.47296053E-09  18058404.      18058328.     9.05136554E-02  75.840836    
 2.55507811E-06 8.52972128E-09  18415990.      18415912.     9.28912577E-02  77.614952    
 2.57219470E-06 8.58686227E-09  18792606.      18792527.     9.54531368E-02  79.477870    
 2.58942595E-06 8.64438604E-09  19171604.      19171522.     9.80313763E-02  81.319038    
 2.60677263E-06 8.70229518E-09  19552544.      19552461.     0.10061985      83.141007    
 2.62423551E-06 8.76059224E-09  19958154.      19958069.     0.10345516      85.090490    
 2.64181539E-06 8.81927985E-09  20353357.      20353269.     0.10617305      87.057461    
 2.65951303E-06 8.87836060E-09  20766658.      20766569.     0.10907046      89.147900    
 2.67732922E-06 8.93783714E-09  21188397.      21188306.     0.11204790      91.251409    
 2.69526477E-06 8.99771211E-09  21607878.      21607785.     0.11499041      93.304583    
 2.71332047E-06 9.05798819E-09  22056103.      22056007.     0.11823064      95.491736    
 2.73149713E-06 9.11866806E-09  22494394.      22494296.     0.12135382      97.582334    
 2.74979555E-06 9.17975443E-09  22947932.      22947832.     0.12463040      99.753928    
 2.76821656E-06 9.24125002E-09  23417202.      23417100.     0.12806844      102.11437    
 2.78676096E-06 9.30315757E-09  23880805.      23880700.     0.13143207      104.43740    
 2.80542960E-06 9.36547984E-09  24372727.      24372620.     0.13509740      106.89521    
 2.82422330E-06 9.42821962E-09  24860494.      24860385.     0.13870509      109.28254    
 2.84314290E-06 9.49137968E-09  25358160.      25358048.     0.14241007      111.68952    
 2.86218924E-06 9.55496287E-09  25880286.      25880172.     0.14637949      114.19090    
 2.88136318E-06 9.61897199E-09  26392646.      26392529.     0.15022453      116.64831    
 2.90066556E-06 9.68340992E-09  26932499.      26932380.     0.15437034      119.36426    
 2.92009725E-06 9.74827952E-09  27475292.      27475170.     0.15853716      122.09145    
 2.93965911E-06 9.81358368E-09  28021351.      28021226.     0.16272612      124.79404    
 2.95935202E-06 9.87932532E-09  28602251.      28602123.     0.16730854      127.65174    
 2.97917685E-06 9.94550737E-09  29168490.      29168359.     0.17170387      130.37867    
 2.99913449E-06 1.00121328E-08  29760915.      29760782.     0.17639270      133.20689    
 3.01922583E-06 1.00792045E-08  30364902.      30364765.     0.18120471      136.12967    
 3.03945176E-06 1.01467255E-08  30965917.      30965778.     0.18596330      139.13617    
 3.05981319E-06 1.02146989E-08  31608376.      31608233.     0.19120680      142.37963    
 3.08031101E-06 1.02831276E-08  32236057.      32235911.     0.19625424      145.47804    
 3.10094616E-06 1.03520148E-08  32886140.      32885991.     0.20155669      148.65698    
 3.12171953E-06 1.04213634E-08  33558177.      33558025.     0.20711314      151.90265    
 3.14263207E-06 1.04911766E-08  34222385.      34222230.     0.21255277      155.06123    
 3.16368471E-06 1.05614574E-08  34927459.      34927301.     0.21848423      158.48749    
 3.18487837E-06 1.06322091E-08  35625972.      35625810.     0.22431471      161.99905    
 3.20621402E-06 1.07034348E-08  36339288.      36339122.     0.23031048      165.57079    
 3.22769259E-06 1.07751376E-08  37086994.      37086825.     0.23672578      169.27890    
 3.24931505E-06 1.08473207E-08  37821033.      37820860.     0.24294393      172.85188    
 3.27108236E-06 1.09199874E-08  38594787.      38594610.     0.24965296      176.58446    
 3.29299549E-06 1.09931409E-08  39372073.      39371892.     0.25638713      180.28576    
 3.31505541E-06 1.10667844E-08  40154730.      40154545.     0.26316617      184.08304    
 3.33726312E-06 1.11409213E-08  40986574.      40986385.     0.27057222      188.29482    
 3.35961959E-06 1.12155548E-08  41797777.      41797584.     0.27768029      192.33972    
 3.38212584E-06 1.12906884E-08  42646855.      42646658.     0.28526811      196.53803    
 3.40478285E-06 1.13663252E-08  43511742.      43511541.     0.29304506      200.75311    
 3.42759164E-06 1.14424687E-08  44372748.      44372543.     0.30074059      204.88882    
 3.45055323E-06 1.15191223E-08  45293497.      45293288.     0.30922585      209.27886    
 3.47366865E-06 1.15962894E-08  46192295.      46192081.     0.31738309      213.67030    
 3.49693891E-06 1.16739735E-08  47123983.      47123764.     0.32596397      218.36926    
 3.52036506E-06 1.17521780E-08  48086280.      48086056.     0.33494410      223.18455    
 3.54394814E-06 1.18309064E-08  49037782.      49037553.     0.34374099      227.86670    
 3.56768921E-06 1.19101621E-08  50048238.      50048005.     0.35333959      232.79369    
 3.59158932E-06 1.19899488E-08  51048426.      51048188.     0.36276239      237.59106    
 3.61564954E-06 1.20702701E-08  52070706.      52070463.     0.37246530      242.45085    
 3.63987094E-06 1.21511293E-08  53141314.      53141066.     0.38283356      247.72438    
 3.66425460E-06 1.22325303E-08  54192812.      54192558.     0.39288943      253.01827    
 3.68880161E-06 1.23144766E-08  55301659.      55301400.     0.40374641      258.56338    
 3.71351306E-06 1.23969718E-08  56414598.      56414334.     0.41462975      264.04009    
 3.73839005E-06 1.24800197E-08  57536219.      57535949.     0.42560029      269.48795    
 3.76343369E-06 1.25636239E-08  58727253.      58726978.     0.43756985      275.20574    
 3.78864510E-06 1.26477882E-08  59889242.      59888960.     0.44906488      280.72876    
 3.81402541E-06 1.27325163E-08  61105996.      61105709.     0.46134403      286.74030    
 3.83957574E-06 1.28178120E-08  62344314.      62344021.     0.47391274      292.99605    
 3.86529723E-06 1.29036791E-08  63577613.      63577314.     0.48635779      299.13231    
 3.89119103E-06 1.29901214E-08  64897015.      64896709.     0.50008899      305.63751    
 3.91725829E-06 1.30771428E-08  66183858.      66183546.     0.51327198      311.87343    
 3.94350018E-06 1.31647472E-08  67518950.      67518631.     0.52715824      318.27084    
 3.96991787E-06 1.32529384E-08  68896679.      68896354.     0.54167157      324.83311    
 3.99651253E-06 1.33417205E-08  70259548.      70259216.     0.55589772      331.59379    
 4.02328535E-06 1.34310972E-08  71707447.      71707107.     0.57143063      338.91613    
 4.05023752E-06 1.35210728E-08  73139393.      73139047.     0.58665902      346.03367    
 4.07737024E-06 1.36116511E-08  74604252.      74603898.     0.60236113      353.22998    
 4.10468473E-06 1.37028361E-08  76136986.      76136625.     0.61911799      360.66503    
 4.13218219E-06 1.37946320E-08  77643018.      77642650.     0.63538013      367.86652    
