 OPTXAGNF AGN Spectrum Model Parameters: BLS, Astar 0.0                          
 M_BH:  1.0000E+07 M_0            L  :  0.3000     L/Ledd 
 D   :  1.5000E+18 cm             z  :   0.000     redshift 
 Rcor:   60.00     Rg             Ro :   4.000     Rg 
 C_T :  0.2000     keV            Tau:   15.00     Optical Depth 
 gam :   1.800     (-slope)       fpl:  0.5000     Fraction 
 E              0.5DeltaE      E.FE total     E.FE Disk      E.FE Compton   E.FE NonThermal
 (keV)          (keV)          E.E/cm2/s/E    E.E/cm2/s/E    E.E/cm2/s/E    E.E/cm2/s/E    
 1.00334952E-06 3.34952256E-09  977629.79      977617.12     1.53449785E-02  12.649974    
 1.01007101E-06 3.37196116E-09  997007.90      996995.22     1.57481354E-02  12.659866    
 1.01683752E-06 3.39455008E-09  1017202.7      1017190.0     1.61756050E-02  12.664181    
 1.02364936E-06 3.41729032E-09  1037955.4      1037942.5     1.66195153E-02  12.836702    
 1.03050683E-06 3.44018290E-09  1058526.0      1058512.8     1.70559930E-02  13.179935    
 1.03741024E-06 3.46322884E-09  1080431.9      1080418.3     1.75341103E-02  13.560767    
 1.04435990E-06 3.48642917E-09  1102001.9      1101987.9     1.79998384E-02  13.923603    
 1.05135611E-06 3.50978492E-09  1124165.4      1124151.1     1.84832235E-02  14.293390    
 1.05839920E-06 3.53329712E-09  1147260.2      1147245.5     1.89957752E-02  14.676963    
 1.06548946E-06 3.55696684E-09  1169997.6      1169982.5     1.94947217E-02  15.044705    
 1.07262722E-06 3.58079512E-09  1194041.7      1194026.2     2.00355411E-02  15.454431    
 1.07981280E-06 3.60478303E-09  1218049.7      1218033.8     2.05734836E-02  15.871025    
 1.08704652E-06 3.62893164E-09  1242372.3      1242356.0     2.11200425E-02  16.286793    
 1.09432869E-06 3.65324201E-09  1268071.8      1268055.1     2.17117810E-02  16.726917    
 1.10165965E-06 3.67771524E-09  1293204.2      1293187.1     2.22821365E-02  17.143814    
 1.10903971E-06 3.70235243E-09  1319594.1      1319576.4     2.28938224E-02  17.581280    
 1.11646922E-06 3.72715465E-09  1346314.1      1346296.1     2.35150997E-02  18.019414    
 1.12394850E-06 3.75212303E-09  1373004.7      1372986.2     2.41330244E-02  18.470344    
 1.13147788E-06 3.77725867E-09  1401601.2      1401582.2     2.48161064E-02  18.974588    
 1.13905770E-06 3.80256270E-09  1429380.8      1429361.3     2.54680902E-02  19.448011    
 1.14668830E-06 3.82803623E-09  1458343.8      1458323.9     2.61598611E-02  19.940158    
 1.15437002E-06 3.85368042E-09  1488080.6      1488060.1     2.68772959E-02  20.439409    
 1.16210319E-06 3.87949640E-09  1517568.9      1517547.9     2.75831658E-02  20.923531    
 1.16988818E-06 3.90548532E-09  1548984.7      1548963.2     2.83568847E-02  21.444191    
 1.17772531E-06 3.93164835E-09  1579891.9      1579869.9     2.91095631E-02  21.972761    
 1.18561494E-06 3.95798663E-09  1611677.6      1611655.1     2.98918260E-02  22.525424    
 1.19355743E-06 3.98450137E-09  1644769.7      1644746.6     3.07202029E-02  23.097826    
 1.20155313E-06 4.01119372E-09  1677363.8      1677340.1     3.15270967E-02  23.647396    
 1.20960239E-06 4.03806489E-09  1711845.8      1711821.5     3.24022888E-02  24.228175    
 1.21770557E-06 4.06511607E-09  1746245.9      1746221.1     3.32716816E-02  24.795539    
 1.22586303E-06 4.09234846E-09  1781127.7      1781102.3     3.41561841E-02  25.369708    
 1.23407514E-06 4.11976329E-09  1817951.6      1817925.6     3.51125477E-02  26.010027    
 1.24234227E-06 4.14736177E-09  1853978.3      1853951.7     3.60349232E-02  26.633461    
 1.25066478E-06 4.17514513E-09  1891824.0      1891796.7     3.70248020E-02  27.287046    
 1.25904304E-06 4.20311462E-09  1930109.7      1930081.7     3.80288830E-02  27.937077    
 1.26747742E-06 4.23127147E-09  1968387.1      1968358.5     3.90288837E-02  28.575535    
 1.27596831E-06 4.25961695E-09  2009361.5      2009332.2     4.01328831E-02  29.257694    
 1.28451608E-06 4.28815232E-09  2049182.1      2049152.2     4.11872671E-02  29.916544    
 1.29312111E-06 4.31687884E-09  2090717.7      2090687.0     4.23067520E-02  30.636320    
 1.30178379E-06 4.34579781E-09  2133325.2      2133293.8     4.34662467E-02  31.381047    
 1.31050450E-06 4.37491051E-09  2175595.0      2175562.9     4.46077743E-02  32.104588    
 1.31928362E-06 4.40421823E-09  2220646.9      2220614.0     4.58598510E-02  32.874481    
 1.32812156E-06 4.43372228E-09  2264930.9      2264897.2     4.70762763E-02  33.613828    
 1.33701871E-06 4.46342399E-09  2310513.8      2310479.4     4.83422108E-02  34.367305    
 1.34597546E-06 4.49332467E-09  2357928.2      2357893.0     4.96810154E-02  35.161918    
 1.35499221E-06 4.52342565E-09  2404649.2      2404613.2     5.09859175E-02  35.970604    
 1.36406936E-06 4.55372829E-09  2454097.6      2454060.7     5.24022116E-02  36.837333    
 1.37320733E-06 4.58423392E-09  2503385.7      2503347.9     5.38072726E-02  37.683720    
 1.38240650E-06 4.61494391E-09  2553407.9      2553369.3     5.52386697E-02  38.531469    
 1.39166731E-06 4.64585962E-09  2606168.6      2606129.2     5.67843339E-02  39.419181    
 1.40099015E-06 4.67698245E-09  2657809.2      2657768.8     5.82759913E-02  40.270777    
 1.41037545E-06 4.70831376E-09  2712080.5      2712039.3     5.98778879E-02  41.182024    
 1.41982361E-06 4.73985497E-09  2766934.8      2766892.6     6.15006354E-02  42.141483    
 1.42933508E-06 4.77160747E-09  2821826.1      2821782.9     6.31189539E-02  43.094711    
 1.43891026E-06 4.80357269E-09  2880532.6      2880488.4     6.49032368E-02  44.111148    
 1.44854958E-06 4.83575204E-09  2937610.4      2937565.3     6.66083762E-02  45.075974    
 1.45825348E-06 4.86814696E-09  2997172.4      2997126.2     6.84200215E-02  46.074815    
 1.46802239E-06 4.90075889E-09  3058217.8      3058170.7     7.02939540E-02  47.086347    
 1.47785673E-06 4.93358930E-09  3118805.6      3118757.4     7.21400202E-02  48.102873    
 1.48775696E-06 4.96663964E-09  3183408.6      3183359.2     7.41661980E-02  49.242577    
 1.49772351E-06 4.99991138E-09  3246855.0      3246804.6     7.61320927E-02  50.344468    
 1.50775683E-06 5.03340601E-09  3312220.1      3312168.5     7.81807468E-02  51.468540    
 1.51785736E-06 5.06712502E-09  3380151.6      3380098.9     8.03444878E-02  52.624018    
 1.52802556E-06 5.10106992E-09  3447118.2      3447064.4     8.24547603E-02  53.742564    
 1.53826187E-06 5.13524222E-09  3518024.6      3517969.6     8.47466959E-02  54.918414    
 1.54856676E-06 5.16964344E-09  3588639.3      3588583.1     8.70174657E-02  56.115833    
 1.55894067E-06 5.20427512E-09  3660369.4      3660311.9     8.93339003E-02  57.374271    
 1.56938409E-06 5.23913879E-09  3735959.3      3735900.5     9.18319789E-02  58.696740    
 1.57989746E-06 5.27423602E-09  3809976.1      3809916.0     9.42442683E-02  59.964781    
 1.59048127E-06 5.30956836E-09  3887797.3      3887735.9     9.68365714E-02  61.287593    
 1.60113597E-06 5.34513740E-09  3966385.3      3966322.6     9.94591707E-02  62.602746    
 1.61186206E-06 5.38094472E-09  4045096.2      4045032.2     0.10207812      63.901743    
 1.62265999E-06 5.41699191E-09  4129203.0      4129137.6     0.10496187      65.343735    
 1.63353026E-06 5.45328058E-09  4211011.7      4210944.8     0.10771939      66.780224    
 1.64447336E-06 5.48981235E-09  4296417.9      4296349.6     0.11065114      68.269303    
 1.65548976E-06 5.52658885E-09  4383874.4      4383804.5     0.11367971      69.773359    
 1.66657996E-06 5.56361172E-09  4470712.7      4470641.3     0.11666515      71.242966    
 1.67774445E-06 5.60088261E-09  4563344.7      4563271.8     0.11994401      72.796841    
 1.68898374E-06 5.63840317E-09  4654239.4      4654165.0     0.12312113      74.301976    
 1.70029832E-06 5.67617509E-09  4747965.4      4747889.4     0.12643644      75.910221    
 1.71168869E-06 5.71420004E-09  4845285.3      4845207.6     0.12993341      77.628198    
 1.72315537E-06 5.75247973E-09  4941264.4      4941184.9     0.13334611      79.293781    
 1.73469887E-06 5.79101585E-09  5042933.2      5042852.0     0.13705506      81.044559    
 1.74631969E-06 5.82981012E-09  5144095.4      5144012.5     0.14072492      82.757020    
 1.75801837E-06 5.86886429E-09  5246946.5      5246861.9     0.14447360      84.476775    
 1.76979541E-06 5.90818007E-09  5355235.7      5355149.3     0.14851095      86.278834    
 1.78165135E-06 5.94775924E-09  5461317.0      5461228.8     0.15241206      88.108681    
 1.79358672E-06 5.98760354E-09  5572898.9      5572808.7     0.15660710      90.076458    
 1.80560203E-06 6.02771477E-09  5685481.6      5685389.4     0.16084559      92.034013    
 1.81769784E-06 6.06809470E-09  5798340.5      5798246.4     0.16508385      93.968607    
 1.82987468E-06 6.10874514E-09  5918828.6      5918732.4     0.16974454      96.014280    
 1.84213310E-06 6.14966790E-09  6036074.7      6035976.5     0.17420396      97.970835    
 1.85447363E-06 6.19086481E-09  6158530.0      6158429.8     0.17894834      100.01156    
 1.86689683E-06 6.23233769E-09  6283814.7      6283712.3     0.18384298      102.19062    
 1.87940326E-06 6.27408840E-09  6408267.6      6408163.1     0.18867096      104.37493    
 1.89199346E-06 6.31611880E-09  6541079.6      6540972.7     0.19397696      106.69129    
 1.90466801E-06 6.35843077E-09  6671287.6      6671178.4     0.19911155      108.92051    
 1.91742747E-06 6.40102618E-09  6805669.4      6805558.0     0.20447667      111.19596    
 1.93027240E-06 6.44390694E-09  6945080.8      6944967.0     0.21012835      113.52540    
 1.94320339E-06 6.48707497E-09  7082630.7      7082514.6     0.21564730      115.82358    
 1.95622099E-06 6.53053217E-09  7228396.6      7228278.0     0.22164930      118.36919    
 1.96932581E-06 6.57428050E-09  7373309.8      7373188.6     0.22758026      120.91640    
 1.98251841E-06 6.61832191E-09  7520772.5      7520648.8     0.23364673      123.47676    
 1.99579939E-06 6.66265834E-09  7675894.2      7675767.8     0.24017178      126.14006    
 2.00916934E-06 6.70729179E-09  7827918.4      7827789.4     0.24648058      128.70838    
 2.02262885E-06 6.75222424E-09  7987893.8      7987762.1     0.25326925      131.38053    
 2.03617854E-06 6.79745770E-09  8149162.7      8149028.4     0.26011923      134.09066    
 2.04981899E-06 6.84299417E-09  8310971.2      8310834.1     0.26697802      136.91480    
 2.06355082E-06 6.88883570E-09  8483563.4      8483423.2     0.27451055      139.96133    
 2.07737464E-06 6.93498432E-09  8651583.9      8651440.8     0.28172223      142.87110    
 2.09129106E-06 6.98144209E-09  8827145.5      8826999.4     0.28939991      145.88075    
 2.10530072E-06 7.02821109E-09  9006605.3      9006456.1     0.29731037      148.91399    
 2.11940422E-06 7.07529339E-09  9184950.9      9184798.7     0.30511807      151.88959    
 2.13360221E-06 7.12269110E-09  9375354.4      9375199.0     0.31370444      155.09972    
 2.14789530E-06 7.17040633E-09  9561863.3      9561704.6     0.32200250      158.37527    
 2.16228415E-06 7.21844121E-09  9754520.0      9754357.9     0.33068476      161.76269    
 2.17676939E-06 7.26679787E-09  9954210.3      9954044.7     0.33981877      165.22961    
 2.19135167E-06 7.31547848E-09  10151320.      10151151.     0.34874387      168.59995    
 2.20603163E-06 7.36448520E-09  10360290.      10360117.     0.35845660      172.13259    
 2.22080994E-06 7.41382021E-09  10567857.      10567681.     0.36804174      175.59443    
 2.23568724E-06 7.46348573E-09  10779263.      10779083.     0.37785903      179.16396    
 2.25066421E-06 7.51348396E-09  11001450.      11001267.     0.38840461      183.09248    
 2.26574151E-06 7.56381713E-09  11219296.      11219108.     0.39860703      186.91043    
 2.28091982E-06 7.61448748E-09  11448632.      11448441.     0.40959282      190.89042    
 2.29619980E-06 7.66549727E-09  11679621.      11679426.     0.42066330      194.83919    
 2.31158215E-06 7.71684879E-09  11911588.      11911389.     0.43176285      198.75496    
 2.32706754E-06 7.76854430E-09  12158793.      12158589.     0.44393675      202.87550    
 2.34265667E-06 7.82058613E-09  12399553.      12399346.     0.45559928      206.96817    
 2.35835023E-06 7.87297659E-09  12651228.      12651016.     0.46802379      211.42066    
 2.37414893E-06 7.92571802E-09  12908265.      12908049.     0.48080821      215.93266    
 2.39005346E-06 7.97881276E-09  13163817.      13163596.     0.49343459      220.35445    
 2.40606454E-06 8.03226319E-09  13436759.      13436534.     0.50732934      225.02434    
 2.42218287E-06 8.08607168E-09  13703887.      13703657.     0.52073985      229.52581    
 2.43840918E-06 8.14024064E-09  13980062.      13979827.     0.53479011      234.12402    
 2.45474420E-06 8.19477248E-09  14266066.      14265827.     0.54955205      239.02282    
 2.47118864E-06 8.24966963E-09  14548497.      14548252.     0.56398546      244.01745    
 2.48774324E-06 8.30493454E-09  14848047.      14847797.     0.57970298      249.28032    
 2.50440875E-06 8.36056967E-09  15145328.      15145073.     0.59519366      254.41944    
 2.52118589E-06 8.41657750E-09  15448373.      15448113.     0.61108079      259.59550    
 2.53807543E-06 8.47296053E-09  15766589.      15766324.     0.62812416      264.95718    
 2.55507811E-06 8.52972128E-09  16078722.      16078451.     0.64462318      270.16071    
 2.57219470E-06 8.58686227E-09  16407458.      16407182.     0.66240092      275.81949    
 2.58942595E-06 8.64438604E-09  16738274.      16737992.     0.68029218      281.67888    
 2.60677263E-06 8.70229518E-09  17070785.      17070497.     0.69825448      287.50102    
 2.62423551E-06 8.76059224E-09  17424821.      17424526.     0.71792959      293.63035    
 2.64181539E-06 8.81927985E-09  17769777.      17769477.     0.73678983      299.51071    
 2.65951303E-06 8.87836060E-09  18130524.      18130218.     0.75689588      305.58684    
 2.67732922E-06 8.93783714E-09  18498633.      18498321.     0.77755722      311.73514    
 2.69526477E-06 8.99771211E-09  18864775.      18864456.     0.79797616      318.06291    
 2.71332047E-06 9.05798819E-09  19255993.      19255667.     0.82046098      325.00621    
 2.73149713E-06 9.11866806E-09  19638547.      19638214.     0.84213365      331.69230    
 2.74979555E-06 9.17975443E-09  20034403.      20034063.     0.86487069      338.53394    
 2.76821656E-06 9.24125002E-09  20443984.      20443637.     0.88872813      345.51587    
 2.78676096E-06 9.30315757E-09  20848622.      20848269.     0.91206929      352.32531    
 2.80542960E-06 9.36547984E-09  21277966.      21277606.     0.93750391      359.50748    
 2.82422330E-06 9.42821962E-09  21703688.      21703320.     0.96253849      366.92051    
 2.84314290E-06 9.49137968E-09  22138046.      22137671.     0.98824822      374.60409    
 2.86218924E-06 9.55496287E-09  22593743.      22593359.      1.0157929      382.58381    
 2.88136318E-06 9.61897199E-09  23040922.      23040530.      1.0424745      390.29617    
 2.90066556E-06 9.68340992E-09  23512085.      23511686.      1.0712432      398.32545    
 2.92009725E-06 9.74827952E-09  23985814.      23985406.      1.1001575      406.28487    
 2.93965911E-06 9.81358368E-09  24462393.      24461978.      1.1292256      414.27733    
 2.95935202E-06 9.87932532E-09  24969366.      24968942.      1.1610238      423.15163    
 2.97917685E-06 9.94550737E-09  25463552.      25463119.      1.1915238      431.88410    
 2.99913449E-06 1.00121328E-08  25980582.      25980139.      1.2240604      440.92757    
 3.01922583E-06 1.00792045E-08  26507697.      26507245.      1.2574517      450.01682    
 3.03945176E-06 1.01467255E-08  27032222.      27031762.      1.2904724      458.94721    
 3.05981319E-06 1.02146989E-08  27592898.      27592428.      1.3268577      468.35892    
 3.08031101E-06 1.02831276E-08  28140685.      28140207.      1.3618826      477.59113    
 3.10094616E-06 1.03520148E-08  28708016.      28707527.      1.3986770      487.53436    
 3.12171953E-06 1.04213634E-08  29294495.      29293996.      1.4372339      497.92019    
 3.14263207E-06 1.04911766E-08  29874150.      29873641.      1.4749802      508.03420    
 3.16368471E-06 1.05614574E-08  30489449.      30488929.      1.5161391      518.64532    
 3.18487837E-06 1.06322091E-08  31099027.      31098496.      1.5565975      529.00636    
 3.20621402E-06 1.07034348E-08  31721518.      31720977.      1.5982026      539.46022    
 3.22769259E-06 1.07751376E-08  32374005.      32373453.      1.6427189      550.48219    
 3.24931505E-06 1.08473207E-08  33014576.      33014012.      1.6858671      561.75831    
 3.27108236E-06 1.09199874E-08  33689784.      33689209.      1.7324215      573.71328    
 3.29299549E-06 1.09931409E-08  34368077.      34367489.      1.7791502      585.54216    
 3.31505541E-06 1.10667844E-08  35051056.      35050457.      1.8261903      597.30520    
 3.33726312E-06 1.11409213E-08  35776933.      35776322.      1.8775812      609.63640    
 3.35961959E-06 1.12155548E-08  36484813.      36484189.      1.9269043      621.51759    
 3.38212584E-06 1.12906884E-08  37225725.      37225089.      1.9795563      634.06079    
 3.40478285E-06 1.13663252E-08  37980427.      37979777.      2.0335207      647.42635    
 3.42759164E-06 1.14424687E-08  38731748.      38731085.      2.0869200      660.68873    
 3.45055323E-06 1.15191223E-08  39535170.      39534494.      2.1457990      674.71366    
 3.47366865E-06 1.15962894E-08  40319454.      40318763.      2.2024021      688.19630    
 3.49693891E-06 1.16739735E-08  41132421.      41131716.      2.2619445      702.00542    
 3.52036506E-06 1.17521780E-08  41972082.      41971364.      2.3242574      716.07407    
 3.54394814E-06 1.18309064E-08  42802334.      42801602.      2.3852987      730.19306    
 3.56768921E-06 1.19101621E-08  43683998.      43683250.      2.4519027      745.87128    
 3.59158932E-06 1.19899488E-08  44556712.      44555948.      2.5172870      761.26027    
 3.61564954E-06 1.20702701E-08  45448693.      45447913.      2.5846148      776.80321    
 3.63987094E-06 1.21511293E-08  46382817.      46382021.      2.6565592      792.86222    
 3.66425460E-06 1.22325303E-08  47300282.      47299470.      2.7263361      808.43009    
 3.68880161E-06 1.23144766E-08  48267755.      48266927.      2.8016715      824.62198    
 3.71351306E-06 1.23969718E-08  49238800.      49237956.      2.8771898      841.26382    
 3.73839005E-06 1.24800197E-08  50217421.      50216560.      2.9533131      858.65796    
 3.76343369E-06 1.25636239E-08  51256567.      51255686.      3.0363681      877.01503    
 3.78864510E-06 1.26477882E-08  52270392.      52269494.      3.1161306      894.64503    
 3.81402541E-06 1.27325163E-08  53331970.      53331054.      3.2013338      912.88876    
 3.83957574E-06 1.28178120E-08  54412354.      54411419.      3.2885460      931.19412    
 3.86529723E-06 1.29036791E-08  55488367.      55487414.      3.3749002      949.22369    
 3.89119103E-06 1.29901214E-08  56639451.      56638478.      3.4701783      969.06809    
 3.91725829E-06 1.30771428E-08  57762157.      57761164.      3.5616527      989.03747    
 3.94350018E-06 1.31647472E-08  58926931.      58925918.      3.6580066      1009.5778    
 3.96991787E-06 1.32529384E-08  60128881.      60127847.      3.7587115      1030.4851    
 3.99651253E-06 1.33417205E-08  61317882.      61316828.      3.8574237      1050.8972    
 4.02328535E-06 1.34310972E-08  62581014.      62579938.      3.9652028      1072.2862    
 4.05023752E-06 1.35210728E-08  63830246.      63829149.      4.0708689      1093.2549    
 4.07737024E-06 1.36116511E-08  65108176.      65107056.      4.1798219      1115.3804    
 4.10468473E-06 1.37028361E-08  66445280.      66444137.      4.2960931      1139.2073    
 4.13218219E-06 1.37946320E-08  67759116.      67757949.      4.4089317      1162.3225    
