 OPTXAGNF AGN Spectrum Model Parameters: NLS, Astar 0.0                          
 M_BH:  1.0000E+08 M_0            L  :  0.2000     L/Ledd 
 D   :  1.5000E+18 cm             z  :   0.000     redshift 
 Rcor:   40.00     Rg             Ro :   4.000     Rg 
 C_T :  0.2000     keV            Tau:   15.00     Optical Depth 
 gam :   2.200     (-slope)       fpl:  0.2000     Fraction 
 E              0.5DeltaE      E.FE total     E.FE Disk      E.FE Compton   E.FE NonThermal
 (keV)          (keV)          E.E/cm2/s/E    E.E/cm2/s/E    E.E/cm2/s/E    E.E/cm2/s/E    
 1.00334952E-06 3.34952256E-09  50089555.      50087962.      2.5712056      1590.1836    
 1.01007101E-06 3.37196116E-09  51081688.      51080063.      2.6387569      1622.3073    
 1.01683752E-06 3.39455008E-09  52115584.      52113924.      2.7103818      1657.0877    
 1.02364936E-06 3.41729032E-09  53177997.      53176302.      2.7847614      1692.5577    
 1.03050683E-06 3.44018290E-09  54231106.      54229376.      2.8578957      1727.1999    
 1.03741024E-06 3.46322884E-09  55352473.      55350706.      2.9380067      1763.6747    
 1.04435990E-06 3.48642917E-09  56456686.      56454884.      3.0160418      1799.0556    
 1.05135611E-06 3.50978492E-09  57591244.      57589406.      3.0970354      1834.9731    
 1.05839920E-06 3.53329712E-09  58773411.      58771535.      3.1829158      1873.5120    
 1.06548946E-06 3.55696684E-09  59937329.      59935413.      3.2665167      1912.6495    
 1.07262722E-06 3.58079512E-09  61168037.      61166080.      3.3571334      1953.7321    
 1.07981280E-06 3.60478303E-09  62396914.      62394917.      3.4472680      1994.1132    
 1.08704652E-06 3.62893164E-09  63641877.      63639839.      3.5388463      2034.5217    
 1.09432869E-06 3.65324201E-09  64957218.      64955137.      3.6379944      2076.6400    
 1.10165965E-06 3.67771524E-09  66243591.      66241470.      3.7335597      2117.4071    
 1.10903971E-06 3.70235243E-09  67594233.      67592067.      3.8360499      2161.6250    
 1.11646922E-06 3.72715465E-09  68961763.      68959552.      3.9401472      2207.6619    
 1.12394850E-06 3.75212303E-09  70327804.      70325546.      4.0436827      2253.0908    
 1.13147788E-06 3.77725867E-09  71791234.      71788929.      4.1581351      2301.2267    
 1.13905770E-06 3.80256270E-09  73212940.      73210588.      4.2673772      2347.2617    
 1.14668830E-06 3.82803623E-09  74695129.      74692730.      4.3832854      2394.6867    
 1.15437002E-06 3.85368042E-09  76216857.      76214410.      4.5034936      2442.9812    
 1.16210319E-06 3.87949640E-09  77725915.      77723418.      4.6217640      2492.5874    
 1.16988818E-06 3.90548532E-09  79333454.      79330902.      4.7514024      2546.7581    
 1.17772531E-06 3.93164835E-09  80915030.      80912426.      4.8775155      2599.2637    
 1.18561494E-06 3.95798663E-09  82541499.      82538841.      5.0085853      2652.6388    
 1.19355743E-06 3.98450137E-09  84234712.      84232000.      5.1473814      2707.4509    
 1.20155313E-06 4.01119372E-09  85902507.      85899741.      5.2825780      2760.7432    
 1.20960239E-06 4.03806489E-09  87666747.      87663925.      5.4292178      2816.8110    
 1.21770557E-06 4.06511607E-09  89426832.      89423951.      5.5748859      2875.0669    
 1.22586303E-06 4.09234846E-09  91211534.      91208593.      5.7230855      2934.9952    
 1.23407514E-06 4.11976329E-09  93095441.      93092437.      5.8833252      2997.6300    
 1.24234227E-06 4.14736177E-09  94938657.      94935593.      6.0378702      3057.9728    
 1.25066478E-06 4.17514513E-09  96874782.      96871655.      6.2037251      3120.6040    
 1.25904304E-06 4.20311462E-09  98833396.      98830207.      6.3719595      3183.0709    
 1.26747742E-06 4.23127147E-09 1.00791618E+08 1.00788366E+08  6.5395102      3245.4461    
 1.27596831E-06 4.25961695E-09 1.02887566E+08 1.02884244E+08  6.7244853      3315.1501    
 1.28451608E-06 4.28815232E-09 1.04924637E+08 1.04921247E+08  6.9011476      3383.4719    
 1.29312111E-06 4.31687884E-09 1.07049287E+08 1.07045825E+08  7.0887172      3453.9867    
 1.30178379E-06 4.34579781E-09 1.09228690E+08 1.09225157E+08  7.2829901      3525.3117    
 1.31050450E-06 4.37491051E-09 1.11390881E+08 1.11387279E+08  7.4742527      3595.1684    
 1.31928362E-06 4.40421823E-09 1.13695123E+08 1.13691447E+08  7.6840371      3668.5741    
 1.32812156E-06 4.43372228E-09 1.15960192E+08 1.15956443E+08  7.8878483      3741.0778    
 1.33701871E-06 4.46342399E-09 1.18291602E+08 1.18287775E+08  8.0999544      3818.6627    
 1.34597546E-06 4.49332467E-09 1.20716529E+08 1.20712621E+08  8.3242693      3900.1544    
 1.35499221E-06 4.52342565E-09 1.23106091E+08 1.23102103E+08  8.5429041      3979.2538    
 1.36406936E-06 4.55372829E-09 1.25634890E+08 1.25630819E+08  8.7802017      4061.9848    
 1.37320733E-06 4.58423392E-09 1.28155535E+08 1.28151383E+08  9.0156173      4143.2710    
 1.38240650E-06 4.61494391E-09 1.30713688E+08 1.30709454E+08  9.2554452      4224.7869    
 1.39166731E-06 4.64585962E-09 1.33411625E+08 1.33407304E+08  9.5144176      4311.3057    
 1.40099015E-06 4.67698245E-09 1.36052440E+08 1.36048030E+08  9.7643415      4399.5810    
 1.41037545E-06 4.70831376E-09 1.38827541E+08 1.38823038E+08  10.032735      4492.7587    
 1.41982361E-06 4.73985497E-09 1.41632418E+08 1.41627822E+08  10.304622      4585.5548    
 1.42933508E-06 4.77160747E-09 1.44439225E+08 1.44434537E+08  10.575767      4677.2485    
 1.43891026E-06 4.80357269E-09 1.47440725E+08 1.47435940E+08  10.874717      4773.9556    
 1.44854958E-06 4.83575204E-09 1.50359177E+08 1.50354299E+08  11.160408      4866.8702    
 1.45825348E-06 4.86814696E-09 1.53404406E+08 1.53399430E+08  11.463943      4964.7431    
 1.46802239E-06 4.90075889E-09 1.56525362E+08 1.56520281E+08  11.777913      5069.6391    
 1.47785673E-06 4.93358930E-09 1.59623018E+08 1.59617833E+08  12.087214      5173.3269    
 1.48775696E-06 4.96663964E-09 1.62925530E+08 1.62920235E+08  12.426692      5282.6338    
 1.49772351E-06 4.99991138E-09 1.66169097E+08 1.66163696E+08  12.756069      5388.3846    
 1.50775683E-06 5.03340601E-09 1.69510578E+08 1.69505069E+08  13.099312      5496.0235    
 1.51785736E-06 5.06712502E-09 1.72983000E+08 1.72977380E+08  13.461836      5606.3477    
 1.52802556E-06 5.10106992E-09 1.76406272E+08 1.76400541E+08  13.815402      5716.9048    
 1.53826187E-06 5.13524222E-09 1.80030520E+08 1.80024667E+08  14.199403      5839.1116    
 1.54856676E-06 5.16964344E-09 1.83639944E+08 1.83633970E+08  14.579859      5959.8130    
 1.55894067E-06 5.20427512E-09 1.87306308E+08 1.87300212E+08  14.967964      6080.9311    
 1.56938409E-06 5.23913879E-09 1.91169539E+08 1.91163316E+08  15.386502      6206.8482    
 1.57989746E-06 5.27423602E-09 1.94952617E+08 1.94946273E+08  15.790667      6328.5445    
 1.59048127E-06 5.30956836E-09 1.98929732E+08 1.98923261E+08  16.224991      6454.7534    
 1.60113597E-06 5.34513740E-09 2.02946005E+08 2.02939403E+08  16.664390      6585.3961    
 1.61186206E-06 5.38094472E-09 2.06968622E+08 2.06961884E+08  17.103178      6720.9814    
 1.62265999E-06 5.41699191E-09 2.11266371E+08 2.11259489E+08  17.586329      6864.9170    
 1.63353026E-06 5.45328058E-09 2.15447033E+08 2.15440012E+08  18.048333      7002.7170    
 1.64447336E-06 5.48981235E-09 2.19811153E+08 2.19803990E+08  18.539526      7144.8808    
 1.65548976E-06 5.52658885E-09 2.24279841E+08 2.24272534E+08  19.046940      7288.3917    
 1.66657996E-06 5.56361172E-09 2.28717099E+08 2.28709650E+08  19.547126      7429.3711    
 1.67774445E-06 5.60088261E-09 2.33449720E+08 2.33442116E+08  20.096472      7584.1646    
 1.68898374E-06 5.63840317E-09 2.38093881E+08 2.38086119E+08  20.628772      7740.8003    
 1.70029832E-06 5.67617509E-09 2.42882412E+08 2.42874490E+08  21.184225      7900.8186    
 1.71168869E-06 5.71420004E-09 2.47854156E+08 2.47846069E+08  21.770111      8064.7307    
 1.72315537E-06 5.75247973E-09 2.52757661E+08 2.52749415E+08  22.341879      8224.2600    
 1.73469887E-06 5.79101585E-09 2.57951164E+08 2.57942750E+08  22.963277      8390.9352    
 1.74631969E-06 5.82981012E-09 2.63118939E+08 2.63110360E+08  23.578128      8555.3648    
 1.75801837E-06 5.86886429E-09 2.68372864E+08 2.68364112E+08  24.206183      8727.9370    
 1.76979541E-06 5.90818007E-09 2.73903930E+08 2.73894991E+08  24.882599      8914.7787    
 1.78165135E-06 5.94775924E-09 2.79322611E+08 2.79313490E+08  25.536191      9095.4182    
 1.79358672E-06 5.98760354E-09 2.85021586E+08 2.85012277E+08  26.239025      9283.2232    
 1.80560203E-06 6.02771477E-09 2.90771633E+08 2.90762136E+08  26.949139      9470.0206    
 1.81769784E-06 6.06809470E-09 2.96535868E+08 2.96526186E+08  27.659213      9655.0941    
 1.82987468E-06 6.10874514E-09 3.02688761E+08 3.02678882E+08  28.440057      9850.8804    
 1.84213310E-06 6.14966790E-09 3.08676662E+08 3.08666584E+08  29.187183      10048.985    
 1.85447363E-06 6.19086481E-09 3.14929973E+08 3.14919683E+08  29.982048      10259.945    
 1.86689683E-06 6.23233769E-09 3.21327465E+08 3.21316961E+08  30.802085      10473.258    
 1.87940326E-06 6.27408840E-09 3.27682731E+08 3.27672017E+08  31.610955      10682.384    
 1.89199346E-06 6.31611880E-09 3.34463726E+08 3.34452791E+08  32.499906      10902.552    
 1.90466801E-06 6.35843077E-09 3.41112261E+08 3.41101112E+08  33.360142      11115.588    
 1.91742747E-06 6.40102618E-09 3.47973439E+08 3.47962070E+08  34.258998      11334.599    
 1.93027240E-06 6.44390694E-09 3.55090787E+08 3.55079181E+08  35.205861      11571.216    
 1.94320339E-06 6.48707497E-09 3.62113529E+08 3.62101685E+08  36.130486      11807.771    
 1.95622099E-06 6.53053217E-09 3.69554612E+08 3.69542519E+08  37.136038      12055.928    
 1.96932581E-06 6.57428050E-09 3.76952427E+08 3.76940090E+08  38.129686      12298.995    
 1.98251841E-06 6.61832191E-09 3.84480165E+08 3.84467583E+08  39.146036      12543.379    
 1.99579939E-06 6.66265834E-09 3.92397827E+08 3.92384990E+08  40.239210      12796.631    
 2.00916934E-06 6.70729179E-09 4.00158023E+08 4.00144937E+08  41.296156      13045.355    
 2.02262885E-06 6.75222424E-09 4.08323005E+08 4.08309645E+08  42.433492      13317.566    
 2.03617854E-06 6.79745770E-09 4.16553967E+08 4.16540328E+08  43.581101      13595.084    
 2.04981899E-06 6.84299417E-09 4.24812562E+08 4.24798647E+08  44.730184      13869.972    
 2.06355082E-06 6.88883570E-09 4.33619955E+08 4.33605749E+08  45.992134      14159.372    
 2.07737464E-06 6.93498432E-09 4.42194943E+08 4.42180459E+08  47.200334      14437.300    
 2.09129106E-06 6.98144209E-09 4.51153748E+08 4.51138976E+08  48.486601      14723.948    
 2.10530072E-06 7.02821109E-09 4.60311023E+08 4.60295955E+08  49.811862      15018.217    
 2.11940422E-06 7.07529339E-09 4.69411851E+08 4.69396478E+08  51.119910      15322.607    
 2.13360221E-06 7.12269110E-09 4.79126152E+08 4.79110449E+08  52.558402      15650.585    
 2.14789530E-06 7.17040633E-09 4.88642562E+08 4.88626541E+08  53.948594      15966.770    
 2.16228415E-06 7.21844121E-09 4.98471846E+08 4.98455501E+08  55.403149      16289.545    
 2.17676939E-06 7.26679787E-09 5.08658990E+08 5.08642314E+08  56.933382      16619.341    
 2.19135167E-06 7.31547848E-09 5.18715129E+08 5.18698129E+08  58.428617      16941.206    
 2.20603163E-06 7.36448520E-09 5.29374570E+08 5.29357226E+08  60.055796      17284.217    
 2.22080994E-06 7.41382021E-09 5.39962908E+08 5.39945205E+08  61.661602      17640.703    
 2.23568724E-06 7.46348573E-09 5.50746644E+08 5.50728577E+08  63.306296      18003.879    
 2.25066421E-06 7.51348396E-09 5.62078702E+08 5.62060256E+08  65.072994      18380.683    
 2.26574151E-06 7.56381713E-09 5.73190286E+08 5.73171474E+08  66.782204      18745.018    
 2.28091982E-06 7.61448748E-09 5.84886203E+08 5.84867011E+08  68.622644      19123.588    
 2.29619980E-06 7.66549727E-09 5.96666334E+08 5.96646763E+08  70.477270      19499.942    
 2.31158215E-06 7.71684879E-09 6.08496502E+08 6.08476548E+08  72.336767      19881.907    
 2.32706754E-06 7.76854430E-09 6.21101269E+08 6.21080886E+08  74.376236      20308.644    
 2.34265667E-06 7.82058613E-09 6.33378882E+08 6.33358084E+08  76.330039      20721.191    
 2.35835023E-06 7.87297659E-09 6.46211349E+08 6.46190123E+08  78.411488      21147.601    
 2.37414893E-06 7.92571802E-09 6.59316507E+08 6.59294850E+08  80.553227      21576.943    
 2.39005346E-06 7.97881276E-09 6.72346566E+08 6.72324484E+08  82.668491      21998.729    
 2.40606454E-06 8.03226319E-09 6.86260325E+08 6.86237797E+08  84.996226      22442.258    
 2.42218287E-06 8.08607168E-09 6.99879083E+08 6.99856110E+08  87.242844      22885.537    
 2.43840918E-06 8.14024064E-09 7.13957745E+08 7.13934293E+08  89.596629      23362.383    
 2.45474420E-06 8.19477248E-09 7.28535922E+08 7.28511977E+08  92.069630      23852.833    
 2.47118864E-06 8.24966963E-09 7.42932966E+08 7.42908541E+08  94.487596      24330.439    
 2.48774324E-06 8.30493454E-09 7.58199734E+08 7.58174806E+08  97.120670      24830.527    
 2.50440875E-06 8.36056967E-09 7.73351594E+08 7.73326174E+08  99.715742      25320.082    
 2.52118589E-06 8.41657750E-09 7.88796543E+08 7.88770627E+08  102.37723      25813.165    
 2.53807543E-06 8.47296053E-09 8.05012113E+08 8.04985664E+08  105.23239      26344.325    
 2.55507811E-06 8.52972128E-09 8.20919280E+08 8.20892289E+08  107.99637      26883.025    
 2.57219470E-06 8.58686227E-09 8.37669683E+08 8.37642125E+08  110.97455      27446.478    
 2.58942595E-06 8.64438604E-09 8.54525993E+08 8.54497874E+08  113.97175      28005.230    
 2.60677263E-06 8.70229518E-09 8.71468879E+08 8.71440202E+08  116.98084      28560.068    
 2.62423551E-06 8.76059224E-09 8.89504465E+08 8.89475203E+08  120.27685      29142.082    
 2.64181539E-06 8.81927985E-09 9.07079797E+08 9.07049969E+08  123.43636      29704.213    
 2.65951303E-06 8.87836060E-09 9.25456934E+08 9.25426498E+08  126.80455      30308.980    
 2.67732922E-06 8.93783714E-09 9.44208034E+08 9.44176958E+08  130.26576      30945.116    
 2.69526477E-06 8.99771211E-09 9.62859864E+08 9.62828159E+08  133.68636      31571.206    
 2.71332047E-06 9.05798819E-09 9.82784216E+08 9.82751847E+08  137.45301      32231.973    
 2.73149713E-06 9.11866806E-09 1.00226963E+09 1.00223662E+09  141.08362      32868.993    
 2.74979555E-06 9.17975443E-09 1.02243031E+09 1.02239665E+09  144.89252      33520.046    
 2.76821656E-06 9.24125002E-09 1.04328758E+09 1.04325325E+09  148.88910      34187.477    
 2.78676096E-06 9.30315757E-09 1.06389485E+09 1.06385982E+09  152.79919      34869.572    
 2.80542960E-06 9.36547984E-09 1.08575547E+09 1.08571970E+09  157.05994      35612.030    
 2.82422330E-06 9.42821962E-09 1.10743297E+09 1.10739647E+09  161.25369      36338.945    
 2.84314290E-06 9.49137968E-09 1.12954902E+09 1.12951178E+09  165.56053      37071.754    
 2.86218924E-06 9.55496287E-09 1.15274737E+09 1.15270937E+09  170.17473      37829.779    
 2.88136318E-06 9.61897199E-09 1.17551462E+09 1.17547588E+09  174.64435      38564.607    
 2.90066556E-06 9.68340992E-09 1.19949823E+09 1.19945872E+09  179.46357      39333.410    
 2.92009725E-06 9.74827952E-09 1.22361254E+09 1.22357222E+09  184.30719      40137.017    
 2.93965911E-06 9.81358368E-09 1.24787214E+09 1.24783099E+09  189.17655      40959.559    
 2.95935202E-06 9.87932532E-09 1.27367242E+09 1.27363040E+09  194.50322      41825.918    
 2.97917685E-06 9.94550737E-09 1.29882562E+09 1.29878276E+09  199.61243      42657.994    
 2.99913449E-06 1.00121328E-08 1.32513690E+09 1.32509318E+09  205.06277      43517.831    
 3.01922583E-06 1.00792045E-08 1.35195984E+09 1.35191525E+09  210.65628      44382.089    
 3.03945176E-06 1.01467255E-08 1.37865253E+09 1.37860707E+09  216.18770      45240.461    
 3.05981319E-06 1.02146989E-08 1.40717694E+09 1.40713053E+09  222.28270      46195.462    
 3.08031101E-06 1.02831276E-08 1.43504956E+09 1.43500219E+09  228.14983      47140.807    
 3.10094616E-06 1.03520148E-08 1.46391270E+09 1.46386435E+09  234.31334      48108.906    
 3.12171953E-06 1.04213634E-08 1.49374628E+09 1.49369695E+09  240.77206      49095.847    
 3.14263207E-06 1.04911766E-08 1.52323532E+09 1.52318501E+09  247.09501      50059.128    
 3.16368471E-06 1.05614574E-08 1.55452972E+09 1.55447840E+09  253.98956      51066.905    
 3.18487837E-06 1.06322091E-08 1.58553551E+09 1.58548318E+09  260.76676      52068.050    
 3.20621402E-06 1.07034348E-08 1.61719605E+09 1.61714265E+09  267.73605      53130.917    
 3.22769259E-06 1.07751376E-08 1.65037563E+09 1.65032110E+09  275.19294      54258.704    
 3.24931505E-06 1.08473207E-08 1.68295326E+09 1.68289763E+09  282.42067      55349.460    
 3.27108236E-06 1.09199874E-08 1.71728466E+09 1.71722789E+09  290.21892      56485.305    
 3.29299549E-06 1.09931409E-08 1.75177313E+09 1.75171523E+09  298.04637      57610.390    
 3.31505541E-06 1.10667844E-08 1.78650000E+09 1.78644096E+09  305.92597      58730.181    
 3.33726312E-06 1.11409213E-08 1.82339790E+09 1.82333767E+09  314.53428      59922.708    
 3.35961959E-06 1.12155548E-08 1.85938680E+09 1.85932534E+09  322.79626      61139.006    
 3.38212584E-06 1.12906884E-08 1.89704763E+09 1.89698488E+09  331.61581      62418.245    
 3.40478285E-06 1.13663252E-08 1.93540692E+09 1.93534287E+09  340.65515      63702.792    
 3.42759164E-06 1.14424687E-08 1.97359674E+09 1.97353142E+09  349.59984      64965.545    
 3.45055323E-06 1.15191223E-08 2.01442192E+09 2.01435527E+09  359.46234      66296.747    
 3.47366865E-06 1.15962894E-08 2.05428094E+09 2.05421299E+09  368.94362      67580.815    
 3.49693891E-06 1.16739735E-08 2.09559143E+09 2.09552213E+09  378.91723      68920.151    
 3.52036506E-06 1.17521780E-08 2.13825253E+09 2.13818177E+09  389.35482      70370.966    
 3.54394814E-06 1.18309064E-08 2.18043976E+09 2.18036756E+09  399.57945      71800.815    
 3.56768921E-06 1.19101621E-08 2.22522633E+09 2.22515262E+09  410.73577      73301.616    
 3.59158932E-06 1.19899488E-08 2.26956216E+09 2.26948698E+09  421.68778      74765.730    
 3.61564954E-06 1.20702701E-08 2.31487323E+09 2.31479655E+09  432.96530      76244.255    
 3.63987094E-06 1.21511293E-08 2.36231464E+09 2.36223642E+09  445.01602      77769.347    
 3.66425460E-06 1.22325303E-08 2.40891645E+09 2.40883670E+09  456.70371      79289.862    
 3.68880161E-06 1.23144766E-08 2.45804572E+09 2.45796429E+09  469.32237      80966.387    
 3.71351306E-06 1.23969718E-08 2.50735708E+09 2.50727396E+09  481.97165      82637.689    
 3.73839005E-06 1.24800197E-08 2.55705298E+09 2.55696819E+09  494.72225      84301.153    
 3.76343369E-06 1.25636239E-08 2.60980623E+09 2.60971968E+09  508.63379      86043.637    
 3.78864510E-06 1.26477882E-08 2.66128334E+09 2.66119509E+09  521.99388      87721.820    
 3.81402541E-06 1.27325163E-08 2.71517287E+09 2.71508288E+09  536.26517      89455.527    
 3.83957574E-06 1.28178120E-08 2.77001343E+09 2.76992162E+09  550.87293      91259.604    
 3.86529723E-06 1.29036791E-08 2.82463594E+09 2.82454225E+09  565.33698      93121.691    
 3.89119103E-06 1.29901214E-08 2.88304825E+09 2.88295256E+09  581.29559      95105.168    
 3.91725829E-06 1.30771428E-08 2.94003103E+09 2.93993342E+09  596.61715      97009.782    
 3.94350018E-06 1.31647472E-08 2.99913842E+09 2.99903885E+09  612.75592      98962.431    
 3.96991787E-06 1.32529384E-08 3.06012310E+09 3.06002152E+09  629.62336      100948.62    
 3.99651253E-06 1.33417205E-08 3.12045738E+09 3.12035384E+09  646.15707      102893.41    
 4.02328535E-06 1.34310972E-08 3.18453226E+09 3.18442659E+09  664.20926      105012.38    
 4.05023752E-06 1.35210728E-08 3.24790886E+09 3.24780100E+09  681.90756      107178.01    
 4.07737024E-06 1.36116511E-08 3.31273511E+09 3.31262504E+09  700.15633      109375.56    
 4.10468473E-06 1.37028361E-08 3.38054663E+09 3.38043427E+09  719.63069      111644.45    
 4.13218219E-06 1.37946320E-08 3.44718830E+09 3.44707372E+09  738.53017      113844.34    
