 OPTXAGNF AGN Spectrum Model Parameters: BLS, Astar 0.0                          
 M_BH:  1.0000E+08 M_0            L  :  0.5000     L/Ledd 
 D   :  1.5000E+18 cm             z  :   0.000     redshift 
 Rcor:   60.00     Rg             Ro :   4.000     Rg 
 C_T :  0.2000     keV            Tau:   15.00     Optical Depth 
 gam :   1.800     (-slope)       fpl:  0.5000     Fraction 
 E              0.5DeltaE      E.FE total     E.FE Disk      E.FE Compton   E.FE NonThermal
 (keV)          (keV)          E.E/cm2/s/E    E.E/cm2/s/E    E.E/cm2/s/E    E.E/cm2/s/E    
 1.00334952E-06 3.34952256E-09  62493607.      62491027.      6.1786796      2573.0981    
 1.01007101E-06 3.37196116E-09  63731811.      63729178.      6.3410069      2625.9220    
 1.01683752E-06 3.39455008E-09  65022160.      65019473.      6.5131231      2680.3803    
 1.02364936E-06 3.41729032E-09  66348118.      66345376.      6.6918587      2735.5619    
 1.03050683E-06 3.44018290E-09  67662451.      67659654.      6.8676017      2789.6136    
 1.03741024E-06 3.46322884E-09  69062026.      69059170.      7.0601099      2848.8050    
 1.04435990E-06 3.48642917E-09  70440174.      70437258.      7.2476299      2908.9262    
 1.05135611E-06 3.50978492E-09  71856215.      71853237.      7.4422590      2970.2173    
 1.05839920E-06 3.53329712E-09  73331707.      73328666.      7.6486312      3033.2811    
 1.06548946E-06 3.55696684E-09  74784399.      74781296.      7.8495257      3094.4592    
 1.07262722E-06 3.58079512E-09  76320500.      76317334.      8.0672791      3158.3659    
 1.07981280E-06 3.60478303E-09  77854310.      77851080.      8.2838742      3221.5476    
 1.08704652E-06 3.62893164E-09  79408205.      79404909.      8.5039384      3287.4515    
 1.09432869E-06 3.65324201E-09  81050000.      81046632.      8.7421930      3359.3094    
 1.10165965E-06 3.67771524E-09  82655605.      82652168.      8.9718381      3428.6060    
 1.10903971E-06 3.70235243E-09  84341474.      84337965.      9.2181238      3500.6032    
 1.11646922E-06 3.72715465E-09  86048429.      86044847.      9.4682712      3572.4461    
 1.12394850E-06 3.75212303E-09  87753513.      87749860.      9.7170686      3643.3265    
 1.13147788E-06 3.77725867E-09  89580241.      89576512.      9.9920997      3718.6321    
 1.13905770E-06 3.80256270E-09  91354843.      91351039.      10.254610      3794.4425    
 1.14668830E-06 3.82803623E-09  93204991.      93201105.      10.533139      3875.2650    
 1.15437002E-06 3.85368042E-09  95104522.      95100554.      10.822001      3957.3482    
 1.16210319E-06 3.87949640E-09  96988212.      96984163.      11.106207      4037.5974    
 1.16988818E-06 3.90548532E-09  98994911.      98990777.      11.417730      4122.0607    
 1.17772531E-06 3.93164835E-09 1.00969168E+08 1.00964952E+08  11.720781      4203.9726    
 1.18561494E-06 3.95798663E-09 1.02999496E+08 1.02995196E+08  12.035744      4287.8189    
 1.19355743E-06 3.98450137E-09 1.05113199E+08 1.05108808E+08  12.369273      4378.6355    
 1.20155313E-06 4.01119372E-09 1.07195138E+08 1.07190656E+08  12.694152      4469.4279    
 1.20960239E-06 4.03806489E-09 1.09397555E+08 1.09392977E+08  13.046529      4564.6124    
 1.21770557E-06 4.06511607E-09 1.11594766E+08 1.11590094E+08  13.396571      4658.1195    
 1.22586303E-06 4.09234846E-09 1.13822716E+08 1.13817951E+08  13.752697      4751.7854    
 1.23407514E-06 4.11976329E-09 1.16174597E+08 1.16169733E+08  14.137754      4849.2737    
 1.24234227E-06 4.14736177E-09 1.18475628E+08 1.18470669E+08  14.509128      4944.5930    
 1.25066478E-06 4.17514513E-09 1.20892730E+08 1.20887667E+08  14.907679      5048.7397    
 1.25904304E-06 4.20311462E-09 1.23337922E+08 1.23332751E+08  15.311948      5155.5474    
 1.26747742E-06 4.23127147E-09 1.25782607E+08 1.25777331E+08  15.714574      5260.8959    
 1.27596831E-06 4.25961695E-09 1.28399356E+08 1.28393967E+08  16.159071      5372.3384    
 1.28451608E-06 4.28815232E-09 1.30942525E+08 1.30937029E+08  16.583593      5479.0433    
 1.29312111E-06 4.31687884E-09 1.33595105E+08 1.33589499E+08  17.034324      5588.9796    
 1.30178379E-06 4.34579781E-09 1.36316089E+08 1.36310369E+08  17.501164      5701.9442    
 1.31050450E-06 4.37491051E-09 1.39015556E+08 1.39009719E+08  17.960769      5818.6561    
 1.31928362E-06 4.40421823E-09 1.41892509E+08 1.41886546E+08  18.464883      5944.5039    
 1.32812156E-06 4.43372228E-09 1.44720496E+08 1.44714411E+08  18.954643      6066.1675    
 1.33701871E-06 4.46342399E-09 1.47631358E+08 1.47625148E+08  19.464335      6189.9453    
 1.34597546E-06 4.49332467E-09 1.50659062E+08 1.50652726E+08  20.003366      6316.9093    
 1.35499221E-06 4.52342565E-09 1.53642555E+08 1.53636094E+08  20.528747      6440.4957    
 1.36406936E-06 4.55372829E-09 1.56800030E+08 1.56793438E+08  21.098975      6571.7113    
 1.37320733E-06 4.58423392E-09 1.59947306E+08 1.59940575E+08  21.664680      6708.7800    
 1.38240650E-06 4.61494391E-09 1.63141436E+08 1.63134566E+08  22.240988      6848.0361    
 1.39166731E-06 4.64585962E-09 1.66510236E+08 1.66503220E+08  22.863300      6993.1420    
 1.40099015E-06 4.67698245E-09 1.69807623E+08 1.69800467E+08  23.463868      7133.0752    
 1.41037545E-06 4.70831376E-09 1.73272812E+08 1.73265510E+08  24.108819      7278.3232    
 1.41982361E-06 4.73985497E-09 1.76775194E+08 1.76767747E+08  24.762165      7423.0963    
 1.42933508E-06 4.77160747E-09 1.80279969E+08 1.80272374E+08  25.413727      7569.1052    
 1.43891026E-06 4.80357269E-09 1.84028065E+08 1.84020305E+08  26.132106      7733.3749    
 1.44854958E-06 4.83575204E-09 1.87672342E+08 1.87664423E+08  26.818622      7891.8497    
 1.45825348E-06 4.86814696E-09 1.91475046E+08 1.91466963E+08  27.548017      8055.4322    
 1.46802239E-06 4.90075889E-09 1.95372371E+08 1.95364122E+08  28.302488      8220.7359    
 1.47785673E-06 4.93358930E-09 1.99240546E+08 1.99232135E+08  29.045740      8382.7610    
 1.48775696E-06 4.96663964E-09 2.03364754E+08 2.03356171E+08  29.861504      8553.0026    
 1.49772351E-06 4.99991138E-09 2.07415263E+08 2.07406509E+08  30.652999      8723.3099    
 1.50775683E-06 5.03340601E-09 2.11588144E+08 2.11579207E+08  31.477811      8905.8089    
 1.51785736E-06 5.06712502E-09 2.15924679E+08 2.15915552E+08  32.348957      9094.6923    
 1.52802556E-06 5.10106992E-09 2.20199740E+08 2.20190429E+08  33.198576      9278.1853    
 1.53826187E-06 5.13524222E-09 2.24725998E+08 2.24716494E+08  34.121332      9470.1093    
 1.54856676E-06 5.16964344E-09 2.29233695E+08 2.29224001E+08  35.035566      9658.5640    
 1.55894067E-06 5.20427512E-09 2.33812539E+08 2.33802655E+08  35.968184      9847.7233    
 1.56938409E-06 5.23913879E-09 2.38637471E+08 2.38627382E+08  36.973930      10051.751    
 1.57989746E-06 5.27423602E-09 2.43362177E+08 2.43351881E+08  37.945137      10258.453    
 1.59048127E-06 5.30956836E-09 2.48329432E+08 2.48318918E+08  38.988816      10474.667    
 1.60113597E-06 5.34513740E-09 2.53345605E+08 2.53334875E+08  40.044692      10689.820    
 1.61186206E-06 5.38094472E-09 2.58369663E+08 2.58358719E+08  41.099097      10902.649    
 1.62265999E-06 5.41699191E-09 2.63737673E+08 2.63726504E+08  42.260107      11126.816    
 1.63353026E-06 5.45328058E-09 2.68959255E+08 2.68947869E+08  43.370302      11342.783    
 1.64447336E-06 5.48981235E-09 2.74410185E+08 2.74398567E+08  44.550636      11574.183    
 1.65548976E-06 5.52658885E-09 2.79991836E+08 2.79979971E+08  45.769949      11818.929    
 1.66657996E-06 5.56361172E-09 2.85534144E+08 2.85522037E+08  46.971894      12059.525    
 1.67774445E-06 5.60088261E-09 2.91445725E+08 2.91433364E+08  48.291969      12313.162    
 1.68898374E-06 5.63840317E-09 2.97246645E+08 2.97234037E+08  49.571084      12558.419    
 1.70029832E-06 5.67617509E-09 3.03228043E+08 3.03215184E+08  50.905833      12808.250    
 1.71168869E-06 5.71420004E-09 3.09438503E+08 3.09425386E+08  52.313714      13065.120    
 1.72315537E-06 5.75247973E-09 3.15563596E+08 3.15550216E+08  53.687668      13326.555    
 1.73469887E-06 5.79101585E-09 3.22051301E+08 3.22037635E+08  55.180882      13611.324    
 1.74631969E-06 5.82981012E-09 3.28506787E+08 3.28492839E+08  56.658363      13891.261    
 1.75801837E-06 5.86886429E-09 3.35069947E+08 3.35055717E+08  58.167576      14172.434    
 1.76979541E-06 5.90818007E-09 3.41979645E+08 3.41965121E+08  59.792996      14464.405    
 1.78165135E-06 5.94775924E-09 3.48748737E+08 3.48733929E+08  61.363572      14746.817    
 1.79358672E-06 5.98760354E-09 3.55868329E+08 3.55853224E+08  63.052475      15041.620    
 1.80560203E-06 6.02771477E-09 3.63051759E+08 3.63036344E+08  64.758871      15350.222    
 1.81769784E-06 6.06809470E-09 3.70252884E+08 3.70237151E+08  66.465173      15665.711    
 1.82987468E-06 6.10874514E-09 3.77940067E+08 3.77923999E+08  68.341531      15999.472    
 1.84213310E-06 6.14966790E-09 3.85420812E+08 3.85404422E+08  70.136867      16319.285    
 1.85447363E-06 6.19086481E-09 3.93233458E+08 3.93216737E+08  72.046916      16649.297    
 1.86689683E-06 6.23233769E-09 4.01226392E+08 4.01209336E+08  74.017454      16982.142    
 1.87940326E-06 6.27408840E-09 4.09166442E+08 4.09149055E+08  75.961159      17311.659    
 1.89199346E-06 6.31611880E-09 4.17638989E+08 4.17621233E+08  78.097297      17677.254    
 1.90466801E-06 6.35843077E-09 4.25945782E+08 4.25927661E+08  80.164432      18041.352    
 1.91742747E-06 6.40102618E-09 4.34518505E+08 4.34500010E+08  82.324369      18412.875    
 1.93027240E-06 6.44390694E-09 4.43411612E+08 4.43392734E+08  84.599665      18793.040    
 1.94320339E-06 6.48707497E-09 4.52186279E+08 4.52167029E+08  86.821527      19163.312    
 1.95622099E-06 6.53053217E-09 4.61484235E+08 4.61464595E+08  89.237850      19550.204    
 1.96932581E-06 6.57428050E-09 4.70727991E+08 4.70707964E+08  91.625571      19934.893    
 1.98251841E-06 6.61832191E-09 4.80134227E+08 4.80113791E+08  94.067842      20341.970    
 1.99579939E-06 6.66265834E-09 4.90028249E+08 4.90007376E+08  96.694720      20776.464    
 2.00916934E-06 6.70729179E-09 4.99725164E+08 4.99703869E+08  99.234542      21195.763    
 2.02262885E-06 6.75222424E-09 5.09928443E+08 5.09906709E+08  101.96754      21631.770    
 2.03617854E-06 6.79745770E-09 5.20214185E+08 5.20192015E+08  104.72522      22065.101    
 2.04981899E-06 6.84299417E-09 5.30534405E+08 5.30511803E+08  107.48644      22494.862    
 2.06355082E-06 6.88883570E-09 5.41541253E+08 5.41518190E+08  110.51888      22952.843    
 2.07737464E-06 6.93498432E-09 5.52257221E+08 5.52233687E+08  113.42216      23419.987    
 2.09129106E-06 6.98144209E-09 5.63453386E+08 5.63429359E+08  116.51304      23910.980    
 2.10530072E-06 7.02821109E-09 5.74897817E+08 5.74873291E+08  119.69761      24405.815    
 2.11940422E-06 7.07529339E-09 5.86271474E+08 5.86246460E+08  122.84082      24891.264    
 2.13360221E-06 7.12269110E-09 5.98412760E+08 5.98387232E+08  126.29748      25402.372    
 2.14789530E-06 7.17040633E-09 6.10306284E+08 6.10280258E+08  129.63808      25896.698    
 2.16228415E-06 7.21844121E-09 6.22591264E+08 6.22564721E+08  133.13334      26409.215    
 2.17676939E-06 7.26679787E-09 6.35324058E+08 6.35296953E+08  136.81045      26967.717    
 2.19135167E-06 7.31547848E-09 6.47892764E+08 6.47865107E+08  140.40347      27517.432    
 2.20603163E-06 7.36448520E-09 6.61216459E+08 6.61188222E+08  144.31353      28093.588    
 2.22080994E-06 7.41382021E-09 6.74451012E+08 6.74422206E+08  148.17224      28657.546    
 2.23568724E-06 7.46348573E-09 6.87929998E+08 6.87900621E+08  152.12440      29225.063    
 2.25066421E-06 7.51348396E-09 7.02095218E+08 7.02065249E+08  156.36972      29812.541    
 2.26574151E-06 7.56381713E-09 7.15984333E+08 7.15953776E+08  160.47691      30396.387    
 2.28091982E-06 7.61448748E-09 7.30604814E+08 7.30573611E+08  164.89943      31038.282    
 2.29619980E-06 7.66549727E-09 7.45330591E+08 7.45298739E+08  169.35604      31682.151    
 2.31158215E-06 7.71684879E-09 7.60118835E+08 7.60086340E+08  173.82436      32320.588    
 2.32706754E-06 7.76854430E-09 7.75876646E+08 7.75843476E+08  178.72514      32991.902    
 2.34265667E-06 7.82058613E-09 7.91224720E+08 7.91190900E+08  183.42007      33637.125    
 2.35835023E-06 7.87297659E-09 8.07267298E+08 8.07232807E+08  188.42173      34302.732    
 2.37414893E-06 7.92571802E-09 8.23651165E+08 8.23615976E+08  193.56825      34996.115    
 2.39005346E-06 7.97881276E-09 8.39940853E+08 8.39904944E+08  198.65117      35710.817    
 2.40606454E-06 8.03226319E-09 8.57336879E+08 8.57300203E+08  204.24463      36472.325    
 2.42218287E-06 8.08607168E-09 8.74363329E+08 8.74325913E+08  209.64318      37206.022    
 2.43840918E-06 8.14024064E-09 8.91965435E+08 8.91927265E+08  215.29924      37955.604    
 2.45474420E-06 8.19477248E-09 9.10192871E+08 9.10153929E+08  221.24178      38720.742    
 2.47118864E-06 8.24966963E-09 9.28193280E+08 9.28153584E+08  227.05206      39468.549    
 2.48774324E-06 8.30493454E-09 9.47282680E+08 9.47242167E+08  233.37924      40279.787    
 2.50440875E-06 8.36056967E-09 9.66228024E+08 9.66186671E+08  239.61510      41113.094    
 2.52118589E-06 8.41657750E-09 9.85540203E+08 9.85498000E+08  246.01055      41956.596    
 2.53807543E-06 8.47296053E-09 1.00581731E+09 1.00577422E+09  252.87140      42830.759    
 2.55507811E-06 8.52972128E-09 1.02570789E+09 1.02566395E+09  259.51314      43676.636    
 2.57219470E-06 8.58686227E-09 1.04665439E+09 1.04660957E+09  266.66958      44555.708    
 2.58942595E-06 8.64438604E-09 1.06773334E+09 1.06768763E+09  273.87173      45431.746    
 2.60677263E-06 8.70229518E-09 1.08892050E+09 1.08887388E+09  281.10246      46335.942    
 2.62423551E-06 8.76059224E-09 1.11147623E+09 1.11142861E+09  289.02262      47330.797    
 2.64181539E-06 8.81927985E-09 1.13345516E+09 1.13340657E+09  296.61479      48288.634    
 2.65951303E-06 8.87836060E-09 1.15643822E+09 1.15638863E+09  304.70841      49278.897    
 2.67732922E-06 8.93783714E-09 1.17988948E+09 1.17983889E+09  313.02553      50275.088    
 2.69526477E-06 8.99771211E-09 1.20321608E+09 1.20316451E+09  321.24509      51254.371    
 2.71332047E-06 9.05798819E-09 1.22813669E+09 1.22808407E+09  330.29618      52289.649    
 2.73149713E-06 9.11866806E-09 1.25250713E+09 1.25245345E+09  339.02037      53337.711    
 2.74979555E-06 9.17975443E-09 1.27772335E+09 1.27766855E+09  348.17298      54448.672    
 2.76821656E-06 9.24125002E-09 1.30381210E+09 1.30375616E+09  357.77655      55586.591    
 2.78676096E-06 9.30315757E-09 1.32958722E+09 1.32953016E+09  367.17231      56695.501    
 2.80542960E-06 9.36547984E-09 1.35693252E+09 1.35687429E+09  377.41070      57856.745    
 2.82422330E-06 9.42821962E-09 1.38404804E+09 1.38398866E+09  387.48807      58992.805    
 2.84314290E-06 9.49137968E-09 1.41171277E+09 1.41165222E+09  397.83718      60144.840    
 2.86218924E-06 9.55496287E-09 1.44073356E+09 1.44067176E+09  408.92486      61399.174    
 2.88136318E-06 9.61897199E-09 1.46921378E+09 1.46915071E+09  419.66513      62653.627    
 2.90066556E-06 9.68340992E-09 1.49921806E+09 1.49915366E+09  431.24546      63962.131    
 2.92009725E-06 9.74827952E-09 1.52938573E+09 1.52932003E+09  442.88441      65258.695    
 2.93965911E-06 9.81358368E-09 1.55973507E+09 1.55966807E+09  454.58523      66547.459    
 2.95935202E-06 9.87932532E-09 1.59201516E+09 1.59194680E+09  467.38491      67897.764    
 2.97917685E-06 9.94550737E-09 1.62348377E+09 1.62341408E+09  479.66207      69212.039    
 2.99913449E-06 1.00121328E-08 1.65640368E+09 1.65633255E+09  492.75893      70640.072    
 3.01922583E-06 1.00792045E-08 1.68996465E+09 1.68989202E+09  506.19982      72120.808    
 3.03945176E-06 1.01467255E-08 1.72336183E+09 1.72328773E+09  519.49149      73574.514    
 3.05981319E-06 1.02146989E-08 1.75905490E+09 1.75897925E+09  534.13742      75108.837    
 3.08031101E-06 1.02831276E-08 1.79393032E+09 1.79385318E+09  548.23578      76587.215    
 3.10094616E-06 1.03520148E-08 1.83004710E+09 1.82996844E+09  563.04633      78099.286    
 3.12171953E-06 1.04213634E-08 1.86738021E+09 1.86729997E+09  578.56623      79659.336    
 3.14263207E-06 1.04911766E-08 1.90428085E+09 1.90419899E+09  593.75988      81269.215    
 3.16368471E-06 1.05614574E-08 1.94344481E+09 1.94336120E+09  610.32706      82998.607    
 3.18487837E-06 1.06322091E-08 1.98224633E+09 1.98216102E+09  626.61225      84685.503    
 3.20621402E-06 1.07034348E-08 2.02186825E+09 2.02178122E+09  643.35901      86387.607    
 3.22769259E-06 1.07751376E-08 2.06339460E+09 2.06330580E+09  661.27740      88146.379    
 3.24931505E-06 1.08473207E-08 2.10416545E+09 2.10407492E+09  678.64517      89852.637    
 3.27108236E-06 1.09199874E-08 2.14713524E+09 2.14704289E+09  697.38385      91649.968    
 3.29299549E-06 1.09931409E-08 2.19030158E+09 2.19020732E+09  716.19268      93548.096    
 3.31505541E-06 1.10667844E-08 2.23376627E+09 2.23367007E+09  735.12682      95462.598    
 3.33726312E-06 1.11409213E-08 2.27995355E+09 2.27985533E+09  755.81198      97472.596    
 3.35961959E-06 1.12155548E-08 2.32499985E+09 2.32489967E+09  775.66494      99404.607    
 3.38212584E-06 1.12906884E-08 2.37214273E+09 2.37204054E+09  796.85768      101401.51    
 3.40478285E-06 1.13663252E-08 2.42016118E+09 2.42005696E+09  818.57855      103407.01    
 3.42759164E-06 1.14424687E-08 2.46796629E+09 2.46786003E+09  840.07202      105418.09    
 3.45055323E-06 1.15191223E-08 2.51907717E+09 2.51896863E+09  863.77087      107674.08    
 3.47366865E-06 1.15962894E-08 2.56897514E+09 2.56886439E+09  886.55368      109868.00    
 3.49693891E-06 1.16739735E-08 2.62069342E+09 2.62058039E+09  910.51949      112116.52    
 3.52036506E-06 1.17521780E-08 2.67410556E+09 2.67399022E+09  935.60023      114406.55    
 3.54394814E-06 1.18309064E-08 2.72692219E+09 2.72680459E+09  960.16922      116643.21    
 3.56768921E-06 1.19101621E-08 2.78299986E+09 2.78287989E+09  986.97697      118983.41    
 3.59158932E-06 1.19899488E-08 2.83851114E+09 2.83838879E+09  1013.2938      121338.73    
 3.61564954E-06 1.20702701E-08 2.89524548E+09 2.89512060E+09  1040.3928      123840.38    
 3.63987094E-06 1.21511293E-08 2.95465273E+09 2.95452520E+09  1069.3497      126457.03    
 3.66425460E-06 1.22325303E-08 3.01300516E+09 3.01287508E+09  1097.4342      128989.69    
 3.68880161E-06 1.23144766E-08 3.07452891E+09 3.07439615E+09  1127.7558      131627.48    
 3.71351306E-06 1.23969718E-08 3.13628028E+09 3.13614488E+09  1158.1510      134238.36    
 3.73839005E-06 1.24800197E-08 3.19851325E+09 3.19837523E+09  1188.7896      136839.41    
 3.76343369E-06 1.25636239E-08 3.26458340E+09 3.26444252E+09  1222.2178      139655.82    
 3.78864510E-06 1.26477882E-08 3.32905054E+09 3.32890678E+09  1254.3209      142504.70    
 3.81402541E-06 1.27325163E-08 3.39654529E+09 3.39639852E+09  1288.6136      145475.72    
 3.83957574E-06 1.28178120E-08 3.46523296E+09 3.46508318E+09  1323.7147      148456.43    
 3.86529723E-06 1.29036791E-08 3.53364546E+09 3.53349272E+09  1358.4706      151388.45    
 3.89119103E-06 1.29901214E-08 3.60681553E+09 3.60665965E+09  1396.8176      154479.53    
 3.91725829E-06 1.30771428E-08 3.67818935E+09 3.67803045E+09  1433.6339      157465.99    
 3.94350018E-06 1.31647472E-08 3.75222997E+09 3.75206786E+09  1472.4139      160635.62    
 3.96991787E-06 1.32529384E-08 3.82862715E+09 3.82846161E+09  1512.9448      164022.14    
 3.99651253E-06 1.33417205E-08 3.90420609E+09 3.90403719E+09  1552.6737      167342.15    
 4.02328535E-06 1.34310972E-08 3.98448170E+09 3.98430928E+09  1596.0514      170827.29    
 4.05023752E-06 1.35210728E-08 4.06387881E+09 4.06370295E+09  1638.5787      174225.06    
 4.07737024E-06 1.36116511E-08 4.14509524E+09 4.14491590E+09  1682.4287      177659.18    
 4.10468473E-06 1.37028361E-08 4.23006034E+09 4.22987739E+09  1729.2236      181213.10    
 4.13218219E-06 1.37946320E-08 4.31355443E+09 4.31336785E+09  1774.6372      184810.34    
