 OPTXAGNF AGN Spectrum Model Parameters: BLS, Astar 0.0                          
 M_BH:  1.0000E+08 M_0            L  :  0.2000     L/Ledd 
 D   :  1.5000E+18 cm             z  :   0.000     redshift 
 Rcor:   60.00     Rg             Ro :   4.000     Rg 
 C_T :  0.2000     keV            Tau:   15.00     Optical Depth 
 gam :   1.800     (-slope)       fpl:  0.5000     Fraction 
 E              0.5DeltaE      E.FE total     E.FE Disk      E.FE Compton   E.FE NonThermal
 (keV)          (keV)          E.E/cm2/s/E    E.E/cm2/s/E    E.E/cm2/s/E    E.E/cm2/s/E    
 1.00334952E-06 3.34952256E-09  49669871.      49666526.      12.773592      3331.9058    
 1.01007101E-06 3.37196116E-09  50653692.      50650280.      13.109173      3398.7020    
 1.01683752E-06 3.39455008E-09  51678923.      51675442.      13.464990      3467.4926    
 1.02364936E-06 3.41729032E-09  52732432.      52728881.      13.834492      3537.1744    
 1.03050683E-06 3.44018290E-09  53776715.      53773095.      14.197806      3606.0854    
 1.03741024E-06 3.46322884E-09  54888687.      54884990.      14.595779      3682.4330    
 1.04435990E-06 3.48642917E-09  55983651.      55979877.      14.983439      3758.6714    
 1.05135611E-06 3.50978492E-09  57108706.      57104854.      15.385796      3836.1041    
 1.05839920E-06 3.53329712E-09  58280968.      58277036.      15.812429      3915.7053    
 1.06548946E-06 3.55696684E-09  59435132.      59431122.      16.227737      3993.0444    
 1.07262722E-06 3.58079512E-09  60655524.      60651434.      16.677898      4073.7084    
 1.07981280E-06 3.60478303E-09  61874103.      61869932.      17.125663      4154.3581    
 1.08704652E-06 3.62893164E-09  63108636.      63104379.      17.580600      4239.3298    
 1.09432869E-06 3.65324201E-09  64412959.      64408611.      18.073140      4330.3198    
 1.10165965E-06 3.67771524E-09  65688557.      65684121.      18.547883      4417.9030    
 1.10903971E-06 3.70235243E-09  67027882.      67023354.      19.057025      4508.7947    
 1.11646922E-06 3.72715465E-09  68383951.      68379332.      19.574150      4599.5198    
 1.12394850E-06 3.75212303E-09  69738543.      69733834.      20.088485      4689.1013    
 1.13147788E-06 3.77725867E-09  71189709.      71184903.      20.657050      4785.1503    
 1.13905770E-06 3.80256270E-09  72599505.      72594601.      21.199731      4882.8720    
 1.14668830E-06 3.82803623E-09  74069279.      74064272.      21.775527      4985.2125    
 1.15437002E-06 3.85368042E-09  75578260.      75573149.      22.372683      5088.8303    
 1.16210319E-06 3.87949640E-09  77074674.      77069461.      22.960214      5190.2349    
 1.16988818E-06 3.90548532E-09  78668740.      78663420.      23.604214      5296.8013    
 1.17772531E-06 3.93164835E-09  80237061.      80231637.      24.230702      5400.3080    
 1.18561494E-06 3.95798663E-09  81849900.      81844367.      24.881813      5507.3511    
 1.19355743E-06 3.98450137E-09  83528930.      83523280.      25.571304      5624.4036    
 1.20155313E-06 4.01119372E-09  85182754.      85176989.      26.242914      5739.2367    
 1.20960239E-06 4.03806489E-09  86932215.      86926329.      26.971368      5859.3497    
 1.21770557E-06 4.06511607E-09  88677552.      88671547.      27.694995      5977.4330    
 1.22586303E-06 4.09234846E-09  90447297.      90441173.      28.431197      6095.7383    
 1.23407514E-06 4.11976329E-09  92315414.      92309166.      29.227206      6218.7384    
 1.24234227E-06 4.14736177E-09  94143185.      94136814.      29.994928      6340.9147    
 1.25066478E-06 4.17514513E-09  96063092.      96056586.      30.818831      6474.9073    
 1.25904304E-06 4.20311462E-09  98005301.      97998659.      31.654554      6609.7424    
 1.26747742E-06 4.23127147E-09  99947118.      99940343.      32.486880      6742.8147    
 1.27596831E-06 4.25961695E-09 1.02025503E+08 1.02018586E+08  33.405760      6883.3853    
 1.28451608E-06 4.28815232E-09 1.04045502E+08 1.04038450E+08  34.283347      7018.1742    
 1.29312111E-06 4.31687884E-09 1.06152345E+08 1.06145153E+08  35.215115      7156.9513    
 1.30178379E-06 4.34579781E-09 1.08313486E+08 1.08306147E+08  36.180180      7302.3886    
 1.31050450E-06 4.37491051E-09 1.10457566E+08 1.10450077E+08  37.130292      7451.8814    
 1.31928362E-06 4.40421823E-09 1.12742507E+08 1.12734858E+08  38.172408      7610.6389    
 1.32812156E-06 4.43372228E-09 1.14988601E+08 1.14980797E+08  39.184853      7764.2762    
 1.33701871E-06 4.46342399E-09 1.17300474E+08 1.17292513E+08  40.238501      7920.5423    
 1.34597546E-06 4.49332467E-09 1.19705079E+08 1.19696957E+08  41.352795      8080.7483    
 1.35499221E-06 4.52342565E-09 1.22074614E+08 1.22066334E+08  42.438873      8237.0169    
 1.36406936E-06 4.55372829E-09 1.24582225E+08 1.24573775E+08  43.617655      8406.4787    
 1.37320733E-06 4.58423392E-09 1.27081756E+08 1.27073130E+08  44.787089      8581.1110    
 1.38240650E-06 4.61494391E-09 1.29618481E+08 1.29609678E+08  45.978439      8756.9341    
 1.39166731E-06 4.64585962E-09 1.32293816E+08 1.32284829E+08  47.264886      8939.9904    
 1.40099015E-06 4.67698245E-09 1.34912501E+08 1.34903336E+08  48.506386      9116.7063    
 1.41037545E-06 4.70831376E-09 1.37664345E+08 1.37654995E+08  49.839630      9299.9952    
 1.41982361E-06 4.73985497E-09 1.40445715E+08 1.40436180E+08  51.190226      9483.4873    
 1.42933508E-06 4.77160747E-09 1.43229005E+08 1.43219280E+08  52.537135      9672.3533    
 1.43891026E-06 4.80357269E-09 1.46205364E+08 1.46195429E+08  54.022163      9880.8097    
 1.44854958E-06 4.83575204E-09 1.49099370E+08 1.49089234E+08  55.441325      10080.920    
 1.45825348E-06 4.86814696E-09 1.52119088E+08 1.52108743E+08  56.949122      10287.367    
 1.46802239E-06 4.90075889E-09 1.55213890E+08 1.55203336E+08  58.508755      10495.965    
 1.47785673E-06 4.93358930E-09 1.58285586E+08 1.58274825E+08  60.045197      10700.556    
 1.48775696E-06 4.96663964E-09 1.61560420E+08 1.61549442E+08  61.731528      10916.566    
 1.49772351E-06 4.99991138E-09 1.64776812E+08 1.64765612E+08  63.367689      11136.472    
 1.50775683E-06 5.03340601E-09 1.68090305E+08 1.68078872E+08  65.072723      11368.134    
 1.51785736E-06 5.06712502E-09 1.71533641E+08 1.71521967E+08  66.873532      11606.439    
 1.52802556E-06 5.10106992E-09 1.74928233E+08 1.74916326E+08  68.629842      11838.116    
 1.53826187E-06 5.13524222E-09 1.78522110E+08 1.78509959E+08  70.537331      12080.242    
 1.54856676E-06 5.16964344E-09 1.82101284E+08 1.82088894E+08  72.427205      12318.116    
 1.55894067E-06 5.20427512E-09 1.85736922E+08 1.85724289E+08  74.355080      12558.498    
 1.56938409E-06 5.23913879E-09 1.89567787E+08 1.89554889E+08  76.434115      12821.661    
 1.57989746E-06 5.27423602E-09 1.93319179E+08 1.93306016E+08  78.441756      13083.813    
 1.59048127E-06 5.30956836E-09 1.97262980E+08 1.97249542E+08  80.599201      13356.609    
 1.60113597E-06 5.34513740E-09 2.01245604E+08 2.01231893E+08  82.781856      13628.125    
 1.61186206E-06 5.38094472E-09 2.05234511E+08 2.05220529E+08  84.961469      13896.807    
 1.62265999E-06 5.41699191E-09 2.09496242E+08 2.09481975E+08  87.361443      14179.541    
 1.63353026E-06 5.45328058E-09 2.13641868E+08 2.13627324E+08  89.656378      14454.514    
 1.64447336E-06 5.48981235E-09 2.17969429E+08 2.17954584E+08  92.096293      14752.721    
 1.65548976E-06 5.52658885E-09 2.22400687E+08 2.22385530E+08  94.616779      15062.841    
 1.66657996E-06 5.56361172E-09 2.26800777E+08 2.26785313E+08  97.101363      15366.566    
 1.67774445E-06 5.60088261E-09 2.31493747E+08 2.31477961E+08  99.830125      15686.482    
 1.68898374E-06 5.63840317E-09 2.36098989E+08 2.36082890E+08  102.47422      15996.058    
 1.70029832E-06 5.67617509E-09 2.40847389E+08 2.40830972E+08  105.23332      16311.339    
 1.71168869E-06 5.71420004E-09 2.45777468E+08 2.45760721E+08  108.14357      16638.499    
 1.72315537E-06 5.75247973E-09 2.50639897E+08 2.50622811E+08  110.98370      16975.400    
 1.73469887E-06 5.79101585E-09 2.55789900E+08 2.55772450E+08  114.07035      17335.945    
 1.74631969E-06 5.82981012E-09 2.60914386E+08 2.60896580E+08  117.12447      17689.229    
 1.75801837E-06 5.86886429E-09 2.66124292E+08 2.66106128E+08  120.24418      18044.090    
 1.76979541E-06 5.90818007E-09 2.71609006E+08 2.71590470E+08  123.60409      18412.374    
 1.78165135E-06 5.94775924E-09 2.76982275E+08 2.76963379E+08  126.85064      18768.909    
 1.79358672E-06 5.98760354E-09 2.82633492E+08 2.82614217E+08  130.34176      19144.370    
 1.80560203E-06 6.02771477E-09 2.88335374E+08 2.88315698E+08  133.86905      19542.271    
 1.81769784E-06 6.06809470E-09 2.94051329E+08 2.94031250E+08  137.39614      19941.363    
 1.82987468E-06 6.10874514E-09 3.00152682E+08 3.00132178E+08  141.27473      20362.299    
 1.84213310E-06 6.14966790E-09 3.06090411E+08 3.06069500E+08  144.98585      20765.971    
 1.85447363E-06 6.19086481E-09 3.12291318E+08 3.12269987E+08  148.93408      21182.346    
 1.86689683E-06 6.23233769E-09 3.18635194E+08 3.18613439E+08  153.00734      21602.277    
 1.87940326E-06 6.27408840E-09 3.24937205E+08 3.24915025E+08  157.02513      22023.138    
 1.89199346E-06 6.31611880E-09 3.31661402E+08 3.31638747E+08  161.44068      22494.202    
 1.90466801E-06 6.35843077E-09 3.38254249E+08 3.38231129E+08  165.71359      22953.710    
 1.91742747E-06 6.40102618E-09 3.45057953E+08 3.45034360E+08  170.17833      23422.493    
 1.93027240E-06 6.44390694E-09 3.52115666E+08 3.52091589E+08  174.88150      23902.054    
 1.94320339E-06 6.48707497E-09 3.59079555E+08 3.59055007E+08  179.47423      24369.388    
 1.95622099E-06 6.53053217E-09 3.66458277E+08 3.66433235E+08  184.46890      24857.400    
 1.96932581E-06 6.57428050E-09 3.73794105E+08 3.73768564E+08  189.40444      25351.439    
 1.98251841E-06 6.61832191E-09 3.81258789E+08 3.81232721E+08  194.45274      25873.637    
 1.99579939E-06 6.66265834E-09 3.89110134E+08 3.89083512E+08  199.88261      26421.657    
 2.00916934E-06 6.70729179E-09 3.96805324E+08 3.96778168E+08  205.13254      26950.844    
 2.02262885E-06 6.75222424E-09 4.04901892E+08 4.04874180E+08  210.78174      27500.850    
 2.03617854E-06 6.79745770E-09 4.13063875E+08 4.13035611E+08  216.48196      28047.582    
 2.04981899E-06 6.84299417E-09 4.21253258E+08 4.21224446E+08  222.18950      28589.946    
 2.06355082E-06 6.88883570E-09 4.29986856E+08 4.29957446E+08  228.45762      29180.793    
 2.07737464E-06 6.93498432E-09 4.38490021E+08 4.38460010E+08  234.45878      29776.728    
 2.09129106E-06 6.98144209E-09 4.47373788E+08 4.47343151E+08  240.84767      30396.142    
 2.10530072E-06 7.02821109E-09 4.56454353E+08 4.56423085E+08  247.43023      31020.388    
 2.11940422E-06 7.07529339E-09 4.65478924E+08 4.65447037E+08  253.92729      31633.027    
 2.13360221E-06 7.12269110E-09 4.75111815E+08 4.75079276E+08  261.07222      32277.622    
 2.14789530E-06 7.17040633E-09 4.84548473E+08 4.84515302E+08  267.97727      32903.197    
 2.16228415E-06 7.21844121E-09 4.94295403E+08 4.94261562E+08  275.20198      33565.371    
 2.17676939E-06 7.26679787E-09 5.04397223E+08 5.04362665E+08  282.80254      34275.091    
 2.19135167E-06 7.31547848E-09 5.14369132E+08 5.14333873E+08  290.22929      34968.808    
 2.20603163E-06 7.36448520E-09 5.24939279E+08 5.24903285E+08  298.31134      35695.492    
 2.22080994E-06 7.41382021E-09 5.35438892E+08 5.35402179E+08  306.28723      36407.062    
 2.23568724E-06 7.46348573E-09 5.46132259E+08 5.46094821E+08  314.45627      37123.136    
 2.25066421E-06 7.51348396E-09 5.57369348E+08 5.57331157E+08  323.23124      37867.640    
 2.26574151E-06 7.56381713E-09 5.68387840E+08 5.68348888E+08  331.72070      38621.044    
 2.28091982E-06 7.61448748E-09 5.79985797E+08 5.79946020E+08  340.86191      39436.427    
 2.29619980E-06 7.66549727E-09 5.91667258E+08 5.91626659E+08  350.07356      40248.719    
 2.31158215E-06 7.71684879E-09 6.03398323E+08 6.03356910E+08  359.30941      41054.327    
 2.32706754E-06 7.76854430E-09 6.15897467E+08 6.15855197E+08  369.43908      41900.923    
 2.34265667E-06 7.82058613E-09 6.28072191E+08 6.28029097E+08  379.14329      42715.128    
 2.35835023E-06 7.87297659E-09 6.40797119E+08 6.40753170E+08  389.48145      43559.579    
 2.37414893E-06 7.92571802E-09 6.53792489E+08 6.53747635E+08  400.11902      44453.503    
 2.39005346E-06 7.97881276E-09 6.66713412E+08 6.66667641E+08  410.62511      45361.029    
 2.40606454E-06 8.03226319E-09 6.80510633E+08 6.80463890E+08  422.18641      46321.357    
 2.42218287E-06 8.08607168E-09 6.94015300E+08 6.93967620E+08  433.34484      47247.125    
 2.43840918E-06 8.14024064E-09 7.07975989E+08 7.07927351E+08  445.03551      48192.762    
 2.45474420E-06 8.19477248E-09 7.22431996E+08 7.22382381E+08  457.31825      49157.840    
 2.47118864E-06 8.24966963E-09 7.36708392E+08 7.36657815E+08  469.32765      50107.611    
 2.48774324E-06 8.30493454E-09 7.51847268E+08 7.51795632E+08  482.40535      51153.457    
 2.50440875E-06 8.36056967E-09 7.66872225E+08 7.66819520E+08  495.29431      52210.051    
 2.52118589E-06 8.41657750E-09 7.82187808E+08 7.82134026E+08  508.51309      53274.239    
 2.53807543E-06 8.47296053E-09 7.98267531E+08 7.98212632E+08  522.69375      54376.706    
 2.55507811E-06 8.52972128E-09 8.14041402E+08 8.13985421E+08  536.42155      55444.039    
 2.57219470E-06 8.58686227E-09 8.30651432E+08 8.30594328E+08  551.21313      56552.801    
 2.58942595E-06 8.64438604E-09 8.47366488E+08 8.47308255E+08  566.09913      57666.777    
 2.60677263E-06 8.70229518E-09 8.64167446E+08 8.64108033E+08  581.04421      58832.287    
 2.62423551E-06 8.76059224E-09 8.82051981E+08 8.81991291E+08  597.41417      60092.531    
 2.64181539E-06 8.81927985E-09 8.99480101E+08 8.99418186E+08  613.10622      61301.099    
 2.65951303E-06 8.87836060E-09 9.17703278E+08 9.17640098E+08  629.83464      62550.180    
 2.67732922E-06 8.93783714E-09 9.36297249E+08 9.36232795E+08  647.02498      63806.742    
 2.69526477E-06 8.99771211E-09 9.54792775E+08 9.54727068E+08  664.01366      65042.392    
 2.71332047E-06 9.05798819E-09 9.74550163E+08 9.74483122E+08  682.72088      66358.616    
 2.73149713E-06 9.11866806E-09 9.93872364E+08 9.93803952E+08  700.75247      67710.533    
 2.74979555E-06 9.17975443E-09 1.01386419E+09 1.01379436E+09  719.66947      69116.621    
 2.76821656E-06 9.24125002E-09 1.03454676E+09 1.03447547E+09  739.51846      70551.796    
 2.78676096E-06 9.30315757E-09 1.05498138E+09 1.05490867E+09  758.93796      71950.932    
 2.80542960E-06 9.36547984E-09 1.07665882E+09 1.07658462E+09  780.09890      73415.398    
 2.82422330E-06 9.42821962E-09 1.09815466E+09 1.09807901E+09  800.92703      74848.600    
 2.84314290E-06 9.49137968E-09 1.12008538E+09 1.12000824E+09  822.31677      76316.521    
 2.86218924E-06 9.55496287E-09 1.14308943E+09 1.14301065E+09  845.23289      77934.074    
 2.88136318E-06 9.61897199E-09 1.16566600E+09 1.16558562E+09  867.43099      79518.190    
 2.90066556E-06 9.68340992E-09 1.18944872E+09 1.18936666E+09  891.36519      81168.462    
 2.92009725E-06 9.74827952E-09 1.21336099E+09 1.21327727E+09  915.42055      82803.968    
 2.93965911E-06 9.81358368E-09 1.23741731E+09 1.23733194E+09  939.60374      84429.896    
 2.95935202E-06 9.87932532E-09 1.26300138E+09 1.26291428E+09  966.05785      86132.633    
 2.97917685E-06 9.94550737E-09 1.28794382E+09 1.28785501E+09  991.43209      87816.129    
 2.99913449E-06 1.00121328E-08 1.31403473E+09 1.31394406E+09  1018.5003      89651.283    
 3.01922583E-06 1.00792045E-08 1.34063302E+09 1.34054046E+09  1046.2795      91518.904    
 3.03945176E-06 1.01467255E-08 1.36710212E+09 1.36700770E+09  1073.7504      93352.967    
 3.05981319E-06 1.02146989E-08 1.39538755E+09 1.39529116E+09  1104.0198      95287.685    
 3.08031101E-06 1.02831276E-08 1.42302660E+09 1.42292832E+09  1133.1577      97152.803    
 3.10094616E-06 1.03520148E-08 1.45164786E+09 1.45154764E+09  1163.7674      99060.080    
 3.12171953E-06 1.04213634E-08 1.48123149E+09 1.48112923E+09  1195.8430      101068.31    
 3.14263207E-06 1.04911766E-08 1.51047354E+09 1.51036918E+09  1227.2443      103126.73    
 3.16368471E-06 1.05614574E-08 1.54150584E+09 1.54139928E+09  1261.4842      105307.54    
 3.18487837E-06 1.06322091E-08 1.57225192E+09 1.57214319E+09  1295.1412      107435.49    
 3.20621402E-06 1.07034348E-08 1.60364719E+09 1.60353628E+09  1329.7521      109582.59    
 3.22769259E-06 1.07751376E-08 1.63654874E+09 1.63643557E+09  1366.7842      111800.49    
 3.24931505E-06 1.08473207E-08 1.66885337E+09 1.66873801E+09  1402.6783      113956.30    
 3.27108236E-06 1.09199874E-08 1.70289714E+09 1.70277942E+09  1441.4055      116276.77    
 3.29299549E-06 1.09931409E-08 1.73709676E+09 1.73697659E+09  1480.2777      118692.11    
 3.31505541E-06 1.10667844E-08 1.77153278E+09 1.77141015E+09  1519.4087      121107.27    
 3.33726312E-06 1.11409213E-08 1.80812162E+09 1.80799642E+09  1562.1583      123641.73    
 3.35961959E-06 1.12155548E-08 1.84380897E+09 1.84368129E+09  1603.1881      126079.10    
 3.38212584E-06 1.12906884E-08 1.88115422E+09 1.88102398E+09  1646.9865      128597.59    
 3.40478285E-06 1.13663252E-08 1.91919206E+09 1.91905923E+09  1691.8762      131136.43    
 3.42759164E-06 1.14424687E-08 1.95706194E+09 1.95692647E+09  1736.2960      133730.02    
 3.45055323E-06 1.15191223E-08 1.99754522E+09 1.99740684E+09  1785.2731      136598.38    
 3.47366865E-06 1.15962894E-08 2.03707040E+09 2.03692921E+09  1832.3573      139366.01    
 3.49693891E-06 1.16739735E-08 2.07803487E+09 2.07789078E+09  1881.8860      142201.99    
 3.52036506E-06 1.17521780E-08 2.12033852E+09 2.12019149E+09  1933.7186      145089.93    
 3.54394814E-06 1.18309064E-08 2.16217223E+09 2.16202234E+09  1984.4937      147911.56    
 3.56768921E-06 1.19101621E-08 2.20658350E+09 2.20643058E+09  2039.8951      150876.60    
 3.59158932E-06 1.19899488E-08 2.25054793E+09 2.25039192E+09  2094.2818      153911.50    
 3.61564954E-06 1.20702701E-08 2.29547951E+09 2.29532027E+09  2150.2849      157091.92    
 3.63987094E-06 1.21511293E-08 2.34252359E+09 2.34236099E+09  2210.1271      160391.43    
 3.66425460E-06 1.22325303E-08 2.38873504E+09 2.38856919E+09  2268.1668      163586.39    
 3.68880161E-06 1.23144766E-08 2.43745267E+09 2.43728342E+09  2330.8289      166912.73    
 3.71351306E-06 1.23969718E-08 2.48635081E+09 2.48617821E+09  2393.6430      170205.74    
 3.73839005E-06 1.24800197E-08 2.53563029E+09 2.53545433E+09  2456.9601      173502.92    
 3.76343369E-06 1.25636239E-08 2.58794164E+09 2.58776198E+09  2526.0416      177134.08    
 3.78864510E-06 1.26477882E-08 2.63898763E+09 2.63880429E+09  2592.3849      180749.97    
 3.81402541E-06 1.27325163E-08 2.69242584E+09 2.69223868E+09  2663.2525      184496.71    
 3.83957574E-06 1.28178120E-08 2.74680701E+09 2.74661602E+09  2735.7907      188255.78    
 3.86529723E-06 1.29036791E-08 2.80097184E+09 2.80077708E+09  2807.6153      191954.42    
 3.89119103E-06 1.29901214E-08 2.85889468E+09 2.85869594E+09  2886.8605      195851.71    
 3.91725829E-06 1.30771428E-08 2.91539998E+09 2.91519738E+09  2962.9426      199643.00    
 3.94350018E-06 1.31647472E-08 2.97401228E+09 2.97380550E+09  3043.0822      203728.68    
 3.96991787E-06 1.32529384E-08 3.03448623E+09 3.03427508E+09  3126.8396      208022.64    
 3.99651253E-06 1.33417205E-08 3.09431520E+09 3.09409978E+09  3208.9400      212210.60    
 4.02328535E-06 1.34310972E-08 3.15785334E+09 3.15763343E+09  3298.5796      216604.92    
 4.05023752E-06 1.35210728E-08 3.22069891E+09 3.22047463E+09  3386.4620      220890.53    
 4.07737024E-06 1.36116511E-08 3.28498195E+09 3.28475325E+09  3477.0775      225221.83    
 4.10468473E-06 1.37028361E-08 3.35222526E+09 3.35199195E+09  3573.7778      229733.87    
 4.13218219E-06 1.37946320E-08 3.41830876E+09 3.41807071E+09  3667.6239      234374.87    
