 OPTXAGNF AGN Spectrum Model Parameters: NLS, Astar 0.0                          
 M_BH:  1.0000E+09 M_0            L  :  5.0000E-02 L/Ledd 
 D   :  1.5000E+18 cm             z  :   0.000     redshift 
 Rcor:   40.00     Rg             Ro :   4.000     Rg 
 C_T :  0.2000     keV            Tau:   15.00     Optical Depth 
 gam :   2.200     (-slope)       fpl:  0.2000     Fraction 
 E              0.5DeltaE      E.FE total     E.FE Disk      E.FE Compton   E.FE NonThermal
 (keV)          (keV)          E.E/cm2/s/E    E.E/cm2/s/E    E.E/cm2/s/E    E.E/cm2/s/E    
 1.00334952E-06 3.34952256E-09 1.97845999E+09 1.97831528E+09  745.97256      143960.94    
 1.01007101E-06 3.37196116E-09 2.01755861E+09 2.01741095E+09  765.56879      146895.23    
 1.01683752E-06 3.39455008E-09 2.05829636E+09 2.05814563E+09  786.34660      149945.09    
 1.02364936E-06 3.41729032E-09 2.10015356E+09 2.09999971E+09  807.92340      153035.50    
 1.03050683E-06 3.44018290E-09 2.14164736E+09 2.14149047E+09  829.13897      156059.96    
 1.03741024E-06 3.46322884E-09 2.18581860E+09 2.18565851E+09  852.37816      159234.79    
 1.04435990E-06 3.48642917E-09 2.22931870E+09 2.22915550E+09  875.01523      162328.91    
 1.05135611E-06 3.50978492E-09 2.27400997E+09 2.27384351E+09  898.51039      165568.13    
 1.05839920E-06 3.53329712E-09 2.32056871E+09 2.32039871E+09  923.42297      169074.86    
 1.06548946E-06 3.55696684E-09 2.36641376E+09 2.36624032E+09  947.67434      172499.55    
 1.07262722E-06 3.58079512E-09 2.41487764E+09 2.41470059E+09  973.96062      176078.10    
 1.07981280E-06 3.60478303E-09 2.46327131E+09 2.46309071E+09  1000.1071      179600.52    
 1.08704652E-06 3.62893164E-09 2.51229700E+09 2.51211285E+09  1026.6722      183126.81    
 1.09432869E-06 3.65324201E-09 2.56408127E+09 2.56389341E+09  1055.4329      186805.66    
 1.10165965E-06 3.67771524E-09 2.61473276E+09 2.61454117E+09  1083.1545      190501.89    
 1.10903971E-06 3.70235243E-09 2.66790337E+09 2.66770774E+09  1112.8845      194511.67    
 1.11646922E-06 3.72715465E-09 2.72173704E+09 2.72153736E+09  1143.0806      198533.20    
 1.12394850E-06 3.75212303E-09 2.77551443E+09 2.77531076E+09  1173.1137      202499.68    
 1.13147788E-06 3.77725867E-09 2.83310686E+09 2.83289896E+09  1206.3132      206690.44    
 1.13905770E-06 3.80256270E-09 2.88906765E+09 2.88885570E+09  1238.0014      210709.92    
 1.14668830E-06 3.82803623E-09 2.94739834E+09 2.94718221E+09  1271.6230      214858.04    
 1.15437002E-06 3.85368042E-09 3.00727879E+09 3.00705823E+09  1306.4918      219255.02    
 1.16210319E-06 3.87949640E-09 3.06666574E+09 3.06644067E+09  1340.7985      223733.71    
 1.16988818E-06 3.90548532E-09 3.12990863E+09 3.12967879E+09  1378.4022      228462.74    
 1.17772531E-06 3.93164835E-09 3.19213778E+09 3.19190332E+09  1414.9834      233045.69    
 1.18561494E-06 3.95798663E-09 3.25612589E+09 3.25588674E+09  1453.0022      237702.32    
 1.19355743E-06 3.98450137E-09 3.32272725E+09 3.32248327E+09  1493.2618      242479.21    
 1.20155313E-06 4.01119372E-09 3.38833691E+09 3.38808823E+09  1532.4774      247151.22    
 1.20960239E-06 4.03806489E-09 3.45772146E+09 3.45746762E+09  1575.0118      252271.87    
 1.21770557E-06 4.06511607E-09 3.52694602E+09 3.52668690E+09  1617.2643      257503.16    
 1.22586303E-06 4.09234846E-09 3.59713603E+09 3.59687162E+09  1660.2509      262742.65    
 1.23407514E-06 4.11976329E-09 3.67120727E+09 3.67093736E+09  1706.7294      268200.29    
 1.24234227E-06 4.14736177E-09 3.74369058E+09 3.74341536E+09  1751.5563      273469.31    
 1.25066478E-06 4.17514513E-09 3.81980861E+09 3.81952789E+09  1799.6632      278930.03    
 1.25904304E-06 4.20311462E-09 3.89680842E+09 3.89652215E+09  1848.4601      284416.55    
 1.26747742E-06 4.23127147E-09 3.97379651E+09 3.97350448E+09  1897.0587      290130.11    
 1.27596831E-06 4.25961695E-09 4.05616920E+09 4.05587088E+09  1950.7105      296368.22    
 1.28451608E-06 4.28815232E-09 4.13624458E+09 4.13594024E+09  2001.9515      302334.45    
 1.29312111E-06 4.31687884E-09 4.21974483E+09 4.21943429E+09  2056.3556      308485.22    
 1.30178379E-06 4.34579781E-09 4.30538693E+09 4.30507012E+09  2112.7036      314705.20    
 1.31050450E-06 4.37491051E-09 4.39036057E+09 4.39003760E+09  2168.1787      320804.98    
 1.31928362E-06 4.40421823E-09 4.48088495E+09 4.48055545E+09  2229.0250      327268.06    
 1.32812156E-06 4.43372228E-09 4.56988357E+09 4.56954736E+09  2288.1390      333924.43    
 1.33701871E-06 4.46342399E-09 4.66147637E+09 4.66113318E+09  2349.6585      340841.77    
 1.34597546E-06 4.49332467E-09 4.75672331E+09 4.75637294E+09  2414.7184      347946.83    
 1.35499221E-06 4.52342565E-09 4.85059398E+09 4.85023665E+09  2478.1311      354853.82    
 1.36406936E-06 4.55372829E-09 4.94990276E+09 4.94953815E+09  2546.9558      362066.30    
 1.37320733E-06 4.58423392E-09 5.04889725E+09 5.04852548E+09  2615.2347      369160.06    
 1.38240650E-06 4.61494391E-09 5.14936006E+09 5.14898101E+09  2684.7930      376369.60    
 1.39166731E-06 4.64585962E-09 5.25528049E+09 5.25489341E+09  2759.9029      384327.20    
 1.40099015E-06 4.67698245E-09 5.35897731E+09 5.35858233E+09  2832.3889      392145.91    
 1.41037545E-06 4.70831376E-09 5.46791632E+09 5.46751313E+09  2910.2306      400272.15    
 1.41982361E-06 4.73985497E-09 5.57802090E+09 5.57760954E+09  2989.0853      408368.34    
 1.42933508E-06 4.77160747E-09 5.68820622E+09 5.68778678E+09  3067.7247      416374.55    
 1.43891026E-06 4.80357269E-09 5.80598641E+09 5.80555845E+09  3154.4272      424802.50    
 1.44854958E-06 4.83575204E-09 5.92053459E+09 5.92009827E+09  3237.2844      433081.90    
 1.45825348E-06 4.86814696E-09 6.04003005E+09 6.03958465E+09  3325.3159      442070.19    
 1.46802239E-06 4.90075889E-09 6.16248156E+09 6.16202683E+09  3416.3734      451316.69    
 1.47785673E-06 4.93358930E-09 6.28403124E+09 6.28356737E+09  3506.0769      460370.74    
 1.48775696E-06 4.96663964E-09 6.41356744E+09 6.41309394E+09  3604.5304      469899.15    
 1.49772351E-06 4.99991138E-09 6.54081313E+09 6.54033030E+09  3700.0552      479131.20    
 1.50775683E-06 5.03340601E-09 6.67187912E+09 6.67138679E+09  3799.6003      488524.31    
 1.51785736E-06 5.06712502E-09 6.80805024E+09 6.80754793E+09  3904.7363      498408.12    
 1.52802556E-06 5.10106992E-09 6.94231471E+09 6.94180217E+09  4007.2746      508535.05    
 1.53826187E-06 5.13524222E-09 7.08441001E+09 7.08388662E+09  4118.6379      519273.71    
 1.54856676E-06 5.16964344E-09 7.22593455E+09 7.22540051E+09  4228.9728      529808.26    
 1.55894067E-06 5.20427512E-09 7.36968290E+09 7.36913817E+09  4341.5259      540380.64    
 1.56938409E-06 5.23913879E-09 7.52109872E+09 7.52054290E+09  4462.9028      551359.11    
 1.57989746E-06 5.27423602E-09 7.66940340E+09 7.66883682E+09  4580.1121      561998.44    
 1.59048127E-06 5.30956836E-09 7.82526476E+09 7.82468671E+09  4706.0658      573351.35    
 1.60113597E-06 5.34513740E-09 7.98265691E+09 7.98206680E+09  4833.4910      585280.63    
 1.61186206E-06 5.38094472E-09 8.14030444E+09 8.13970231E+09  4960.7386      597170.87    
 1.62265999E-06 5.41699191E-09 8.30865803E+09 8.30804321E+09  5100.8491      609717.97    
 1.63353026E-06 5.45328058E-09 8.47246750E+09 8.47184051E+09  5234.8281      621750.41    
 1.64447336E-06 5.48981235E-09 8.64341791E+09 8.64277838E+09  5377.2699      634153.60    
 1.65548976E-06 5.52658885E-09 8.81844075E+09 8.81778852E+09  5524.4145      646703.78    
 1.66657996E-06 5.56361172E-09 8.99225246E+09 8.99158736E+09  5669.4634      659427.36    
 1.67774445E-06 5.60088261E-09 9.17754988E+09 9.17687052E+09  5828.7651      673529.46    
 1.68898374E-06 5.63840317E-09 9.35941961E+09 9.35872640E+09  5983.1247      687231.63    
 1.70029832E-06 5.67617509E-09 9.54690788E+09 9.54620054E+09  6144.1967      701196.05    
 1.71168869E-06 5.71420004E-09 9.74152073E+09 9.74079892E+09  6314.0919      715492.03    
 1.72315537E-06 5.75247973E-09 9.93349484E+09 9.93275894E+09  6479.8936      729421.47    
 1.73469887E-06 5.79101585E-09 1.01367383E+10 1.01359877E+10  6660.0841      743994.18    
 1.74631969E-06 5.82981012E-09 1.03389941E+10 1.03382283E+10  6838.3760      758920.48    
 1.75801837E-06 5.86886429E-09 1.05446062E+10 1.05438246E+10  7020.4962      774567.00    
 1.76979541E-06 5.90818007E-09 1.07609831E+10 1.07601849E+10  7216.6364      790902.64    
 1.78165135E-06 5.94775924E-09 1.09730116E+10 1.09721975E+10  7406.1596      806675.16    
 1.79358672E-06 5.98760354E-09 1.11959259E+10 1.11950952E+10  7609.9583      823056.88    
 1.80560203E-06 6.02771477E-09 1.14208326E+10 1.14199854E+10  7815.8672      839356.70    
 1.81769784E-06 6.06809470E-09 1.16463038E+10 1.16454403E+10  8021.7645      855541.64    
 1.82987468E-06 6.10874514E-09 1.18868568E+10 1.18859752E+10  8248.1778      873405.14    
 1.84213310E-06 6.14966790E-09 1.21210275E+10 1.21201278E+10  8464.8160      891259.39    
 1.85447363E-06 6.19086481E-09 1.23654999E+10 1.23645815E+10  8695.2932      909708.48    
 1.86689683E-06 6.23233769E-09 1.26155726E+10 1.26146353E+10  8933.0675      928317.93    
 1.87940326E-06 6.27408840E-09 1.28640253E+10 1.28630696E+10  9167.6045      946577.08    
 1.89199346E-06 6.31611880E-09 1.31289841E+10 1.31280089E+10  9425.3560      965773.71    
 1.90466801E-06 6.35843077E-09 1.33888275E+10 1.33878333E+10  9674.7827      984460.06    
 1.91742747E-06 6.40102618E-09 1.36569236E+10 1.36559092E+10  9935.4047      1004478.2    
 1.93027240E-06 6.44390694E-09 1.39349531E+10 1.39339171E+10  10209.943      1025732.9    
 1.94320339E-06 6.48707497E-09 1.42093378E+10 1.42082810E+10  10478.034      1046407.9    
 1.95622099E-06 6.53053217E-09 1.44999306E+10 1.44988517E+10  10769.584      1068049.3    
 1.96932581E-06 6.57428050E-09 1.47888657E+10 1.47877654E+10  11057.683      1089263.7    
 1.98251841E-06 6.61832191E-09 1.50828475E+10 1.50817255E+10  11352.362      1110594.3    
 1.99579939E-06 6.66265834E-09 1.53919290E+10 1.53907845E+10  11669.311      1132865.6    
 2.00916934E-06 6.70729179E-09 1.56949416E+10 1.56937739E+10  11975.757      1155658.6    
 2.02262885E-06 6.75222424E-09 1.60136261E+10 1.60124338E+10  12305.505      1180013.0    
 2.03617854E-06 6.79745770E-09 1.63348800E+10 1.63336631E+10  12638.230      1204228.7    
 2.04981899E-06 6.84299417E-09 1.66572251E+10 1.66559839E+10  12971.383      1228226.4    
 2.06355082E-06 6.88883570E-09 1.70007972E+10 1.69995304E+10  13337.250      1253458.2    
 2.07737464E-06 6.93498432E-09 1.73354119E+10 1.73341204E+10  13687.537      1277723.2    
 2.09129106E-06 6.98144209E-09 1.76848772E+10 1.76835601E+10  14060.452      1303015.2    
 2.10530072E-06 7.02821109E-09 1.80420303E+10 1.80406858E+10  14444.668      1330050.7    
 2.11940422E-06 7.07529339E-09 1.83970297E+10 1.83956577E+10  14823.895      1357129.9    
 2.13360221E-06 7.12269110E-09 1.87757353E+10 1.87743343E+10  15240.930      1385726.3    
 2.14789530E-06 7.17040633E-09 1.91468269E+10 1.91453979E+10  15643.965      1413327.0    
 2.16228415E-06 7.21844121E-09 1.95300204E+10 1.95285628E+10  16065.654      1441492.2    
 2.17676939E-06 7.26679787E-09 1.99270450E+10 1.99255583E+10  16509.277      1470257.6    
 2.19135167E-06 7.31547848E-09 2.03190456E+10 2.03175299E+10  16942.756      1498797.4    
 2.20603163E-06 7.36448520E-09 2.07343419E+10 2.07327941E+10  17414.475      1530352.8    
 2.22080994E-06 7.41382021E-09 2.11469235E+10 2.11453438E+10  17879.999      1561851.9    
 2.23568724E-06 7.46348573E-09 2.15670701E+10 2.15654582E+10  18356.794      1593548.1    
 2.25066421E-06 7.51348396E-09 2.20083772E+10 2.20067319E+10  18868.947      1626406.4    
 2.26574151E-06 7.56381713E-09 2.24412207E+10 2.24395432E+10  19364.438      1658213.0    
 2.28091982E-06 7.61448748E-09 2.28966083E+10 2.28948971E+10  19897.962      1691232.9    
 2.29619980E-06 7.66549727E-09 2.33552708E+10 2.33535255E+10  20435.595      1724834.7    
 2.31158215E-06 7.71684879E-09 2.38158990E+10 2.38141181E+10  20974.640      1759896.7    
 2.32706754E-06 7.76854430E-09 2.43063801E+10 2.43045611E+10  21565.841      1797455.2    
 2.34265667E-06 7.82058613E-09 2.47843038E+10 2.47824482E+10  22132.215      1833469.6    
 2.35835023E-06 7.87297659E-09 2.52836185E+10 2.52817251E+10  22735.580      1870668.2    
 2.37414893E-06 7.92571802E-09 2.57934593E+10 2.57915278E+10  23356.415      1908122.0    
 2.39005346E-06 7.97881276E-09 2.63004536E+10 2.62984847E+10  23969.578      1944951.3    
 2.40606454E-06 8.03226319E-09 2.68414697E+10 2.68394603E+10  24644.313      1984728.7    
 2.42218287E-06 8.08607168E-09 2.73711844E+10 2.73691338E+10  25295.539      2025290.8    
 2.43840918E-06 8.14024064E-09 2.79186224E+10 2.79165292E+10  25977.820      2067165.1    
 2.45474420E-06 8.19477248E-09 2.84852956E+10 2.84831589E+10  26694.646      2109940.0    
 2.47118864E-06 8.24966963E-09 2.90450564E+10 2.90428774E+10  27395.523      2151631.7    
 2.48774324E-06 8.30493454E-09 2.96382688E+10 2.96360454E+10  28158.733      2195239.8    
 2.50440875E-06 8.36056967E-09 3.02271127E+10 3.02248457E+10  28910.929      2238037.9    
 2.52118589E-06 8.41657750E-09 3.08272630E+10 3.08249510E+10  29682.369      2282364.4    
 2.53807543E-06 8.47296053E-09 3.14570392E+10 3.14546779E+10  30509.930      2330861.6    
 2.55507811E-06 8.52972128E-09 3.20750317E+10 3.20726223E+10  31311.067      2378068.2    
 2.57219470E-06 8.58686227E-09 3.27254279E+10 3.27229685E+10  32174.270      2427208.8    
 2.58942595E-06 8.64438604E-09 3.33799359E+10 3.33774269E+10  33042.981      2475957.9    
 2.60677263E-06 8.70229518E-09 3.40378243E+10 3.40352660E+10  33915.138      2524384.1    
 2.62423551E-06 8.76059224E-09 3.47376543E+10 3.47350442E+10  34870.428      2575232.6    
 2.64181539E-06 8.81927985E-09 3.54199030E+10 3.54172412E+10  35786.164      2626037.4    
 2.65951303E-06 8.87836060E-09 3.61329394E+10 3.61302216E+10  36762.365      2681060.0    
 2.67732922E-06 8.93783714E-09 3.68603568E+10 3.68575823E+10  37765.513      2736724.1    
 2.69526477E-06 8.99771211E-09 3.75840408E+10 3.75812107E+10  38756.896      2791372.3    
 2.71332047E-06 9.05798819E-09 3.83565067E+10 3.83536179E+10  39848.540      2848976.6    
 2.73149713E-06 9.11866806E-09 3.91122345E+10 3.91092890E+10  40900.765      2904573.2    
 2.74979555E-06 9.17975443E-09 3.98938772E+10 3.98908737E+10  42004.644      2961453.3    
 2.76821656E-06 9.24125002E-09 4.07022360E+10 4.06991707E+10  43162.894      3022104.4    
 2.78676096E-06 9.30315757E-09 4.15011100E+10 4.14979819E+10  44296.087      3083843.7    
 2.80542960E-06 9.36547984E-09 4.23479801E+10 4.23447858E+10  45530.872      3148774.6    
 2.82422330E-06 9.42821962E-09 4.31879211E+10 4.31846622E+10  46746.239      3212202.0    
 2.84314290E-06 9.49137968E-09 4.40447073E+10 4.40413832E+10  47994.369      3276142.5    
 2.86218924E-06 9.55496287E-09 4.49429165E+10 4.49395250E+10  49331.541      3342235.5    
 2.88136318E-06 9.61897199E-09 4.58247443E+10 4.58212871E+10  50626.825      3406532.2    
 2.90066556E-06 9.68340992E-09 4.67531072E+10 4.67495785E+10  52023.385      3476643.2    
 2.92009725E-06 9.74827952E-09 4.76865410E+10 4.76829386E+10  53427.010      3549029.9    
 2.93965911E-06 9.81358368E-09 4.86256174E+10 4.86219416E+10  54838.092      3620952.9    
 2.95935202E-06 9.87932532E-09 4.96235579E+10 4.96198050E+10  56381.645      3696474.4    
 2.97917685E-06 9.94550737E-09 5.05969099E+10 5.05930830E+10  57862.201      3769093.9    
 2.99913449E-06 1.00121328E-08 5.16145229E+10 5.16106194E+10  59441.574      3844086.0    
 3.01922583E-06 1.00792045E-08 5.26517321E+10 5.26477511E+10  61062.416      3919963.4    
 3.03945176E-06 1.01467255E-08 5.36840919E+10 5.36800308E+10  62665.267      3998412.3    
 3.05981319E-06 1.02146989E-08 5.47863349E+10 5.47821863E+10  64431.368      4084115.6    
 3.08031101E-06 1.02831276E-08 5.58638547E+10 5.58596219E+10  66131.458      4166609.7    
 3.10094616E-06 1.03520148E-08 5.69792087E+10 5.69748897E+10  67917.396      4251054.5    
 3.12171953E-06 1.04213634E-08 5.81316052E+10 5.81271983E+10  69788.839      4337114.2    
 3.14263207E-06 1.04911766E-08 5.92710138E+10 5.92665210E+10  71620.950      4421179.2    
 3.16368471E-06 1.05614574E-08 6.04792171E+10 6.04746337E+10  73618.624      4509870.9    
 3.18487837E-06 1.06322091E-08 6.16765651E+10 6.16718878E+10  75582.301      4601668.9    
 3.20621402E-06 1.07034348E-08 6.28989433E+10 6.28941692E+10  77601.612      4696560.5    
 3.22769259E-06 1.07751376E-08 6.41791713E+10 6.41742967E+10  79762.143      4794878.5    
 3.24931505E-06 1.08473207E-08 6.54366649E+10 6.54316930E+10  81856.299      4890062.9    
 3.27108236E-06 1.09199874E-08 6.67609088E+10 6.67558355E+10  84115.690      4989097.6    
 3.29299549E-06 1.09931409E-08 6.80912474E+10 6.80860738E+10  86383.531      5087233.7    
 3.31505541E-06 1.10667844E-08 6.94307950E+10 6.94255202E+10  88666.472      5186084.0    
 3.33726312E-06 1.11409213E-08 7.08528646E+10 7.08474776E+10  91160.453      5295822.3    
 3.35961959E-06 1.12155548E-08 7.22406019E+10 7.22351048E+10  93554.125      5403571.8    
 3.38212584E-06 1.12906884E-08 7.36919054E+10 7.36862942E+10  96109.269      5515121.4    
 3.40478285E-06 1.13663252E-08 7.51698345E+10 7.51641086E+10  98728.059      5627139.5    
 3.42759164E-06 1.14424687E-08 7.66415216E+10 7.66356830E+10  101319.44      5737325.3    
 3.45055323E-06 1.15191223E-08 7.82132031E+10 7.82072455E+10  104176.60      5853345.6    
 3.47366865E-06 1.15962894E-08 7.97484639E+10 7.97423895E+10  106923.35      5967514.8    
 3.49693891E-06 1.16739735E-08 8.13388740E+10 8.13326736E+10  109812.67      6090553.6    
 3.52036506E-06 1.17521780E-08 8.29805660E+10 8.29742346E+10  112836.34      6218502.7    
 3.54394814E-06 1.18309064E-08 8.46045292E+10 8.45980701E+10  115798.34      6343261.3    
 3.56768921E-06 1.19101621E-08 8.63269864E+10 8.63203933E+10  119030.12      6474075.7    
 3.59158932E-06 1.19899488E-08 8.80325907E+10 8.80258667E+10  122202.73      6601791.5    
 3.61564954E-06 1.20702701E-08 8.97752756E+10 8.97684194E+10  125469.59      6730756.1    
 3.63987094E-06 1.21511293E-08 9.15986395E+10 9.15916435E+10  128960.33      6867040.7    
 3.66425460E-06 1.22325303E-08 9.33905213E+10 9.33833825E+10  132345.94      7006397.7    
 3.68880161E-06 1.23144766E-08 9.52780462E+10 9.52707564E+10  136001.11      7153784.7    
 3.71351306E-06 1.23969718E-08 9.71726543E+10 9.71652151E+10  139665.13      7299537.0    
 3.73839005E-06 1.24800197E-08 9.90820270E+10 9.90744390E+10  143358.48      7444649.4    
 3.76343369E-06 1.25636239E-08 1.01106918E+11 1.01099174E+11  147387.95      7596502.2    
 3.78864510E-06 1.26477882E-08 1.03083945E+11 1.03076050E+11  151257.74      7743075.2    
 3.81402541E-06 1.27325163E-08 1.05152153E+11 1.05144099E+11  155391.35      7898376.7    
 3.83957574E-06 1.28178120E-08 1.07256434E+11 1.07248211E+11  159622.36      8063246.8    
 3.86529723E-06 1.29036791E-08 1.09352793E+11 1.09344403E+11  163811.75      8226765.2    
 3.89119103E-06 1.29901214E-08 1.11592065E+11 1.11583496E+11  168433.82      8399594.5    
 3.91725829E-06 1.30771428E-08 1.13777816E+11 1.13769077E+11  172871.44      8565743.2    
 3.94350018E-06 1.31647472E-08 1.16043795E+11 1.16034881E+11  177545.64      8736006.4    
 3.96991787E-06 1.32529384E-08 1.18380631E+11 1.18371539E+11  182430.77      8909439.3    
 3.99651253E-06 1.33417205E-08 1.20693352E+11 1.20684081E+11  187219.27      9084236.7    
 4.02328535E-06 1.34310972E-08 1.23146919E+11 1.23137449E+11  192447.34      9277623.4    
 4.05023752E-06 1.35210728E-08 1.25574564E+11 1.25564899E+11  197572.95      9467196.8    
 4.07737024E-06 1.36116511E-08 1.28056990E+11 1.28047128E+11  202857.89      9658833.3    
 4.10468473E-06 1.37028361E-08 1.30651751E+11 1.30641685E+11  208497.59      9856566.2    
 4.13218219E-06 1.37946320E-08 1.33202989E+11 1.33192726E+11  213970.87      10048467.    
