 OPTXAGNF AGN Spectrum Model Parameters: BLS, Astar 0.0                          
 M_BH:  1.0000E+09 M_0            L  :  3.0000E-02 L/Ledd 
 D   :  1.5000E+18 cm             z  :   0.000     redshift 
 Rcor:   60.00     Rg             Ro :   4.000     Rg 
 C_T :  0.2000     keV            Tau:   15.00     Optical Depth 
 gam :   1.800     (-slope)       fpl:  0.5000     Fraction 
 E              0.5DeltaE      E.FE total     E.FE Disk      E.FE Compton   E.FE NonThermal
 (keV)          (keV)          E.E/cm2/s/E    E.E/cm2/s/E    E.E/cm2/s/E    E.E/cm2/s/E    
 1.00334952E-06 3.34952256E-09 1.72347278E+09 1.72336079E+09  1581.8739      110406.12    
 1.01007101E-06 3.37196116E-09 1.75751458E+09 1.75740039E+09  1623.4256      112567.05    
 1.01683752E-06 3.39455008E-09 1.79298217E+09 1.79286571E+09  1667.4825      114790.09    
 1.02364936E-06 3.41729032E-09 1.82942363E+09 1.82930483E+09  1713.2334      117087.71    
 1.03050683E-06 3.44018290E-09 1.86554947E+09 1.86542825E+09  1758.2184      119458.49    
 1.03741024E-06 3.46322884E-09 1.90400405E+09 1.90388024E+09  1807.4939      122001.26    
 1.04435990E-06 3.48642917E-09 1.94187525E+09 1.94174893E+09  1855.4927      124466.47    
 1.05135611E-06 3.50978492E-09 1.98078254E+09 1.98065367E+09  1905.3108      126969.36    
 1.05839920E-06 3.53329712E-09 2.02131388E+09 2.02118238E+09  1958.1341      129539.82    
 1.06548946E-06 3.55696684E-09 2.06122494E+09 2.06109088E+09  2009.5554      132042.72    
 1.07262722E-06 3.58079512E-09 2.10341355E+09 2.10327678E+09  2065.2911      134708.07    
 1.07981280E-06 3.60478303E-09 2.14554159E+09 2.14540198E+09  2120.7303      137490.20    
 1.08704652E-06 3.62893164E-09 2.18821957E+09 2.18807708E+09  2177.0572      140305.97    
 1.09432869E-06 3.65324201E-09 2.23329642E+09 2.23315094E+09  2238.0390      143243.03    
 1.10165965E-06 3.67771524E-09 2.27738858E+09 2.27724021E+09  2296.8175      146075.67    
 1.10903971E-06 3.70235243E-09 2.32367121E+09 2.32351984E+09  2359.8543      149011.35    
 1.11646922E-06 3.72715465E-09 2.37053065E+09 2.37037629E+09  2423.8791      151945.59    
 1.12394850E-06 3.75212303E-09 2.41734168E+09 2.41718427E+09  2487.5585      154914.02    
 1.13147788E-06 3.77725867E-09 2.46746998E+09 2.46730918E+09  2557.9508      158242.93    
 1.13905770E-06 3.80256270E-09 2.51618020E+09 2.51601612E+09  2625.1389      161450.32    
 1.14668830E-06 3.82803623E-09 2.56695112E+09 2.56678367E+09  2696.4261      164756.52    
 1.15437002E-06 3.85368042E-09 2.61906951E+09 2.61889864E+09  2770.3572      168103.11    
 1.16210319E-06 3.87949640E-09 2.67075922E+09 2.67058500E+09  2843.0968      171382.32    
 1.16988818E-06 3.90548532E-09 2.72580122E+09 2.72562347E+09  2922.8262      174822.98    
 1.17772531E-06 3.93164835E-09 2.77996259E+09 2.77978130E+09  3000.3878      178286.25    
 1.18561494E-06 3.95798663E-09 2.83565361E+09 2.83546854E+09  3080.9971      181985.99    
 1.19355743E-06 3.98450137E-09 2.89361657E+09 2.89342760E+09  3166.3570      185809.16    
 1.20155313E-06 4.01119372E-09 2.95071806E+09 2.95052529E+09  3249.5035      189522.23    
 1.20960239E-06 4.03806489E-09 3.01110087E+09 3.01090413E+09  3339.6859      193399.90    
 1.21770557E-06 4.06511607E-09 3.07134495E+09 3.07114430E+09  3429.2706      197215.76    
 1.22586303E-06 4.09234846E-09 3.13242872E+09 3.13222416E+09  3520.4118      201039.70    
 1.23407514E-06 4.11976329E-09 3.19688635E+09 3.19667754E+09  3618.9555      205188.02    
 1.24234227E-06 4.14736177E-09 3.25996470E+09 3.25975161E+09  3713.9978      209380.88    
 1.25066478E-06 4.17514513E-09 3.32620247E+09 3.32598490E+09  3815.9936      213749.22    
 1.25904304E-06 4.20311462E-09 3.39320704E+09 3.39298502E+09  3919.4523      218104.73    
 1.26747742E-06 4.23127147E-09 3.46020187E+09 3.45997544E+09  4022.4904      222406.89    
 1.27596831E-06 4.25961695E-09 3.53187621E+09 3.53164513E+09  4136.2412      226942.44    
 1.28451608E-06 4.28815232E-09 3.60155497E+09 3.60131941E+09  4244.8810      231314.46    
 1.29312111E-06 4.31687884E-09 3.67421064E+09 3.67397026E+09  4360.2264      236013.82    
 1.30178379E-06 4.34579781E-09 3.74872822E+09 3.74848277E+09  4479.6928      240975.80    
 1.31050450E-06 4.37491051E-09 3.82266575E+09 3.82241531E+09  4597.3084      245842.91    
 1.31928362E-06 4.40421823E-09 3.90142678E+09 3.90117108E+09  4726.3107      250965.97    
 1.32812156E-06 4.43372228E-09 3.97886254E+09 3.97860175E+09  4851.6405      255931.41    
 1.33701871E-06 4.46342399E-09 4.05855286E+09 4.05828690E+09  4982.0697      260979.84    
 1.34597546E-06 4.49332467E-09 4.14141858E+09 4.14114728E+09  5120.0042      266183.82    
 1.35499221E-06 4.52342565E-09 4.22308978E+09 4.22281302E+09  5254.4465      271500.06    
 1.36406936E-06 4.55372829E-09 4.30948630E+09 4.30920364E+09  5400.3617      277258.04    
 1.37320733E-06 4.58423392E-09 4.39561059E+09 4.39532212E+09  5545.1196      282924.56    
 1.38240650E-06 4.61494391E-09 4.48301128E+09 4.48271698E+09  5692.5898      288605.98    
 1.39166731E-06 4.64585962E-09 4.57515321E+09 4.57485285E+09  5851.8285      294513.35    
 1.40099015E-06 4.67698245E-09 4.66536448E+09 4.66505825E+09  6005.5045      300225.55    
 1.41037545E-06 4.70831376E-09 4.76013016E+09 4.75981779E+09  6170.5340      306191.76    
 1.41982361E-06 4.73985497E-09 4.85590948E+09 4.85559067E+09  6337.7106      312468.59    
 1.42933508E-06 4.77160747E-09 4.95176020E+09 4.95143485E+09  6504.4308      318846.51    
 1.43891026E-06 4.80357269E-09 5.05420828E+09 5.05387600E+09  6688.2429      325598.56    
 1.44854958E-06 4.83575204E-09 5.15385020E+09 5.15351127E+09  6863.9039      332066.45    
 1.45825348E-06 4.86814696E-09 5.25778949E+09 5.25744371E+09  7050.5332      338733.01    
 1.46802239E-06 4.90075889E-09 5.36429683E+09 5.36394412E+09  7243.5766      345467.97    
 1.47785673E-06 4.93358930E-09 5.47002235E+09 5.46966277E+09  7433.7499      352150.15    
 1.48775696E-06 4.96663964E-09 5.58268478E+09 5.58231757E+09  7642.4710      359567.51    
 1.49772351E-06 4.99991138E-09 5.69335955E+09 5.69298477E+09  7844.9836      366936.85    
 1.50775683E-06 5.03340601E-09 5.80735300E+09 5.80697050E+09  8056.0184      374441.46    
 1.51785736E-06 5.06712502E-09 5.92578023E+09 5.92538982E+09  8278.9040      382132.91    
 1.52802556E-06 5.10106992E-09 6.04255289E+09 6.04215477E+09  8496.2832      389620.35    
 1.53826187E-06 5.13524222E-09 6.16612584E+09 6.16571967E+09  8732.3688      397434.27    
 1.54856676E-06 5.16964344E-09 6.28920472E+09 6.28879050E+09  8966.2741      405248.90    
 1.55894067E-06 5.20427512E-09 6.41421626E+09 6.41379356E+09  9204.8814      413501.74    
 1.56938409E-06 5.23913879E-09 6.54588598E+09 6.54545423E+09  9462.1921      422291.33    
 1.57989746E-06 5.27423602E-09 6.67485629E+09 6.67441581E+09  9710.6685      430769.21    
 1.59048127E-06 5.30956836E-09 6.81038793E+09 6.80993837E+09  9977.6802      439574.57    
 1.60113597E-06 5.34513740E-09 6.94724933E+09 6.94679074E+09  10247.811      448342.10    
 1.61186206E-06 5.38094472E-09 7.08433415E+09 7.08386660E+09  10517.564      457024.05    
 1.62265999E-06 5.41699191E-09 7.23071362E+09 7.23023647E+09  10814.583      466332.79    
 1.63353026E-06 5.45328058E-09 7.37315111E+09 7.37266421E+09  11098.604      475801.33    
 1.64447336E-06 5.48981235E-09 7.52178865E+09 7.52129153E+09  11400.563      485716.46    
 1.65548976E-06 5.52658885E-09 7.67396239E+09 7.67345495E+09  11712.491      495727.20    
 1.66657996E-06 5.56361172E-09 7.82508666E+09 7.82456910E+09  12019.975      505541.43    
 1.67774445E-06 5.60088261E-09 7.98618008E+09 7.98565186E+09  12357.670      515861.67    
 1.68898374E-06 5.63840317E-09 8.14430073E+09 8.14376217E+09  12684.889      525869.69    
 1.70029832E-06 5.67617509E-09 8.30729952E+09 8.30675022E+09  13026.335      536274.38    
 1.71168869E-06 5.71420004E-09 8.47648331E+09 8.47592233E+09  13386.482      547590.74    
 1.72315537E-06 5.75247973E-09 8.64337971E+09 8.64280727E+09  13737.953      558703.06    
 1.73469887E-06 5.79101585E-09 8.82005673E+09 8.81947227E+09  14119.921      570335.98    
 1.74631969E-06 5.82981012E-09 8.99587825E+09 8.99528200E+09  14497.864      581745.35    
 1.75801837E-06 5.86886429E-09 9.17461388E+09 9.17400579E+09  14883.921      593206.87    
 1.76979541E-06 5.90818007E-09 9.36269101E+09 9.36207062E+09  15299.693      605091.49    
 1.78165135E-06 5.94775924E-09 9.54699859E+09 9.54636595E+09  15701.440      616937.57    
 1.79358672E-06 5.98760354E-09 9.74075313E+09 9.74010705E+09  16133.443      629941.87    
 1.80560203E-06 6.02771477E-09 9.93623860E+09 9.93557906E+09  16569.919      642966.44    
 1.81769784E-06 6.06809470E-09 1.01322167E+10 1.01315438E+10  17006.369      655859.03    
 1.82987468E-06 6.10874514E-09 1.03412789E+10 1.03405920E+10  17486.302      669434.84    
 1.84213310E-06 6.14966790E-09 1.05448073E+10 1.05441069E+10  17945.516      682476.40    
 1.85447363E-06 6.19086481E-09 1.07572739E+10 1.07565596E+10  18434.061      695916.57    
 1.86689683E-06 6.23233769E-09 1.09746011E+10 1.09738722E+10  18938.070      710000.62    
 1.87940326E-06 6.27408840E-09 1.11905273E+10 1.11897834E+10  19435.218      724490.00    
 1.89199346E-06 6.31611880E-09 1.14207715E+10 1.14200117E+10  19981.567      739861.83    
 1.90466801E-06 6.35843077E-09 1.16465825E+10 1.16458073E+10  20510.271      754703.49    
 1.91742747E-06 6.40102618E-09 1.18795528E+10 1.18787619E+10  21062.701      769837.98    
 1.93027240E-06 6.44390694E-09 1.21211393E+10 1.21203323E+10  21644.624      785311.34    
 1.94320339E-06 6.48707497E-09 1.23595691E+10 1.23587464E+10  22212.884      800429.31    
 1.95622099E-06 6.53053217E-09 1.26120564E+10 1.26112167E+10  22830.859      816887.80    
 1.96932581E-06 6.57428050E-09 1.28631109E+10 1.28622536E+10  23441.520      833775.69    
 1.98251841E-06 6.61832191E-09 1.31185448E+10 1.31176700E+10  24066.126      850804.80    
 1.99579939E-06 6.66265834E-09 1.33870732E+10 1.33861800E+10  24737.926      868481.27    
 2.00916934E-06 6.70729179E-09 1.36503431E+10 1.36494321E+10  25387.468      885575.03    
 2.02262885E-06 6.75222424E-09 1.39272024E+10 1.39262730E+10  26086.392      903321.28    
 2.03617854E-06 6.79745770E-09 1.42062929E+10 1.42053451E+10  26791.625      921053.26    
 2.04981899E-06 6.84299417E-09 1.44863348E+10 1.44853679E+10  27497.763      939402.75    
 2.06355082E-06 6.88883570E-09 1.47847806E+10 1.47837928E+10  28273.230      959544.81    
 2.07737464E-06 6.93498432E-09 1.50754670E+10 1.50744590E+10  29015.678      978899.15    
 2.09129106E-06 6.98144209E-09 1.53790291E+10 1.53780004E+10  29806.077      998888.17    
 2.10530072E-06 7.02821109E-09 1.56892570E+10 1.56882073E+10  30620.427      1019032.0    
 2.11940422E-06 7.07529339E-09 1.59976233E+10 1.59965531E+10  31424.201      1038819.6    
 2.13360221E-06 7.12269110E-09 1.63265375E+10 1.63254454E+10  32308.096      1059747.3    
 2.14789530E-06 7.17040633E-09 1.66488600E+10 1.66477457E+10  33162.321      1081051.0    
 2.16228415E-06 7.21844121E-09 1.69816751E+10 1.69805376E+10  34056.077      1103492.2    
 2.17676939E-06 7.26679787E-09 1.73264794E+10 1.73253179E+10  34996.311      1126499.7    
 2.19135167E-06 7.31547848E-09 1.76669362E+10 1.76657514E+10  35915.049      1148904.3    
 2.20603163E-06 7.36448520E-09 1.80275799E+10 1.80263706E+10  36914.820      1172341.4    
 2.22080994E-06 7.41382021E-09 1.83858769E+10 1.83846437E+10  37901.462      1195313.0    
 2.23568724E-06 7.46348573E-09 1.87507341E+10 1.87494766E+10  38911.985      1218618.6    
 2.25066421E-06 7.51348396E-09 1.91339285E+10 1.91326444E+10  39997.433      1244101.2    
 2.26574151E-06 7.56381713E-09 1.95097989E+10 1.95084884E+10  41047.573      1269450.0    
 2.28091982E-06 7.61448748E-09 1.99052028E+10 1.99038648E+10  42178.303      1295856.5    
 2.29619980E-06 7.66549727E-09 2.03034489E+10 2.03020835E+10  43317.740      1322071.0    
 2.31158215E-06 7.71684879E-09 2.07034035E+10 2.07020109E+10  44460.166      1348083.8    
 2.32706754E-06 7.76854430E-09 2.11292172E+10 2.11277962E+10  45713.109      1375378.7    
 2.34265667E-06 7.82058613E-09 2.15441643E+10 2.15427153E+10  46913.442      1402019.7    
 2.35835023E-06 7.87297659E-09 2.19776440E+10 2.19761648E+10  48192.156      1430956.5    
 2.37414893E-06 7.92571802E-09 2.24202460E+10 2.24187356E+10  49507.887      1460891.6    
 2.39005346E-06 7.97881276E-09 2.28603920E+10 2.28588510E+10  50807.359      1490256.4    
 2.40606454E-06 8.03226319E-09 2.33300010E+10 2.33284275E+10  52237.292      1521216.1    
 2.42218287E-06 8.08607168E-09 2.37898320E+10 2.37882272E+10  53617.412      1551105.4    
 2.43840918E-06 8.14024064E-09 2.42650149E+10 2.42633782E+10  55063.332      1581621.2    
 2.45474420E-06 8.19477248E-09 2.47568578E+10 2.47551879E+10  56582.447      1613295.7    
 2.47118864E-06 8.24966963E-09 2.52427285E+10 2.52410245E+10  58067.765      1645913.6    
 2.48774324E-06 8.30493454E-09 2.57575638E+10 2.57558233E+10  59685.153      1680805.5    
 2.50440875E-06 8.36056967E-09 2.62686269E+10 2.62668507E+10  61279.203      1714907.1    
 2.52118589E-06 8.41657750E-09 2.67894852E+10 2.67876730E+10  62914.023      1749254.0    
 2.53807543E-06 8.47296053E-09 2.73359895E+10 2.73341400E+10  64667.750      1784801.0    
 2.55507811E-06 8.52972128E-09 2.78723069E+10 2.78704212E+10  66365.488      1819274.9    
 2.57219470E-06 8.58686227E-09 2.84366755E+10 2.84347516E+10  68194.726      1855726.3    
 2.58942595E-06 8.64438604E-09 2.90046145E+10 2.90026503E+10  70035.630      1894169.8    
 2.60677263E-06 8.70229518E-09 2.95754913E+10 2.95734866E+10  71883.834      1932797.9    
 2.62423551E-06 8.76059224E-09 3.01826656E+10 3.01806183E+10  73908.167      1973418.6    
 2.64181539E-06 8.81927985E-09 3.07746400E+10 3.07725517E+10  75848.696      2012436.7    
 2.65951303E-06 8.87836060E-09 3.13932588E+10 3.13911281E+10  77917.326      2052726.9    
 2.67732922E-06 8.93783714E-09 3.20243288E+10 3.20221555E+10  80043.045      2093266.9    
 2.69526477E-06 8.99771211E-09 3.26521846E+10 3.26499685E+10  82143.834      2134015.9    
 2.71332047E-06 9.05798819E-09 3.33222481E+10 3.33199840E+10  84457.033      2179697.5    
 2.73149713E-06 9.11866806E-09 3.39778486E+10 3.39755379E+10  86686.716      2224042.0    
 2.74979555E-06 9.17975443E-09 3.46558760E+10 3.46535176E+10  89025.831      2269403.2    
 2.76821656E-06 9.24125002E-09 3.53570176E+10 3.53546104E+10  91480.127      2315680.6    
 2.78676096E-06 9.30315757E-09 3.60499709E+10 3.60475162E+10  93881.336      2360846.3    
 2.80542960E-06 9.36547984E-09 3.67844390E+10 3.67819344E+10  96497.765      2408056.5    
 2.82422330E-06 9.42821962E-09 3.75129325E+10 3.75103776E+10  99073.055      2455838.6    
 2.84314290E-06 9.49137968E-09 3.82560096E+10 3.82534014E+10  101717.75      2506481.2    
 2.86218924E-06 9.55496287E-09 3.90349124E+10 3.90322485E+10  104551.07      2559353.6    
 2.88136318E-06 9.61897199E-09 3.97996713E+10 3.97969535E+10  107295.65      2610490.6    
 2.90066556E-06 9.68340992E-09 4.06046695E+10 4.06018956E+10  110254.76      2663697.5    
 2.92009725E-06 9.74827952E-09 4.14140650E+10 4.14112353E+10  113228.85      2716455.6    
 2.93965911E-06 9.81358368E-09 4.22283573E+10 4.22254721E+10  116218.72      2768929.2    
 2.95935202E-06 9.87932532E-09 4.30935402E+10 4.30905946E+10  119489.21      2826105.2    
 2.97917685E-06 9.94550737E-09 4.39374965E+10 4.39344902E+10  122626.24      2883762.6    
 2.99913449E-06 1.00121328E-08 4.48197204E+10 4.48166508E+10  125972.60      2943683.0    
 3.01922583E-06 1.00792045E-08 4.57188948E+10 4.57157615E+10  129406.80      3003907.7    
 3.03945176E-06 1.01467255E-08 4.66138988E+10 4.66107029E+10  132802.88      3063101.1    
 3.05981319E-06 1.02146989E-08 4.75692943E+10 4.75660323E+10  136544.76      3125442.8    
 3.08031101E-06 1.02831276E-08 4.85033541E+10 4.85000281E+10  140146.81      3185824.4    
 3.10094616E-06 1.03520148E-08 4.94701224E+10 4.94667284E+10  143930.70      3250077.5    
 3.12171953E-06 1.04213634E-08 5.04689107E+10 5.04654442E+10  147895.70      3318604.9    
 3.14263207E-06 1.04911766E-08 5.14565069E+10 5.14529695E+10  151777.38      3385623.1    
 3.16368471E-06 1.05614574E-08 5.25035401E+10 5.24999281E+10  156009.74      3455902.5    
 3.18487837E-06 1.06322091E-08 5.35412182E+10 5.35375335E+10  160170.09      3524549.1    
 3.20621402E-06 1.07034348E-08 5.46005367E+10 5.45967785E+10  164448.27      3593809.6    
 3.22769259E-06 1.07751376E-08 5.57098298E+10 5.57059951E+10  169025.56      3665684.1    
 3.24931505E-06 1.08473207E-08 5.67995260E+10 5.67956138E+10  173462.25      3738678.9    
 3.27108236E-06 1.09199874E-08 5.79468807E+10 5.79428849E+10  178248.92      3817584.1    
 3.29299549E-06 1.09931409E-08 5.90995240E+10 5.90954450E+10  183053.48      3895929.6    
 3.31505541E-06 1.10667844E-08 6.02601480E+10 6.02559863E+10  187890.00      3973848.1    
 3.33726312E-06 1.11409213E-08 6.14920220E+10 6.14877733E+10  193173.51      4055500.1    
 3.35961959E-06 1.12155548E-08 6.26942945E+10 6.26899621E+10  198244.55      4134147.2    
 3.38212584E-06 1.12906884E-08 6.39514587E+10 6.39470392E+10  203657.57      4215901.1    
 3.40478285E-06 1.13663252E-08 6.52316342E+10 6.52271226E+10  209205.38      4302379.5    
 3.42759164E-06 1.14424687E-08 6.65064634E+10 6.65018587E+10  214695.13      4390046.1    
 3.45055323E-06 1.15191223E-08 6.78676012E+10 6.78628976E+10  220747.76      4482895.0    
 3.47366865E-06 1.15962894E-08 6.91973500E+10 6.91925512E+10  226566.56      4572180.5    
 3.49693891E-06 1.16739735E-08 7.05747089E+10 7.05698126E+10  232687.27      4663617.8    
 3.52036506E-06 1.17521780E-08 7.19963360E+10 7.19913403E+10  239092.52      4756692.2    
 3.54394814E-06 1.18309064E-08 7.34027141E+10 7.33976202E+10  245367.14      4848566.2    
 3.56768921E-06 1.19101621E-08 7.48940834E+10 7.48888813E+10  252213.08      4949961.7    
 3.59158932E-06 1.19899488E-08 7.63709608E+10 7.63656500E+10  258933.70      5051840.3    
 3.61564954E-06 1.20702701E-08 7.78798598E+10 7.78744392E+10  265853.92      5154736.9    
 3.63987094E-06 1.21511293E-08 7.94583618E+10 7.94528275E+10  273248.22      5261036.8    
 3.66425460E-06 1.22325303E-08 8.10097599E+10 8.10041154E+10  280419.88      5364104.3    
 3.68880161E-06 1.23144766E-08 8.26436573E+10 8.26378978E+10  288162.36      5471286.2    
 3.71351306E-06 1.23969718E-08 8.42837063E+10 8.42778314E+10  295923.56      5578982.7    
 3.73839005E-06 1.24800197E-08 8.59365410E+10 8.59305453E+10  303746.87      5691892.5    
 3.76343369E-06 1.25636239E-08 8.76889888E+10 8.76828632E+10  312281.92      5813376.5    
 3.78864510E-06 1.26477882E-08 8.94002361E+10 8.93939856E+10  320478.84      5930064.7    
 3.81402541E-06 1.27325163E-08 9.11901111E+10 9.11837311E+10  329234.37      6050805.3    
 3.83957574E-06 1.28178120E-08 9.30111111E+10 9.30046009E+10  338196.12      6171954.8    
 3.86529723E-06 1.29036791E-08 9.48253456E+10 9.48187073E+10  347069.75      6291259.5    
 3.89119103E-06 1.29901214E-08 9.67627553E+10 9.67559796E+10  356859.53      6418878.5    
 3.91725829E-06 1.30771428E-08 9.86541249E+10 9.86472092E+10  366258.74      6549367.4    
 3.94350018E-06 1.31647472E-08 1.00614668E+11 1.00607606E+11  376158.86      6685277.8    
 3.96991787E-06 1.32529384E-08 1.02636296E+11 1.02629085E+11  386505.58      6823614.0    
 3.99651253E-06 1.33417205E-08 1.04637218E+11 1.04629862E+11  396647.70      6958679.9    
 4.02328535E-06 1.34310972E-08 1.06759481E+11 1.06751974E+11  407720.50      7100201.4    
 4.05023752E-06 1.35210728E-08 1.08859488E+11 1.08851831E+11  418576.33      7238391.1    
 4.07737024E-06 1.36116511E-08 1.11006737E+11 1.10998927E+11  429769.51      7380524.2    
 4.10468473E-06 1.37028361E-08 1.13250769E+11 1.13242790E+11  441713.76      7536782.0    
 4.13218219E-06 1.37946320E-08 1.15457412E+11 1.15449269E+11  453305.63      7689693.9    
