 OPTXAGNF AGN Spectrum Model Parameters: NLS, Astar 0.0                          
 M_BH:  1.0000E+09 M_0            L  :  0.3000     L/Ledd 
 D   :  1.5000E+18 cm             z  :   0.000     redshift 
 Rcor:   40.00     Rg             Ro :   4.000     Rg 
 C_T :  0.2000     keV            Tau:   15.00     Optical Depth 
 gam :   2.200     (-slope)       fpl:  0.2000     Fraction 
 E              0.5DeltaE      E.FE total     E.FE Disk      E.FE Compton   E.FE NonThermal
 (keV)          (keV)          E.E/cm2/s/E    E.E/cm2/s/E    E.E/cm2/s/E    E.E/cm2/s/E    
 1.00334952E-06 3.34952256E-09 3.10946900E+09 3.10923962E+09  758.38383      228616.16    
 1.01007101E-06 3.37196116E-09 3.17100281E+09 3.17076882E+09  778.30721      233205.48    
 1.01683752E-06 3.39455008E-09 3.23512246E+09 3.23488373E+09  799.43199      237932.12    
 1.02364936E-06 3.41729032E-09 3.30100804E+09 3.30076450E+09  821.36915      242720.08    
 1.03050683E-06 3.44018290E-09 3.36631860E+09 3.36607034E+09  842.93903      247414.33    
 1.03741024E-06 3.46322884E-09 3.43585485E+09 3.43560151E+09  866.56648      252480.08    
 1.04435990E-06 3.48642917E-09 3.50433052E+09 3.50407196E+09  889.58171      257671.45    
 1.05135611E-06 3.50978492E-09 3.57468527E+09 3.57442136E+09  913.46942      262991.24    
 1.05839920E-06 3.53329712E-09 3.64798710E+09 3.64771770E+09  938.79834      268460.48    
 1.06548946E-06 3.55696684E-09 3.72016045E+09 3.71988571E+09  963.45498      273773.51    
 1.07262722E-06 3.58079512E-09 3.79646780E+09 3.79618750E+09  990.18067      279315.78    
 1.07981280E-06 3.60478303E-09 3.87266286E+09 3.87237705E+09  1016.7642      284788.39    
 1.08704652E-06 3.62893164E-09 3.94985450E+09 3.94956303E+09  1043.7734      290432.69    
 1.09432869E-06 3.65324201E-09 4.03140201E+09 4.03110430E+09  1073.0151      296638.99    
 1.10165965E-06 3.67771524E-09 4.11115834E+09 4.11085459E+09  1101.2002      302655.10    
 1.10903971E-06 3.70235243E-09 4.19489192E+09 4.19458189E+09  1131.4275      308899.47    
 1.11646922E-06 3.72715465E-09 4.27967130E+09 4.27935501E+09  1162.1287      315132.12    
 1.12394850E-06 3.75212303E-09 4.36435977E+09 4.36403730E+09  1192.6642      321285.53    
 1.13147788E-06 3.77725867E-09 4.45507406E+09 4.45474504E+09  1226.4193      327788.72    
 1.13905770E-06 3.80256270E-09 4.54320870E+09 4.54287316E+09  1258.6377      334281.12    
 1.14668830E-06 3.82803623E-09 4.63508629E+09 4.63474372E+09  1292.8220      341275.54    
 1.15437002E-06 3.85368042E-09 4.72941076E+09 4.72906103E+09  1328.2744      348393.72    
 1.16210319E-06 3.87949640E-09 4.82295281E+09 4.82259609E+09  1363.1553      355358.55    
 1.16988818E-06 3.90548532E-09 4.92258691E+09 4.92222283E+09  1401.3887      362680.01    
 1.17772531E-06 3.93164835E-09 5.02061667E+09 5.02024544E+09  1438.5825      369787.74    
 1.18561494E-06 3.95798663E-09 5.12142430E+09 5.12104580E+09  1477.2380      377021.48    
 1.19355743E-06 3.98450137E-09 5.22636109E+09 5.22597478E+09  1518.1720      384793.64    
 1.20155313E-06 4.01119372E-09 5.32972795E+09 5.32933373E+09  1558.0444      392666.19    
 1.20960239E-06 4.03806489E-09 5.43906006E+09 5.43865754E+09  1601.2915      400917.58    
 1.21770557E-06 4.06511607E-09 5.54813655E+09 5.54772588E+09  1644.2520      409028.14    
 1.22586303E-06 4.09234846E-09 5.65873677E+09 5.65831793E+09  1687.9590      417153.59    
 1.23407514E-06 4.11976329E-09 5.77547199E+09 5.77504465E+09  1735.2166      425603.64    
 1.24234227E-06 4.14736177E-09 5.88969334E+09 5.88925776E+09  1780.7949      433805.36    
 1.25066478E-06 4.17514513E-09 6.00966063E+09 6.00921607E+09  1829.7084      442734.82    
 1.25904304E-06 4.20311462E-09 6.13102021E+09 6.13056633E+09  1879.3236      451995.95    
 1.26747742E-06 4.23127147E-09 6.25235753E+09 6.25189447E+09  1928.7371      461134.43    
 1.27596831E-06 4.25961695E-09 6.38220948E+09 6.38173670E+09  1983.2890      470791.77    
 1.28451608E-06 4.28815232E-09 6.50842416E+09 6.50794207E+09  2035.3895      480048.07    
 1.29312111E-06 4.31687884E-09 6.64005386E+09 6.63956219E+09  2090.7064      489580.10    
 1.30178379E-06 4.34579781E-09 6.77506946E+09 6.77456802E+09  2148.0001      499286.91    
 1.31050450E-06 4.37491051E-09 6.90902423E+09 6.90851272E+09  2204.4060      509313.24    
 1.31928362E-06 4.40421823E-09 7.05175973E+09 7.05123725E+09  2266.2739      520209.25    
 1.32812156E-06 4.43372228E-09 7.19207660E+09 7.19154352E+09  2326.3803      530759.82    
 1.33701871E-06 4.46342399E-09 7.33649503E+09 7.33595115E+09  2388.9327      541491.88    
 1.34597546E-06 4.49332467E-09 7.48669376E+09 7.48613880E+09  2455.0853      552496.45    
 1.35499221E-06 4.52342565E-09 7.63470999E+09 7.63414426E+09  2519.5629      563212.30    
 1.36406936E-06 4.55372829E-09 7.79133114E+09 7.79075405E+09  2589.5440      574497.17    
 1.37320733E-06 4.58423392E-09 7.94745158E+09 7.94686266E+09  2658.9699      586261.72    
 1.38240650E-06 4.61494391E-09 8.10589232E+09 8.10529126E+09  2729.6971      598323.01    
 1.39166731E-06 4.64585962E-09 8.27297013E+09 8.27235642E+09  2806.0695      610897.61    
 1.40099015E-06 4.67698245E-09 8.43652212E+09 8.43589621E+09  2879.7738      623031.62    
 1.41037545E-06 4.70831376E-09 8.60837125E+09 8.60773267E+09  2958.9243      635620.75    
 1.41982361E-06 4.73985497E-09 8.78206212E+09 8.78141091E+09  3039.1049      648169.25    
 1.42933508E-06 4.77160747E-09 8.95587577E+09 8.95521191E+09  3119.0667      660747.38    
 1.43891026E-06 4.80357269E-09 9.14171637E+09 9.14103835E+09  3207.2278      674810.15    
 1.44854958E-06 4.83575204E-09 9.32243194E+09 9.32174010E+09  3291.4788      688548.99    
 1.45825348E-06 4.86814696E-09 9.51097927E+09 9.51027316E+09  3380.9916      702727.19    
 1.46802239E-06 4.90075889E-09 9.70420512E+09 9.70348459E+09  3473.5815      717053.81    
 1.47785673E-06 4.93358930E-09 9.89599611E+09 9.89526144E+09  3564.7946      731101.15    
 1.48775696E-06 4.96663964E-09 1.01004379E+10 1.00996884E+10  3664.9059      745852.66    
 1.49772351E-06 4.99991138E-09 1.03012446E+10 1.03004804E+10  3762.0388      760478.09    
 1.50775683E-06 5.03340601E-09 1.05081006E+10 1.05073206E+10  3863.2603      776141.80    
 1.51785736E-06 5.06712502E-09 1.07230432E+10 1.07222467E+10  3970.1673      792509.42    
 1.52802556E-06 5.10106992E-09 1.09349559E+10 1.09341434E+10  4074.4327      808415.73    
 1.53826187E-06 5.13524222E-09 1.11592768E+10 1.11584476E+10  4187.6726      825046.34    
 1.54856676E-06 5.16964344E-09 1.13826867E+10 1.13818410E+10  4299.8668      841380.50    
 1.55894067E-06 5.20427512E-09 1.16096153E+10 1.16087531E+10  4414.3168      857776.38    
 1.56938409E-06 5.23913879E-09 1.18486970E+10 1.18478172E+10  4537.7403      875238.36    
 1.57989746E-06 5.27423602E-09 1.20828383E+10 1.20819406E+10  4656.9255      893035.47    
 1.59048127E-06 5.30956836E-09 1.23289574E+10 1.23280408E+10  4785.0035      911770.82    
 1.60113597E-06 5.34513740E-09 1.25774966E+10 1.25765613E+10  4914.5780      930415.91    
 1.61186206E-06 5.38094472E-09 1.28264323E+10 1.28254784E+10  5043.9720      948862.55    
 1.62265999E-06 5.41699191E-09 1.30923460E+10 1.30913725E+10  5186.4472      968284.20    
 1.63353026E-06 5.45328058E-09 1.33510419E+10 1.33500496E+10  5322.6870      986978.41    
 1.64447336E-06 5.48981235E-09 1.36210606E+10 1.36200483E+10  5467.5331      1006765.0    
 1.65548976E-06 5.52658885E-09 1.38975352E+10 1.38965017E+10  5617.1622      1027876.6    
 1.66657996E-06 5.56361172E-09 1.41720775E+10 1.41710230E+10  5764.6600      1048727.9    
 1.67774445E-06 5.60088261E-09 1.44648409E+10 1.44637643E+10  5926.6528      1070702.5    
 1.68898374E-06 5.63840317E-09 1.47521542E+10 1.47510562E+10  6083.6196      1091956.9    
 1.70029832E-06 5.67617509E-09 1.50483768E+10 1.50472569E+10  6247.4129      1113605.9    
 1.71168869E-06 5.71420004E-09 1.53559022E+10 1.53547600E+10  6420.1795      1135796.3    
 1.72315537E-06 5.75247973E-09 1.56592278E+10 1.56580630E+10  6588.7832      1158147.4    
 1.73469887E-06 5.79101585E-09 1.59804403E+10 1.59792508E+10  6772.0204      1182747.8    
 1.74631969E-06 5.82981012E-09 1.63000732E+10 1.62988593E+10  6953.3269      1207004.4    
 1.75801837E-06 5.86886429E-09 1.66250242E+10 1.66237856E+10  7138.5269      1231368.4    
 1.76979541E-06 5.90818007E-09 1.69670643E+10 1.69658003E+10  7337.9856      1256663.7    
 1.78165135E-06 5.94775924E-09 1.73021849E+10 1.73008963E+10  7530.7149      1281136.3    
 1.79358672E-06 5.98760354E-09 1.76545887E+10 1.76532744E+10  7737.9627      1306559.3    
 1.80560203E-06 6.02771477E-09 1.80101482E+10 1.80088073E+10  7947.3569      1332947.1    
 1.81769784E-06 6.06809470E-09 1.83665921E+10 1.83652236E+10  8156.7394      1360245.3    
 1.82987468E-06 6.10874514E-09 1.87469927E+10 1.87455951E+10  8386.9876      1389159.1    
 1.84213310E-06 6.14966790E-09 1.91172347E+10 1.91158093E+10  8607.2943      1416870.2    
 1.85447363E-06 6.19086481E-09 1.95038380E+10 1.95023837E+10  8841.6760      1445462.2    
 1.86689683E-06 6.23233769E-09 1.98993320E+10 1.98978486E+10  9083.4794      1474299.2    
 1.87940326E-06 6.27408840E-09 2.02922349E+10 2.02907229E+10  9321.9904      1502657.5    
 1.89199346E-06 6.31611880E-09 2.07113722E+10 2.07098287E+10  9584.1122      1533939.3    
 1.90466801E-06 6.35843077E-09 2.11223612E+10 2.11207859E+10  9837.7673      1565484.5    
 1.91742747E-06 6.40102618E-09 2.15464577E+10 2.15448499E+10  10102.809      1597671.7    
 1.93027240E-06 6.44390694E-09 2.19863391E+10 2.19846981E+10  10382.004      1630606.0    
 1.94320339E-06 6.48707497E-09 2.24204051E+10 2.24187317E+10  10654.643      1662686.5    
 1.95622099E-06 6.53053217E-09 2.28802415E+10 2.28785344E+10  10951.142      1696203.2    
 1.96932581E-06 6.57428050E-09 2.33374245E+10 2.33356840E+10  11244.130      1729274.8    
 1.98251841E-06 6.61832191E-09 2.38026206E+10 2.38008449E+10  11543.812      1764170.9    
 1.99579939E-06 6.66265834E-09 2.42918334E+10 2.42900198E+10  11866.143      1801767.4    
 2.00916934E-06 6.70729179E-09 2.47713648E+10 2.47695146E+10  12177.794      1838092.9    
 2.02262885E-06 6.75222424E-09 2.52758240E+10 2.52739357E+10  12513.144      1875863.5    
 2.03617854E-06 6.79745770E-09 2.57843554E+10 2.57824292E+10  12851.524      1913403.0    
 2.04981899E-06 6.84299417E-09 2.62946020E+10 2.62926381E+10  13190.337      1950634.7    
 2.06355082E-06 6.88883570E-09 2.68386333E+10 2.68366297E+10  13562.427      1990025.8    
 2.07737464E-06 6.93498432E-09 2.73683794E+10 2.73663354E+10  13918.669      2030069.1    
 2.09129106E-06 6.98144209E-09 2.79217578E+10 2.79196710E+10  14297.927      2072539.9    
 2.10530072E-06 7.02821109E-09 2.84873600E+10 2.84852299E+10  14688.680      2115405.1    
 2.11940422E-06 7.07529339E-09 2.90495047E+10 2.90473322E+10  15074.359      2157458.4    
 2.13360221E-06 7.12269110E-09 2.96494009E+10 2.96471837E+10  15498.494      2201732.2    
 2.14789530E-06 7.17040633E-09 3.02371400E+10 3.02348796E+10  15908.389      2244551.3    
 2.16228415E-06 7.21844121E-09 3.08441403E+10 3.08418353E+10  16337.260      2288696.2    
 2.17676939E-06 7.26679787E-09 3.14731667E+10 3.14708134E+10  16788.440      2336482.7    
 2.19135167E-06 7.31547848E-09 3.20941558E+10 3.20917545E+10  17229.302      2384065.0    
 2.20603163E-06 7.36448520E-09 3.27522587E+10 3.27498071E+10  17709.063      2433972.2    
 2.22080994E-06 7.41382021E-09 3.34060054E+10 3.34035044E+10  18182.521      2482823.1    
 2.23568724E-06 7.46348573E-09 3.40717851E+10 3.40692344E+10  18667.445      2531982.5    
 2.25066421E-06 7.51348396E-09 3.47712893E+10 3.47686873E+10  19188.334      2582870.3    
 2.26574151E-06 7.56381713E-09 3.54572622E+10 3.54546094E+10  19692.276      2633041.6    
 2.28091982E-06 7.61448748E-09 3.61791735E+10 3.61764652E+10  20234.905      2688030.8    
 2.29619980E-06 7.66549727E-09 3.69062806E+10 3.69035160E+10  20781.714      2743801.2    
 2.31158215E-06 7.71684879E-09 3.76364854E+10 3.76336650E+10  21329.960      2799100.7    
 2.32706754E-06 7.76854430E-09 3.84143056E+10 3.84114264E+10  21931.260      2857248.8    
 2.34265667E-06 7.82058613E-09 3.91720465E+10 3.91691108E+10  22507.306      2913136.1    
 2.35835023E-06 7.87297659E-09 3.99639001E+10 3.99609062E+10  23120.980      2970789.4    
 2.37414893E-06 7.92571802E-09 4.07725282E+10 4.07694743E+10  23752.427      3030186.9    
 2.39005346E-06 7.97881276E-09 4.15765727E+10 4.15734568E+10  24376.069      3091587.8    
 2.40606454E-06 8.03226319E-09 4.24349188E+10 4.24317362E+10  25062.345      3157546.5    
 2.42218287E-06 8.08607168E-09 4.32751706E+10 4.32719238E+10  25724.707      3221093.8    
 2.43840918E-06 8.14024064E-09 4.41436918E+10 4.41403793E+10  26418.661      3286017.9    
 2.45474420E-06 8.19477248E-09 4.50429089E+10 4.50395295E+10  27147.757      3352290.2    
 2.47118864E-06 8.24966963E-09 4.59310343E+10 4.59275894E+10  27860.629      3417024.5    
 2.48774324E-06 8.30493454E-09 4.68725828E+10 4.68690678E+10  28636.911      3486371.0    
 2.50440875E-06 8.36056967E-09 4.78071089E+10 4.78035213E+10  29401.989      3558162.0    
 2.52118589E-06 8.41657750E-09 4.87596584E+10 4.87559970E+10  30186.644      3631217.0    
 2.53807543E-06 8.47296053E-09 4.97595310E+10 4.97557931E+10  31028.391      3706930.6    
 2.55507811E-06 8.52972128E-09 5.07405081E+10 5.07366960E+10  31843.258      3780190.2    
 2.57219470E-06 8.58686227E-09 5.17732610E+10 5.17693719E+10  32721.265      3856328.2    
 2.58942595E-06 8.64438604E-09 5.28125430E+10 5.28085774E+10  33604.876      3932031.5    
 2.60677263E-06 8.70229518E-09 5.38571764E+10 5.38531326E+10  34491.994      4009284.5    
 2.62423551E-06 8.76059224E-09 5.49688774E+10 5.49647468E+10  35463.684      4095144.4    
 2.64181539E-06 8.81927985E-09 5.60523829E+10 5.60481684E+10  36395.138      4178096.6    
 2.65951303E-06 8.87836060E-09 5.71851028E+10 5.71808015E+10  37388.104      4263861.1    
 2.67732922E-06 8.93783714E-09 5.83407895E+10 5.83364009E+10  38408.486      4350139.0    
 2.69526477E-06 8.99771211E-09 5.94904318E+10 5.94859575E+10  39416.898      4434948.5    
 2.71332047E-06 9.05798819E-09 6.07181338E+10 6.07135691E+10  40527.312      4524269.2    
 2.73149713E-06 9.11866806E-09 6.19189688E+10 6.19143134E+10  41597.625      4613820.2    
 2.74979555E-06 9.17975443E-09 6.31612489E+10 6.31564964E+10  42720.489      4709833.8    
 2.76821656E-06 9.24125002E-09 6.44462660E+10 6.44414138E+10  43898.669      4808384.5    
 2.78676096E-06 9.30315757E-09 6.57160062E+10 6.57110567E+10  45051.358      4904415.7    
 2.80542960E-06 9.36547984E-09 6.70625969E+10 6.70575456E+10  46307.405      5004988.2    
 2.82422330E-06 9.42821962E-09 6.83980110E+10 6.83928601E+10  47543.699      5103373.1    
 2.84314290E-06 9.49137968E-09 6.97603477E+10 6.97550963E+10  48813.326      5202571.7    
 2.86218924E-06 9.55496287E-09 7.11890373E+10 7.11836774E+10  50173.546      5309808.8    
 2.88136318E-06 9.61897199E-09 7.25913777E+10 7.25859079E+10  51491.150      5418385.1    
 2.90066556E-06 9.68340992E-09 7.40682712E+10 7.40626865E+10  52911.794      5531706.0    
 2.92009725E-06 9.74827952E-09 7.55532160E+10 7.55475177E+10  54339.628      5643988.5    
 2.93965911E-06 9.81358368E-09 7.70471183E+10 7.70413069E+10  55775.050      5755591.4    
 2.95935202E-06 9.87932532E-09 7.86354037E+10 7.86294738E+10  57345.254      5872536.3    
 2.97917685E-06 9.94550737E-09 8.01841327E+10 8.01780883E+10  58851.364      5985608.6    
 2.99913449E-06 1.00121328E-08 8.18038217E+10 8.17976533E+10  60458.017      6107868.1    
 3.01922583E-06 1.00792045E-08 8.34548896E+10 8.34485916E+10  62106.863      6235925.5    
 3.03945176E-06 1.01467255E-08 8.50980548E+10 8.50916292E+10  63737.407      6361805.1    
 3.05981319E-06 1.02146989E-08 8.68533660E+10 8.68468058E+10  65534.053      6494684.0    
 3.08031101E-06 1.02831276E-08 8.85688591E+10 8.85621691E+10  67263.537      6622701.2    
 3.10094616E-06 1.03520148E-08 9.03450256E+10 9.03382029E+10  69080.371      6753642.2    
 3.12171953E-06 1.04213634E-08 9.21806205E+10 9.21736616E+10  70984.208      6887906.6    
 3.14263207E-06 1.04911766E-08 9.39952253E+10 9.39881267E+10  72848.027      7025757.3    
 3.16368471E-06 1.05614574E-08 9.59203177E+10 9.59130676E+10  74880.308      7175245.1    
 3.18487837E-06 1.06322091E-08 9.78278328E+10 9.78204346E+10  76878.000      7321316.1    
 3.20621402E-06 1.07034348E-08 9.97754636E+10 9.97679160E+10  78932.301      7468704.7    
 3.22769259E-06 1.07751376E-08 1.01816032E+11 1.01808329E+11  81130.300      7621013.5    
 3.24931505E-06 1.08473207E-08 1.03819890E+11 1.03812038E+11  83260.763      7768750.8    
 3.27108236E-06 1.09199874E-08 1.05931024E+11 1.05923015E+11  85559.362      7923633.5    
 3.29299549E-06 1.09931409E-08 1.08051848E+11 1.08043674E+11  87866.561      8085940.9    
 3.31505541E-06 1.10667844E-08 1.10187341E+11 1.10179000E+11  90189.127      8251476.5    
 3.33726312E-06 1.11409213E-08 1.12455561E+11 1.12447042E+11  92726.443      8425540.0    
 3.35961959E-06 1.12155548E-08 1.14668339E+11 1.14659651E+11  95161.691      8592823.8    
 3.38212584E-06 1.12906884E-08 1.16983342E+11 1.16974479E+11  97761.252      8765742.1    
 3.40478285E-06 1.13663252E-08 1.19341094E+11 1.19332054E+11  100425.58      8939403.4    
 3.42759164E-06 1.14424687E-08 1.21688612E+11 1.21679397E+11  103062.02      9112405.7    
 3.45055323E-06 1.15191223E-08 1.24197144E+11 1.24187733E+11  105968.92      9305386.0    
 3.47366865E-06 1.15962894E-08 1.26646802E+11 1.26637198E+11  108763.47      9495341.0    
 3.49693891E-06 1.16739735E-08 1.29185178E+11 1.29175376E+11  111703.11      9690036.0    
 3.52036506E-06 1.17521780E-08 1.31806083E+11 1.31796080E+11  114779.47      9888333.4    
 3.54394814E-06 1.18309064E-08 1.34398196E+11 1.34387996E+11  117793.07      10081988.    
 3.56768921E-06 1.19101621E-08 1.37149025E+11 1.37138620E+11  121081.22      10284637.    
 3.59158932E-06 1.19899488E-08 1.39872478E+11 1.39861867E+11  124309.15      10486588.    
 3.61564954E-06 1.20702701E-08 1.42655570E+11 1.42644741E+11  127633.01      10701143.    
 3.63987094E-06 1.21511293E-08 1.45568716E+11 1.45557657E+11  131184.70      10927722.    
 3.66425460E-06 1.22325303E-08 1.48430797E+11 1.48419516E+11  134629.41      11146996.    
 3.68880161E-06 1.23144766E-08 1.51447121E+11 1.51435607E+11  138348.45      11375402.    
 3.71351306E-06 1.23969718E-08 1.54474676E+11 1.54462933E+11  142076.50      11601462.    
 3.73839005E-06 1.24800197E-08 1.57525834E+11 1.57513862E+11  145834.41      11826662.    
 3.76343369E-06 1.25636239E-08 1.60763469E+11 1.60751252E+11  149934.39      12067471.    
 3.78864510E-06 1.26477882E-08 1.63923504E+11 1.63911038E+11  153871.88      12312561.    
 3.81402541E-06 1.27325163E-08 1.67230698E+11 1.67217970E+11  158077.86      12569806.    
 3.83957574E-06 1.28178120E-08 1.70595975E+11 1.70582984E+11  162382.97      12827885.    
 3.86529723E-06 1.29036791E-08 1.73948147E+11 1.73934899E+11  166645.73      13081725.    
 3.89119103E-06 1.29901214E-08 1.77531285E+11 1.77517764E+11  171348.86      13349387.    
 3.91725829E-06 1.30771428E-08 1.81027544E+11 1.81013761E+11  175864.28      13607553.    
 3.94350018E-06 1.31647472E-08 1.84653362E+11 1.84639303E+11  180620.48      13878325.    
 3.96991787E-06 1.32529384E-08 1.88393644E+11 1.88379288E+11  185591.36      14170278.    
 3.99651253E-06 1.33417205E-08 1.92094546E+11 1.92079898E+11  190463.91      14457697.    
 4.02328535E-06 1.34310972E-08 1.96023272E+11 1.96008317E+11  195783.86      14759463.    
 4.05023752E-06 1.35210728E-08 1.99909694E+11 1.99894440E+11  200999.53      15053625.    
 4.07737024E-06 1.36116511E-08 2.03884536E+11 2.03868978E+11  206377.38      15350939.    
 4.10468473E-06 1.37028361E-08 2.08041157E+11 2.08025287E+11  212116.32      15657688.    
 4.13218219E-06 1.37946320E-08 2.12126867E+11 2.12110684E+11  217685.87      15964900.    
