 OPTXAGNF AGN Spectrum Model Parameters: NLS, Astar 0.0                          
 M_BH:  1.0000E+09 M_0            L  :  0.2000     L/Ledd 
 D   :  1.5000E+18 cm             z  :   0.000     redshift 
 Rcor:   40.00     Rg             Ro :   4.000     Rg 
 C_T :  0.2000     keV            Tau:   15.00     Optical Depth 
 gam :   2.200     (-slope)       fpl:  0.2000     Fraction 
 E              0.5DeltaE      E.FE total     E.FE Disk      E.FE Compton   E.FE NonThermal
 (keV)          (keV)          E.E/cm2/s/E    E.E/cm2/s/E    E.E/cm2/s/E    E.E/cm2/s/E    
 1.00334952E-06 3.34952256E-09 2.80749980E+09 2.80729303E+09  755.21045      206007.67    
 1.01007101E-06 3.37196116E-09 2.86304349E+09 2.86283265E+09  775.05025      210066.84    
 1.01683752E-06 3.39455008E-09 2.92092024E+09 2.92070520E+09  796.08640      214243.95    
 1.02364936E-06 3.41729032E-09 2.98039033E+09 2.98017101E+09  817.93151      218498.06    
 1.03050683E-06 3.44018290E-09 3.03934210E+09 3.03911840E+09  839.41088      222860.04    
 1.03741024E-06 3.46322884E-09 3.10210628E+09 3.10187779E+09  862.93916      227625.83    
 1.04435990E-06 3.48642917E-09 3.16391364E+09 3.16368050E+09  885.85780      232257.11    
 1.05135611E-06 3.50978492E-09 3.22741636E+09 3.22717849E+09  909.64524      236959.68    
 1.05839920E-06 3.53329712E-09 3.29357785E+09 3.29333512E+09  934.86783      241790.55    
 1.06548946E-06 3.55696684E-09 3.35872162E+09 3.35847417E+09  959.42095      246489.79    
 1.07262722E-06 3.58079512E-09 3.42759486E+09 3.42734246E+09  986.03442      251422.55    
 1.07981280E-06 3.60478303E-09 3.49636731E+09 3.49610975E+09  1012.5063      256545.89    
 1.08704652E-06 3.62893164E-09 3.56603903E+09 3.56577616E+09  1039.4022      261825.25    
 1.09432869E-06 3.65324201E-09 3.63963993E+09 3.63937152E+09  1068.5210      267345.69    
 1.10165965E-06 3.67771524E-09 3.71162538E+09 3.71135162E+09  1096.5877      272666.85    
 1.10903971E-06 3.70235243E-09 3.78719872E+09 3.78691941E+09  1126.6880      278183.72    
 1.11646922E-06 3.72715465E-09 3.86371565E+09 3.86343080E+09  1157.2603      283691.90    
 1.12394850E-06 3.75212303E-09 3.94015098E+09 3.93986061E+09  1187.6675      289182.46    
 1.13147788E-06 3.77725867E-09 4.02202217E+09 4.02172564E+09  1221.2807      295309.22    
 1.13905770E-06 3.80256270E-09 4.10156678E+09 4.10126420E+09  1253.3638      301334.29    
 1.14668830E-06 3.82803623E-09 4.18448753E+09 4.18417870E+09  1287.4044      307547.04    
 1.15437002E-06 3.85368042E-09 4.26961555E+09 4.26930039E+09  1322.7078      313836.15    
 1.16210319E-06 3.87949640E-09 4.35403825E+09 4.35371690E+09  1357.4421      319996.38    
 1.16988818E-06 3.90548532E-09 4.44395594E+09 4.44362808E+09  1395.5148      326461.49    
 1.17772531E-06 3.93164835E-09 4.53242709E+09 4.53209282E+09  1432.5522      332844.20    
 1.18561494E-06 3.95798663E-09 4.62340440E+09 4.62306326E+09  1471.0451      339666.86    
 1.19355743E-06 3.98450137E-09 4.71810605E+09 4.71775769E+09  1511.8070      346852.41    
 1.20155313E-06 4.01119372E-09 4.81139191E+09 4.81103653E+09  1551.5118      353827.87    
 1.20960239E-06 4.03806489E-09 4.91005811E+09 4.90969540E+09  1594.5769      361115.96    
 1.21770557E-06 4.06511607E-09 5.00849417E+09 5.00812424E+09  1637.3567      368285.80    
 1.22586303E-06 4.09234846E-09 5.10830491E+09 5.10792776E+09  1680.8799      375470.31    
 1.23407514E-06 4.11976329E-09 5.21364901E+09 5.21326421E+09  1727.9387      383077.51    
 1.24234227E-06 4.14736177E-09 5.31672688E+09 5.31633426E+09  1773.3251      390851.87    
 1.25066478E-06 4.17514513E-09 5.42498684E+09 5.42458596E+09  1822.0328      399061.69    
 1.25904304E-06 4.20311462E-09 5.53450250E+09 5.53409339E+09  1871.4392      407246.47    
 1.26747742E-06 4.23127147E-09 5.64399866E+09 5.64358141E+09  1920.6447      415328.96    
 1.27596831E-06 4.25961695E-09 5.76117364E+09 5.76074781E+09  1974.9670      423855.04    
 1.28451608E-06 4.28815232E-09 5.87506916E+09 5.87463508E+09  2026.8481      432046.51    
 1.29312111E-06 4.31687884E-09 5.99384848E+09 5.99340575E+09  2081.9322      440646.20    
 1.30178379E-06 4.34579781E-09 6.11568204E+09 6.11523001E+09  2138.9846      449889.27    
 1.31050450E-06 4.37491051E-09 6.23655924E+09 6.23609801E+09  2195.1530      459033.31    
 1.31928362E-06 4.40421823E-09 6.36535449E+09 6.36488357E+09  2256.7602      468663.50    
 1.32812156E-06 4.43372228E-09 6.49196943E+09 6.49148912E+09  2316.6134      477993.03    
 1.33701871E-06 4.46342399E-09 6.62228339E+09 6.62179354E+09  2378.9024      487479.62    
 1.34597546E-06 4.49332467E-09 6.75780996E+09 6.75731032E+09  2444.7763      497202.44    
 1.35499221E-06 4.52342565E-09 6.89136957E+09 6.89086014E+09  2508.9822      506924.30    
 1.36406936E-06 4.55372829E-09 7.03268909E+09 7.03216882E+09  2578.6683      517686.00    
 1.37320733E-06 4.58423392E-09 7.17355724E+09 7.17302626E+09  2647.8017      528334.09    
 1.38240650E-06 4.61494391E-09 7.31651798E+09 7.31597626E+09  2718.2307      539009.55    
 1.39166731E-06 4.64585962E-09 7.46726673E+09 7.46671383E+09  2794.2812      550114.11    
 1.40099015E-06 4.67698245E-09 7.61483735E+09 7.61427363E+09  2867.6747      560846.29    
 1.41037545E-06 4.70831376E-09 7.76988939E+09 7.76931448E+09  2946.4914      571968.48    
 1.41982361E-06 4.73985497E-09 7.92660305E+09 7.92601656E+09  3026.3339      583467.18    
 1.42933508E-06 4.77160747E-09 8.08342871E+09 8.08283021E+09  3105.9585      595396.52    
 1.43891026E-06 4.80357269E-09 8.25109749E+09 8.25048621E+09  3193.7476      608090.41    
 1.44854958E-06 4.83575204E-09 8.41414643E+09 8.41352291E+09  3277.6432      620242.81    
 1.45825348E-06 4.86814696E-09 8.58425682E+09 8.58362068E+09  3366.7783      632772.11    
 1.46802239E-06 4.90075889E-09 8.75858578E+09 8.75793689E+09  3458.9775      645430.59    
 1.47785673E-06 4.93358930E-09 8.93162223E+09 8.93096082E+09  3549.8058      657863.25    
 1.48775696E-06 4.96663964E-09 9.11606466E+09 9.11538954E+09  3649.4944      671466.00    
 1.49772351E-06 4.99991138E-09 9.29723131E+09 9.29654230E+09  3746.2174      685268.82    
 1.50775683E-06 5.03340601E-09 9.48385166E+09 9.48314844E+09  3847.0115      699372.50    
 1.51785736E-06 5.06712502E-09 9.67776221E+09 9.67704443E+09  3953.4671      713830.52    
 1.52802556E-06 5.10106992E-09 9.86894269E+09 9.86821074E+09  4057.2922      727899.17    
 1.53826187E-06 5.13524222E-09 1.00713091E+10 1.00705624E+10  4170.0538      742587.92    
 1.54856676E-06 5.16964344E-09 1.02728554E+10 1.02720940E+10  4281.7741      757087.76    
 1.55894067E-06 5.20427512E-09 1.04775753E+10 1.04767987E+10  4395.7407      772255.83    
 1.56938409E-06 5.23913879E-09 1.06932511E+10 1.06924578E+10  4518.6425      788722.89    
 1.57989746E-06 5.27423602E-09 1.09044742E+10 1.09036649E+10  4637.3242      804653.18    
 1.59048127E-06 5.30956836E-09 1.11264943E+10 1.11256683E+10  4764.8609      821205.01    
 1.60113597E-06 5.34513740E-09 1.13506970E+10 1.13498544E+10  4893.8877      837683.63    
 1.61186206E-06 5.38094472E-09 1.15752584E+10 1.15743994E+10  5022.7348      853997.83    
 1.62265999E-06 5.41699191E-09 1.18151232E+10 1.18142468E+10  5164.6075      871252.74    
 1.63353026E-06 5.45328058E-09 1.20484850E+10 1.20475910E+10  5300.2712      888674.69    
 1.64447336E-06 5.48981235E-09 1.22920532E+10 1.22911405E+10  5444.5048      907258.74    
 1.65548976E-06 5.52658885E-09 1.25414401E+10 1.25405085E+10  5593.5009      926076.41    
 1.66657996E-06 5.56361172E-09 1.27890872E+10 1.27881369E+10  5740.3748      944518.68    
 1.67774445E-06 5.60088261E-09 1.30531566E+10 1.30521868E+10  5901.6821      963922.20    
 1.68898374E-06 5.63840317E-09 1.33123160E+10 1.33113272E+10  6057.9848      982717.10    
 1.70029832E-06 5.67617509E-09 1.35795061E+10 1.35784979E+10  6221.0849      1001999.2    
 1.71168869E-06 5.71420004E-09 1.38568845E+10 1.38558553E+10  6393.1202      1022814.6    
 1.72315537E-06 5.75247973E-09 1.41304799E+10 1.41294297E+10  6561.0102      1043672.8    
 1.73469887E-06 5.79101585E-09 1.44201945E+10 1.44191222E+10  6743.4715      1065543.7    
 1.74631969E-06 5.82981012E-09 1.47084872E+10 1.47073933E+10  6924.0103      1086987.8    
 1.75801837E-06 5.86886429E-09 1.50015741E+10 1.50004584E+10  7108.4260      1108529.1    
 1.76979541E-06 5.90818007E-09 1.53100613E+10 1.53089231E+10  7307.0397      1130868.1    
 1.78165135E-06 5.94775924E-09 1.56123159E+10 1.56111556E+10  7498.9526      1152765.1    
 1.79358672E-06 5.98760354E-09 1.59301466E+10 1.59289622E+10  7705.3222      1176699.9    
 1.80560203E-06 6.02771477E-09 1.62508222E+10 1.62496131E+10  7913.8290      1201183.1    
 1.81769784E-06 6.06809470E-09 1.65722961E+10 1.65710625E+10  8122.3243      1225413.1    
 1.82987468E-06 6.10874514E-09 1.69153565E+10 1.69140972E+10  8351.5962      1250941.0    
 1.84213310E-06 6.14966790E-09 1.72492666E+10 1.72479826E+10  8570.9690      1275450.3    
 1.85447363E-06 6.19086481E-09 1.75979199E+10 1.75966104E+10  8804.3568      1300716.1    
 1.86689683E-06 6.23233769E-09 1.79545857E+10 1.79532500E+10  9045.1347      1326612.1    
 1.87940326E-06 6.27408840E-09 1.83089210E+10 1.83075584E+10  9282.6341      1353410.2    
 1.89199346E-06 6.31611880E-09 1.86868930E+10 1.86855011E+10  9543.6437      1382316.1    
 1.90466801E-06 6.35843077E-09 1.90575253E+10 1.90561053E+10  9796.2226      1410211.5    
 1.91742747E-06 6.40102618E-09 1.94399686E+10 1.94385199E+10  10060.140      1438661.6    
 1.93027240E-06 6.44390694E-09 1.98366341E+10 1.98351560E+10  10338.150      1467754.3    
 1.94320339E-06 6.48707497E-09 2.02280639E+10 2.02265571E+10  10609.632      1496134.6    
 1.95622099E-06 6.53053217E-09 2.06427112E+10 2.06411740E+10  10904.871      1526280.1    
 1.96932581E-06 6.57428050E-09 2.10549727E+10 2.10534038E+10  11196.616      1557695.6    
 1.98251841E-06 6.61832191E-09 2.14744545E+10 2.14728533E+10  11495.024      1589706.2    
 1.99579939E-06 6.66265834E-09 2.19155710E+10 2.19139362E+10  11815.986      1622945.8    
 2.00916934E-06 6.70729179E-09 2.23479703E+10 2.23463031E+10  12126.313      1655074.2    
 2.02262885E-06 6.75222424E-09 2.28028258E+10 2.28011249E+10  12460.238      1688441.4    
 2.03617854E-06 6.79745770E-09 2.32613522E+10 2.32596177E+10  12797.180      1721625.5    
 2.04981899E-06 6.84299417E-09 2.37214277E+10 2.37196594E+10  13134.553      1755193.9    
 2.06355082E-06 6.88883570E-09 2.42119371E+10 2.42101307E+10  13505.060      1792811.1    
 2.07737464E-06 6.93498432E-09 2.46895824E+10 2.46877393E+10  13859.788      1829190.4    
 2.09129106E-06 6.98144209E-09 2.51885142E+10 2.51866332E+10  14237.433      1866773.8    
 2.10530072E-06 7.02821109E-09 2.56984582E+10 2.56965389E+10  14626.524      1904649.0    
 2.11940422E-06 7.07529339E-09 2.62052928E+10 2.62033360E+10  15010.562      1941842.8    
 2.13360221E-06 7.12269110E-09 2.67461283E+10 2.67441320E+10  15432.892      1980935.2    
 2.14789530E-06 7.17040633E-09 2.72760211E+10 2.72739853E+10  15841.043      2019966.9    
 2.16228415E-06 7.21844121E-09 2.78232652E+10 2.78211871E+10  16268.088      2061905.5    
 2.17676939E-06 7.26679787E-09 2.83903457E+10 2.83882238E+10  16717.347      2105171.4    
 2.19135167E-06 7.31547848E-09 2.89501925E+10 2.89480281E+10  17156.332      2147286.9    
 2.20603163E-06 7.36448520E-09 2.95434629E+10 2.95412539E+10  17634.049      2191363.7    
 2.22080994E-06 7.41382021E-09 3.01328152E+10 3.01305625E+10  18105.491      2234551.0    
 2.23568724E-06 7.46348573E-09 3.07330075E+10 3.07307109E+10  18588.348      2278012.8    
 2.25066421E-06 7.51348396E-09 3.13635711E+10 3.13612272E+10  19107.018      2324747.6    
 2.26574151E-06 7.56381713E-09 3.19819581E+10 3.19795663E+10  19608.812      2372181.8    
 2.28091982E-06 7.61448748E-09 3.26327052E+10 3.26302632E+10  20149.127      2421842.3    
 2.29619980E-06 7.66549727E-09 3.32881342E+10 3.32856423E+10  20693.605      2471133.8    
 2.31158215E-06 7.71684879E-09 3.39463581E+10 3.39438168E+10  21239.513      2520037.2    
 2.32706754E-06 7.76854430E-09 3.46474541E+10 3.46448608E+10  21838.247      2571377.2    
 2.34265667E-06 7.82058613E-09 3.53304795E+10 3.53278362E+10  22411.836      2620933.8    
 2.35835023E-06 7.87297659E-09 3.60442227E+10 3.60415256E+10  23022.892      2674086.8    
 2.37414893E-06 7.92571802E-09 3.67730734E+10 3.67703196E+10  23651.643      2730148.7    
 2.39005346E-06 7.97881276E-09 3.74978022E+10 3.74949926E+10  24272.624      2785355.3    
 2.40606454E-06 8.03226319E-09 3.82714161E+10 3.82685476E+10  24955.968      2843592.3    
 2.42218287E-06 8.08607168E-09 3.90287493E+10 3.90258239E+10  25615.503      2899787.7    
 2.43840918E-06 8.14024064E-09 3.98115355E+10 3.98085520E+10  26306.492      2957170.7    
 2.45474420E-06 8.19477248E-09 4.06219575E+10 4.06189144E+10  27032.473      3016009.7    
 2.47118864E-06 8.24966963E-09 4.14224063E+10 4.14193026E+10  27742.299      3075985.5    
 2.48774324E-06 8.30493454E-09 4.22709468E+10 4.22677769E+10  28515.262      3141378.8    
 2.50440875E-06 8.36056967E-09 4.31131706E+10 4.31099358E+10  29277.070      3205504.0    
 2.52118589E-06 8.41657750E-09 4.39716234E+10 4.39683232E+10  30058.370      3270090.4    
 2.53807543E-06 8.47296053E-09 4.48726727E+10 4.48693048E+10  30896.516      3336956.2    
 2.55507811E-06 8.52972128E-09 4.57567256E+10 4.57532922E+10  31707.898      3401749.4    
 2.57219470E-06 8.58686227E-09 4.66873816E+10 4.66838796E+10  32582.148      3469443.4    
 2.58942595E-06 8.64438604E-09 4.76239247E+10 4.76203511E+10  33461.978      3540133.3    
 2.60677263E-06 8.70229518E-09 4.85652936E+10 4.85616466E+10  34345.299      3612603.6    
 2.62423551E-06 8.76059224E-09 4.95670174E+10 4.95632930E+10  35312.828      3689025.5    
 2.64181539E-06 8.81927985E-09 5.05433792E+10 5.05395806E+10  36240.293      3762391.6    
 2.65951303E-06 8.87836060E-09 5.15640340E+10 5.15601586E+10  37229.006      3838172.9    
 2.67732922E-06 8.93783714E-09 5.26053628E+10 5.26014102E+10  38245.016      3914408.3    
 2.69526477E-06 8.99771211E-09 5.36412651E+10 5.36372359E+10  39249.108      3989990.3    
 2.71332047E-06 9.05798819E-09 5.47474129E+10 5.47432986E+10  40354.762      4073931.9    
 2.73149713E-06 9.11866806E-09 5.58293984E+10 5.58251996E+10  41420.486      4157323.4    
 2.74979555E-06 9.17975443E-09 5.69486786E+10 5.69443934E+10  42538.536      4242642.4    
 2.76821656E-06 9.24125002E-09 5.81064164E+10 5.81020430E+10  43711.662      4329699.1    
 2.78676096E-06 9.30315757E-09 5.92504235E+10 5.92459640E+10  44859.407      4414631.6    
 2.80542960E-06 9.36547984E-09 6.04635754E+10 6.04590258E+10  46110.063      4503450.7    
 2.82422330E-06 9.42821962E-09 6.16666863E+10 6.16620474E+10  47341.051      4591571.6    
 2.84314290E-06 9.49137968E-09 6.28940333E+10 6.28892997E+10  48605.228      4685052.3    
 2.86218924E-06 9.55496287E-09 6.41810754E+10 6.41762409E+10  49959.605      4784532.4    
 2.88136318E-06 9.61897199E-09 6.54444262E+10 6.54394943E+10  51271.551      4880701.6    
 2.90066556E-06 9.68340992E-09 6.67748469E+10 6.67698134E+10  52686.091      4980803.2    
 2.92009725E-06 9.74827952E-09 6.81125223E+10 6.81073882E+10  54107.790      5080042.6    
 2.93965911E-06 9.81358368E-09 6.94582701E+10 6.94530358E+10  55537.043      5178731.0    
 2.95935202E-06 9.87932532E-09 7.08889168E+10 7.08835761E+10  57100.494      5283621.3    
 2.97917685E-06 9.94550737E-09 7.22840103E+10 7.22785610E+10  58600.129      5390723.5    
 2.99913449E-06 1.00121328E-08 7.37429319E+10 7.37373683E+10  60199.871      5503456.6    
 3.01922583E-06 1.00792045E-08 7.52300820E+10 7.52244034E+10  61841.622      5616760.6    
 3.03945176E-06 1.01467255E-08 7.67101437E+10 7.67043521E+10  63465.150      5728091.0    
 3.05981319E-06 1.02146989E-08 7.82910638E+10 7.82851531E+10  65254.061      5845408.5    
 3.08031101E-06 1.02831276E-08 7.98361974E+10 7.98301718E+10  66976.099      5958628.8    
 3.10094616E-06 1.03520148E-08 8.14359068E+10 8.14297617E+10  68785.109      6076314.8    
 3.12171953E-06 1.04213634E-08 8.30890735E+10 8.30827986E+10  70680.742      6204168.9    
 3.14263207E-06 1.04911766E-08 8.47233834E+10 8.47169806E+10  72536.532      6330227.2    
 3.16368471E-06 1.05614574E-08 8.64570427E+10 8.64505057E+10  74560.051      6462484.4    
 3.18487837E-06 1.06322091E-08 8.81749186E+10 8.81682504E+10  76549.131      6591622.4    
 3.20621402E-06 1.07034348E-08 8.99288808E+10 8.99220803E+10  78594.575      6721917.6    
 3.22769259E-06 1.07751376E-08 9.17664093E+10 9.17594721E+10  80783.090      6856429.6    
 3.24931505E-06 1.08473207E-08 9.35709640E+10 9.35638908E+10  82904.363      6990272.6    
 3.27108236E-06 1.09199874E-08 9.54719788E+10 9.54647560E+10  85193.040      7137652.9    
 3.29299549E-06 1.09931409E-08 9.73817180E+10 9.73743454E+10  87490.279      7285063.5    
 3.31505541E-06 1.10667844E-08 9.93046654E+10 9.92971440E+10  89802.817      7431647.7    
 3.33726312E-06 1.11409213E-08 1.01346928E+11 1.01339251E+11  92329.170      7585331.9    
 3.35961959E-06 1.12155548E-08 1.03339388E+11 1.03331560E+11  94753.899      7733278.8    
 3.38212584E-06 1.12906884E-08 1.05423747E+11 1.05415764E+11  97342.224      7886060.3    
 3.40478285E-06 1.13663252E-08 1.07546554E+11 1.07538410E+11  99995.033      8044810.5    
 3.42759164E-06 1.14424687E-08 1.09660201E+11 1.09651889E+11  102620.07      8208677.8    
 3.45055323E-06 1.15191223E-08 1.11918559E+11 1.11910070E+11  105514.40      8383459.0    
 3.47366865E-06 1.15962894E-08 1.14124035E+11 1.14115375E+11  108296.86      8551440.4    
 3.49693891E-06 1.16739735E-08 1.16409262E+11 1.16400427E+11  111223.77      8723505.6    
 3.52036506E-06 1.17521780E-08 1.18768673E+11 1.18759660E+11  114286.81      8898676.9    
 3.54394814E-06 1.18309064E-08 1.21102246E+11 1.21093058E+11  117287.37      9070111.6    
 3.56768921E-06 1.19101621E-08 1.23578458E+11 1.23569081E+11  120561.27      9256313.8    
 3.59158932E-06 1.19899488E-08 1.26030110E+11 1.26020539E+11  123775.22      9447089.4    
 3.61564954E-06 1.20702701E-08 1.28535370E+11 1.28525602E+11  127084.67      9640722.3    
 3.63987094E-06 1.21511293E-08 1.31157492E+11 1.31147521E+11  130620.96      9840823.5    
 3.66425460E-06 1.22325303E-08 1.33733778E+11 1.33723609E+11  134050.74      10034749.    
 3.68880161E-06 1.23144766E-08 1.36448655E+11 1.36438280E+11  137753.64      10236499.    
 3.71351306E-06 1.23969718E-08 1.39173656E+11 1.39163078E+11  141465.51      10437058.    
 3.73839005E-06 1.24800197E-08 1.41919907E+11 1.41909118E+11  145207.11      10644627.    
 3.76343369E-06 1.25636239E-08 1.44833690E+11 1.44822668E+11  149289.28      10872331.    
 3.78864510E-06 1.26477882E-08 1.47677805E+11 1.47666560E+11  153209.67      11091908.    
 3.81402541E-06 1.27325163E-08 1.50654124E+11 1.50642647E+11  157397.37      11319186.    
 3.83957574E-06 1.28178120E-08 1.53682645E+11 1.53670936E+11  161683.77      11547227.    
 3.86529723E-06 1.29036791E-08 1.56699446E+11 1.56687509E+11  165928.01      11771719.    
 3.89119103E-06 1.29901214E-08 1.59923694E+11 1.59911514E+11  170610.68      12009283.    
 3.91725829E-06 1.30771428E-08 1.63069985E+11 1.63057561E+11  175106.45      12249212.    
 3.94350018E-06 1.31647472E-08 1.66332663E+11 1.66319979E+11  179841.95      12504197.    
 3.96991787E-06 1.32529384E-08 1.69698147E+11 1.69685197E+11  184791.20      12764641.    
 3.99651253E-06 1.33417205E-08 1.73028324E+11 1.73015116E+11  189642.54      13018831.    
 4.02328535E-06 1.34310972E-08 1.76563090E+11 1.76549610E+11  194939.30      13285305.    
 4.05023752E-06 1.35210728E-08 1.80059929E+11 1.80046183E+11  200132.25      13545366.    
 4.07737024E-06 1.36116511E-08 1.83636203E+11 1.83622188E+11  205486.66      13809773.    
 4.10468473E-06 1.37028361E-08 1.87375722E+11 1.87361414E+11  211200.56      14096877.    
 4.13218219E-06 1.37946320E-08 1.91051647E+11 1.91037046E+11  216745.83      14384380.    
