 OPTXAGNF AGN Spectrum Model Parameters: BLS, Astar 0.0                          
 M_BH:  1.0000E+09 M_0            L  :  0.2000     L/Ledd 
 D   :  1.5000E+18 cm             z  :   0.000     redshift 
 Rcor:   60.00     Rg             Ro :   4.000     Rg 
 C_T :  0.2000     keV            Tau:   15.00     Optical Depth 
 gam :   1.800     (-slope)       fpl:  0.5000     Fraction 
 E              0.5DeltaE      E.FE total     E.FE Disk      E.FE Compton   E.FE NonThermal
 (keV)          (keV)          E.E/cm2/s/E    E.E/cm2/s/E    E.E/cm2/s/E    E.E/cm2/s/E    
 1.00334952E-06 3.34952256E-09 2.78323288E+09 2.78303404E+09  1603.3578      197236.60    
 1.01007101E-06 3.37196116E-09 2.83829653E+09 2.83809368E+09  1645.4776      201205.94    
 1.01683752E-06 3.39455008E-09 2.89567308E+09 2.89546610E+09  1690.1370      205294.49    
 1.02364936E-06 3.41729032E-09 2.95462918E+09 2.95441801E+09  1736.5137      209436.24    
 1.03050683E-06 3.44018290E-09 3.01307125E+09 3.01285597E+09  1782.1141      213494.59    
 1.03741024E-06 3.46322884E-09 3.07529262E+09 3.07507298E+09  1832.0640      217805.13    
 1.04435990E-06 3.48642917E-09 3.13656574E+09 3.13634159E+09  1880.7198      222264.57    
 1.05135611E-06 3.50978492E-09 3.19951962E+09 3.19929082E+09  1931.2199      226866.11    
 1.05839920E-06 3.53329712E-09 3.26510931E+09 3.26487572E+09  1984.7667      231597.45    
 1.06548946E-06 3.55696684E-09 3.32969006E+09 3.32945183E+09  2036.8922      236192.79    
 1.07262722E-06 3.58079512E-09 3.39796803E+09 3.39772495E+09  2093.3916      240987.32    
 1.07981280E-06 3.60478303E-09 3.46614580E+09 3.46589794E+09  2149.5905      245710.95    
 1.08704652E-06 3.62893164E-09 3.53521501E+09 3.53496229E+09  2206.6893      250518.63    
 1.09432869E-06 3.65324201E-09 3.60817974E+09 3.60792161E+09  2268.5074      255852.83    
 1.10165965E-06 3.67771524E-09 3.67954304E+09 3.67927965E+09  2328.0918      261055.92    
 1.10903971E-06 3.70235243E-09 3.75446321E+09 3.75419436E+09  2391.9933      266457.72    
 1.11646922E-06 3.72715465E-09 3.83031883E+09 3.83004453E+09  2456.8966      271849.14    
 1.12394850E-06 3.75212303E-09 3.90609351E+09 3.90581381E+09  2521.4496      277171.40    
 1.13147788E-06 3.77725867E-09 3.98725672E+09 3.98697134E+09  2592.8084      282783.23    
 1.13905770E-06 3.80256270E-09 4.06611348E+09 4.06582250E+09  2660.9189      288318.61    
 1.14668830E-06 3.82803623E-09 4.14831749E+09 4.14802043E+09  2733.1852      294325.97    
 1.15437002E-06 3.85368042E-09 4.23270976E+09 4.23240647E+09  2808.1319      300483.69    
 1.16210319E-06 3.87949640E-09 4.31640281E+09 4.31609343E+09  2881.8707      306507.78    
 1.16988818E-06 3.90548532E-09 4.40554337E+09 4.40522756E+09  2962.6961      312841.89    
 1.17772531E-06 3.93164835E-09 4.49324978E+09 4.49292775E+09  3041.3239      318989.82    
 1.18561494E-06 3.95798663E-09 4.58344035E+09 4.58311199E+09  3123.0416      325234.31    
 1.19355743E-06 3.98450137E-09 4.67732309E+09 4.67698803E+09  3209.5757      331857.28    
 1.20155313E-06 4.01119372E-09 4.76980263E+09 4.76946071E+09  3293.8659      338621.97    
 1.20960239E-06 4.03806489E-09 4.86761607E+09 4.86726692E+09  3385.2895      345760.40    
 1.21770557E-06 4.06511607E-09 4.96520135E+09 4.96484510E+09  3476.1073      352776.04    
 1.22586303E-06 4.09234846E-09 5.06414944E+09 5.06378606E+09  3568.5032      359804.34    
 1.23407514E-06 4.11976329E-09 5.16858292E+09 5.16821214E+09  3668.4045      367114.85    
 1.24234227E-06 4.14736177E-09 5.27076936E+09 5.27039140E+09  3764.7558      374197.91    
 1.25066478E-06 4.17514513E-09 5.37809320E+09 5.37770753E+09  3868.1572      381798.23    
 1.25904304E-06 4.20311462E-09 5.48666227E+09 5.48626853E+09  3973.0419      389763.30    
 1.26747742E-06 4.23127147E-09 5.59521204E+09 5.59481030E+09  4077.5003      397667.48    
 1.27596831E-06 4.25961695E-09 5.71137429E+09 5.71096407E+09  4192.8204      406022.86    
 1.28451608E-06 4.28815232E-09 5.82428539E+09 5.82386706E+09  4302.9585      414028.91    
 1.29312111E-06 4.31687884E-09 5.94203793E+09 5.94161124E+09  4419.8956      422274.58    
 1.30178379E-06 4.34579781E-09 6.06281779E+09 6.06238261E+09  4541.0111      430643.70    
 1.31050450E-06 4.37491051E-09 6.18264981E+09 6.18220598E+09  4660.2501      439172.13    
 1.31928362E-06 4.40421823E-09 6.31033183E+09 6.30987848E+09  4791.0345      448562.22    
 1.32812156E-06 4.43372228E-09 6.43585242E+09 6.43538981E+09  4918.0954      457688.02    
 1.33701871E-06 4.46342399E-09 6.56504006E+09 6.56456804E+09  5050.3267      466971.36    
 1.34597546E-06 4.49332467E-09 6.69939526E+09 6.69891358E+09  5190.1682      476491.54    
 1.35499221E-06 4.52342565E-09 6.83180025E+09 6.83130916E+09  5326.4688      485759.97    
 1.36406936E-06 4.55372829E-09 6.97189748E+09 6.97139654E+09  5474.4025      495470.17    
 1.37320733E-06 4.58423392E-09 7.11154766E+09 7.11103656E+09  5621.1629      505481.39    
 1.38240650E-06 4.61494391E-09 7.25327273E+09 7.25275107E+09  5770.6735      515892.50    
 1.39166731E-06 4.64585962E-09 7.40271853E+09 7.40218582E+09  5932.1172      526771.37    
 1.40099015E-06 4.67698245E-09 7.54901364E+09 7.54847029E+09  6087.9206      537266.32    
 1.41037545E-06 4.70831376E-09 7.70272554E+09 7.70217113E+09  6255.2362      548156.96    
 1.41982361E-06 4.73985497E-09 7.85808428E+09 7.85751884E+09  6424.7291      559011.81    
 1.42933508E-06 4.77160747E-09 8.01355356E+09 8.01297716E+09  6593.7593      569807.14    
 1.43891026E-06 4.80357269E-09 8.17977267E+09 8.17918410E+09  6780.1207      581784.07    
 1.44854958E-06 4.83575204E-09 8.34141230E+09 8.34081168E+09  6958.2171      593666.05    
 1.45825348E-06 4.86814696E-09 8.51005237E+09 8.50943929E+09  7147.4354      605930.77    
 1.46802239E-06 4.90075889E-09 8.68287454E+09 8.68224887E+09  7343.1579      618324.20    
 1.47785673E-06 4.93358930E-09 8.85441535E+09 8.85377734E+09  7535.9703      630473.94    
 1.48775696E-06 4.96663964E-09 9.03726301E+09 9.03661202E+09  7747.5906      643236.25    
 1.49772351E-06 4.99991138E-09 9.21686274E+09 9.21619905E+09  7952.9155      655737.26    
 1.50775683E-06 5.03340601E-09 9.40186962E+09 9.40119233E+09  8166.8823      669120.22    
 1.51785736E-06 5.06712502E-09 9.59410411E+09 9.59341244E+09  8392.8665      683279.74    
 1.52802556E-06 5.10106992E-09 9.78363212E+09 9.78292647E+09  8613.2671      697037.16    
 1.53826187E-06 5.13524222E-09 9.98424939E+09 9.98352911E+09  8852.6369      711424.46    
 1.54856676E-06 5.16964344E-09 1.01840536E+10 1.01833189E+10  9089.7963      725553.11    
 1.55894067E-06 5.20427512E-09 1.03870033E+10 1.03862542E+10  9331.7237      739734.80    
 1.56938409E-06 5.23913879E-09 1.06008136E+10 1.06000494E+10  9592.6178      754608.18    
 1.57989746E-06 5.27423602E-09 1.08102106E+10 1.08094309E+10  9844.5536      769872.36    
 1.59048127E-06 5.30956836E-09 1.10303117E+10 1.10295155E+10  10115.286      786079.62    
 1.60113597E-06 5.34513740E-09 1.12525764E+10 1.12517638E+10  10389.181      802207.69    
 1.61186206E-06 5.38094472E-09 1.14751968E+10 1.14743680E+10  10662.694      818162.24    
 1.62265999E-06 5.41699191E-09 1.17129882E+10 1.17121423E+10  10963.856      834965.03    
 1.63353026E-06 5.45328058E-09 1.19443320E+10 1.19434696E+10  11251.839      851111.55    
 1.64447336E-06 5.48981235E-09 1.21857935E+10 1.21849140E+10  11558.012      867972.46    
 1.65548976E-06 5.52658885E-09 1.24330245E+10 1.24321266E+10  11874.294      886100.12    
 1.66657996E-06 5.56361172E-09 1.26785309E+10 1.26776146E+10  12186.072      904129.85    
 1.67774445E-06 5.60088261E-09 1.29403178E+10 1.29393822E+10  12528.486      923140.74    
 1.68898374E-06 5.63840317E-09 1.31972371E+10 1.31962827E+10  12860.277      941523.85    
 1.70029832E-06 5.67617509E-09 1.34621175E+10 1.34611441E+10  13206.496      960249.63    
 1.71168869E-06 5.71420004E-09 1.37370970E+10 1.37361041E+10  13571.681      979405.95    
 1.72315537E-06 5.75247973E-09 1.40083262E+10 1.40073138E+10  13928.067      998475.28    
 1.73469887E-06 5.79101585E-09 1.42955362E+10 1.42945023E+10  14315.382      1019581.1    
 1.74631969E-06 5.82981012E-09 1.45813369E+10 1.45802817E+10  14698.617      1040561.4    
 1.75801837E-06 5.86886429E-09 1.48718903E+10 1.48708136E+10  15090.080      1061634.3    
 1.76979541E-06 5.90818007E-09 1.51777110E+10 1.51766120E+10  15511.679      1083517.1    
 1.78165135E-06 5.94775924E-09 1.54773527E+10 1.54762321E+10  15919.056      1104682.6    
 1.79358672E-06 5.98760354E-09 1.57924345E+10 1.57912915E+10  16357.118      1126636.5    
 1.80560203E-06 6.02771477E-09 1.61103368E+10 1.61091709E+10  16799.715      1149141.4    
 1.81769784E-06 6.06809470E-09 1.64290315E+10 1.64278417E+10  17242.289      1172560.6    
 1.82987468E-06 6.10874514E-09 1.67691265E+10 1.67679112E+10  17728.962      1197574.5    
 1.84213310E-06 6.14966790E-09 1.71001502E+10 1.70989105E+10  18194.623      1221540.3    
 1.85447363E-06 6.19086481E-09 1.74457897E+10 1.74445248E+10  18690.031      1246271.9    
 1.86689683E-06 6.23233769E-09 1.77993721E+10 1.77980816E+10  19201.126      1271215.9    
 1.87940326E-06 6.27408840E-09 1.81506428E+10 1.81493273E+10  19705.261      1295728.4    
 1.89199346E-06 6.31611880E-09 1.85253457E+10 1.85240031E+10  20259.297      1322357.9    
 1.90466801E-06 6.35843077E-09 1.88927741E+10 1.88914038E+10  20795.439      1349456.7    
 1.91742747E-06 6.40102618E-09 1.92719114E+10 1.92705127E+10  21355.646      1377296.3    
 1.93027240E-06 6.44390694E-09 1.96651480E+10 1.96637202E+10  21945.765      1405785.2    
 1.94320339E-06 6.48707497E-09 2.00531941E+10 2.00517381E+10  22522.028      1433529.4    
 1.95622099E-06 6.53053217E-09 2.04642566E+10 2.04627709E+10  23148.716      1462522.9    
 1.96932581E-06 6.57428050E-09 2.08729521E+10 2.08714373E+10  23767.987      1491056.9    
 1.98251841E-06 6.61832191E-09 2.12888061E+10 2.12872609E+10  24401.402      1520740.3    
 1.99579939E-06 6.66265834E-09 2.17261092E+10 2.17245310E+10  25082.685      1553108.0    
 2.00916934E-06 6.70729179E-09 2.21547707E+10 2.21531604E+10  25741.394      1584522.7    
 2.02262885E-06 6.75222424E-09 2.26056942E+10 2.26040505E+10  26450.193      1617193.9    
 2.03617854E-06 6.79745770E-09 2.30602568E+10 2.30585800E+10  27165.391      1649662.6    
 2.04981899E-06 6.84299417E-09 2.35163546E+10 2.35146449E+10  27881.507      1681861.6    
 2.06355082E-06 6.88883570E-09 2.40026208E+10 2.40008763E+10  28667.946      1715787.2    
 2.07737464E-06 6.93498432E-09 2.44761355E+10 2.44743562E+10  29420.895      1749845.1    
 2.09129106E-06 6.98144209E-09 2.49707541E+10 2.49689374E+10  30222.483      1786473.1    
 2.10530072E-06 7.02821109E-09 2.54762898E+10 2.54744352E+10  31048.366      1823548.9    
 2.11940422E-06 7.07529339E-09 2.59787430E+10 2.59768512E+10  31863.522      1859916.2    
 2.13360221E-06 7.12269110E-09 2.65149032E+10 2.65129722E+10  32759.951      1898215.2    
 2.14789530E-06 7.17040633E-09 2.70402141E+10 2.70382452E+10  33626.286      1935245.9    
 2.16228415E-06 7.21844121E-09 2.75827243E+10 2.75807166E+10  34532.720      1973172.0    
 2.17676939E-06 7.26679787E-09 2.81449007E+10 2.81428514E+10  35486.302      2013848.3    
 2.19135167E-06 7.31547848E-09 2.86999077E+10 2.86978164E+10  36418.080      2054956.2    
 2.20603163E-06 7.36448520E-09 2.92880494E+10 2.92859138E+10  37432.059      2098125.4    
 2.22080994E-06 7.41382021E-09 2.98723068E+10 2.98701280E+10  38432.721      2140373.4    
 2.23568724E-06 7.46348573E-09 3.04673105E+10 3.04650881E+10  39457.610      2182887.9    
 2.25066421E-06 7.51348396E-09 3.10924212E+10 3.10901537E+10  40558.506      2226905.6    
 2.26574151E-06 7.56381713E-09 3.17054588E+10 3.17031473E+10  41623.586      2269858.3    
 2.28091982E-06 7.61448748E-09 3.23505785E+10 3.23482190E+10  42770.420      2316761.8    
 2.29619980E-06 7.66549727E-09 3.30003412E+10 3.29979323E+10  43926.089      2364994.9    
 2.31158215E-06 7.71684879E-09 3.36528748E+10 3.36504169E+10  45084.792      2412815.9    
 2.32706754E-06 7.76854430E-09 3.43479098E+10 3.43454003E+10  46355.612      2463114.6    
 2.34265667E-06 7.82058613E-09 3.50250303E+10 3.50224713E+10  47573.062      2511442.9    
 2.35835023E-06 7.87297659E-09 3.57326009E+10 3.57299907E+10  48870.030      2561306.5    
 2.37414893E-06 7.92571802E-09 3.64551463E+10 3.64524841E+10  50204.553      2611965.7    
 2.39005346E-06 7.97881276E-09 3.71736083E+10 3.71708922E+10  51522.583      2664519.6    
 2.40606454E-06 8.03226319E-09 3.79405341E+10 3.79377596E+10  52972.969      2721572.7    
 2.42218287E-06 8.08607168E-09 3.86913199E+10 3.86884891E+10  54372.821      2776524.8    
 2.43840918E-06 8.14024064E-09 3.94673387E+10 3.94644502E+10  55839.430      2832672.6    
 2.45474420E-06 8.19477248E-09 4.02707541E+10 4.02678067E+10  57380.300      2889991.8    
 2.47118864E-06 8.24966963E-09 4.10642801E+10 4.10612752E+10  58886.884      2945937.9    
 2.48774324E-06 8.30493454E-09 4.19054796E+10 4.19024140E+10  60527.462      3005045.2    
 2.50440875E-06 8.36056967E-09 4.27404208E+10 4.27372921E+10  62144.364      3066615.6    
 2.52118589E-06 8.41657750E-09 4.35914519E+10 4.35882583E+10  63802.633      3129766.7    
 2.53807543E-06 8.47296053E-09 4.44847112E+10 4.44814504E+10  65581.544      3195252.7    
 2.55507811E-06 8.52972128E-09 4.53611210E+10 4.53577951E+10  67303.652      3258599.9    
 2.57219470E-06 8.58686227E-09 4.62837306E+10 4.62803370E+10  69159.182      3324449.8    
 2.58942595E-06 8.64438604E-09 4.72121728E+10 4.72087120E+10  71026.552      3389814.7    
 2.60677263E-06 8.70229518E-09 4.81453980E+10 4.81418694E+10  72901.331      3455758.9    
 2.62423551E-06 8.76059224E-09 4.91384600E+10 4.91348557E+10  74954.817      3529335.4    
 2.64181539E-06 8.81927985E-09 5.01063805E+10 5.01027025E+10  76923.276      3601055.0    
 2.65951303E-06 8.87836060E-09 5.11182110E+10 5.11144567E+10  79021.715      3675225.0    
 2.67732922E-06 8.93783714E-09 5.21505367E+10 5.21467057E+10  81178.083      3749838.9    
 2.69526477E-06 8.99771211E-09 5.31774822E+10 5.31735758E+10  83309.158      3823170.9    
 2.71332047E-06 9.05798819E-09 5.42740614E+10 5.42700754E+10  85655.763      3900316.4    
 2.73149713E-06 9.11866806E-09 5.53466870E+10 5.53426223E+10  87917.631      3976744.0    
 2.74979555E-06 9.17975443E-09 5.64562887E+10 5.64521395E+10  90290.539      4058989.3    
 2.76821656E-06 9.24125002E-09 5.76040168E+10 5.75997798E+10  92780.328      4144217.8    
 2.78676096E-06 9.30315757E-09 5.87381328E+10 5.87338104E+10  95216.252      4227249.8    
 2.80542960E-06 9.36547984E-09 5.99407958E+10 5.99363837E+10  97870.568      4314230.9    
 2.82422330E-06 9.42821962E-09 6.11335034E+10 6.11290037E+10  100483.14      4399304.0    
 2.84314290E-06 9.49137968E-09 6.23502330E+10 6.23456448E+10  103166.15      4485062.8    
 2.86218924E-06 9.55496287E-09 6.36261410E+10 6.36214585E+10  106040.57      4576420.4    
 2.88136318E-06 9.61897199E-09 6.48785678E+10 6.48737894E+10  108824.94      4669522.1    
 2.90066556E-06 9.68340992E-09 6.61974853E+10 6.61926059E+10  111827.03      4767520.9    
 2.92009725E-06 9.74827952E-09 6.75235948E+10 6.75186154E+10  114844.30      4864612.1    
 2.93965911E-06 9.81358368E-09 6.88577069E+10 6.88526279E+10  117877.61      4961107.3    
 2.95935202E-06 9.87932532E-09 7.02759822E+10 7.02707988E+10  121195.69      5062248.4    
 2.97917685E-06 9.94550737E-09 7.16590061E+10 7.16537218E+10  124378.35      5159864.8    
 2.99913449E-06 1.00121328E-08 7.31053069E+10 7.30999152E+10  127773.44      5263864.9    
 3.01922583E-06 1.00792045E-08 7.45795975E+10 7.45740923E+10  131257.67      5373965.7    
 3.03945176E-06 1.01467255E-08 7.60468619E+10 7.60412444E+10  134703.23      5482797.7    
 3.05981319E-06 1.02146989E-08 7.76141125E+10 7.76083763E+10  138499.73      5597715.8    
 3.08031101E-06 1.02831276E-08 7.91458860E+10 7.91400354E+10  142154.33      5708398.3    
 3.10094616E-06 1.03520148E-08 8.07317614E+10 8.07257938E+10  145993.48      5821620.2    
 3.12171953E-06 1.04213634E-08 8.23706243E+10 8.23645369E+10  150016.45      5937312.0    
 3.14263207E-06 1.04911766E-08 8.39907967E+10 8.39845882E+10  153954.86      6054512.1    
 3.16368471E-06 1.05614574E-08 8.57094648E+10 8.57031232E+10  158249.19      6183305.4    
 3.18487837E-06 1.06322091E-08 8.74124865E+10 8.74060145E+10  162470.44      6309597.6    
 3.20621402E-06 1.07034348E-08 8.91512825E+10 8.91446787E+10  166811.29      6437030.3    
 3.22769259E-06 1.07751376E-08 9.09729222E+10 9.09661820E+10  171455.72      6568739.7    
 3.24931505E-06 1.08473207E-08 9.27618699E+10 9.27549975E+10  175957.47      6696464.5    
 3.27108236E-06 1.09199874E-08 9.46464356E+10 9.46394252E+10  180814.44      6829638.9    
 3.29299549E-06 1.09931409E-08 9.65396550E+10 9.65325016E+10  185689.57      6967697.2    
 3.31505541E-06 1.10667844E-08 9.84459742E+10 9.84386730E+10  190597.16      7110542.4    
 3.33726312E-06 1.11409213E-08 1.00470577E+11 1.00463120E+11  195958.45      7261064.7    
 3.35961959E-06 1.12155548E-08 1.02445808E+11 1.02438201E+11  201104.09      7405681.7    
 3.38212584E-06 1.12906884E-08 1.04512144E+11 1.04504382E+11  206596.87      7555195.1    
 3.40478285E-06 1.13663252E-08 1.06616589E+11 1.06608671E+11  212226.47      7705349.1    
 3.42759164E-06 1.14424687E-08 1.08711946E+11 1.08703875E+11  217797.14      7853694.7    
 3.45055323E-06 1.15191223E-08 1.10950768E+11 1.10942526E+11  223939.19      8018003.4    
 3.47366865E-06 1.15962894E-08 1.13137173E+11 1.13128761E+11  229843.89      8182215.1    
 3.49693891E-06 1.16739735E-08 1.15402639E+11 1.15394052E+11  236055.08      8350542.6    
 3.52036506E-06 1.17521780E-08 1.17741646E+11 1.17732882E+11  242555.11      8521997.9    
 3.54394814E-06 1.18309064E-08 1.20055040E+11 1.20046102E+11  248922.55      8689405.6    
 3.56768921E-06 1.19101621E-08 1.22509832E+11 1.22500711E+11  255869.97      8864633.1    
 3.59158932E-06 1.19899488E-08 1.24940269E+11 1.24930969E+11  262690.19      9037084.9    
 3.61564954E-06 1.20702701E-08 1.27423858E+11 1.27414367E+11  269713.04      9220363.0    
 3.63987094E-06 1.21511293E-08 1.30023304E+11 1.30013611E+11  277217.17      9416271.1    
 3.66425460E-06 1.22325303E-08 1.32577312E+11 1.32567421E+11  284495.31      9605816.5    
 3.68880161E-06 1.23144766E-08 1.35268710E+11 1.35258615E+11  292352.95      9803297.9    
 3.71351306E-06 1.23969718E-08 1.37970146E+11 1.37959847E+11  300229.62      9998730.9    
 3.73839005E-06 1.24800197E-08 1.40692639E+11 1.40682138E+11  308169.35      10193405.    
 3.76343369E-06 1.25636239E-08 1.43581205E+11 1.43570490E+11  316831.69      10398732.    
 3.78864510E-06 1.26477882E-08 1.46400720E+11 1.46389786E+11  325150.75      10608608.    
 3.81402541E-06 1.27325163E-08 1.49351299E+11 1.49340135E+11  334036.97      10830888.    
 3.83957574E-06 1.28178120E-08 1.52353629E+11 1.52342232E+11  343132.59      11054001.    
 3.86529723E-06 1.29036791E-08 1.55344341E+11 1.55332716E+11  352138.74      11273416.    
 3.89119103E-06 1.29901214E-08 1.58540704E+11 1.58528837E+11  362075.10      11504847.    
 3.91725829E-06 1.30771428E-08 1.61659773E+11 1.61647674E+11  371614.92      11727768.    
 3.94350018E-06 1.31647472E-08 1.64894215E+11 1.64881875E+11  381663.36      11958975.    
 3.96991787E-06 1.32529384E-08 1.68230588E+11 1.68217987E+11  392165.27      12208874.    
 3.99651253E-06 1.33417205E-08 1.71531965E+11 1.71519105E+11  402459.45      12457182.    
 4.02328535E-06 1.34310972E-08 1.75036160E+11 1.75023029E+11  413698.65      12718077.    
 4.05023752E-06 1.35210728E-08 1.78502756E+11 1.78489359E+11  424717.57      12972347.    
 4.07737024E-06 1.36116511E-08 1.82048099E+11 1.82034434E+11  436079.05      13229347.    
 4.10468473E-06 1.37028361E-08 1.85755260E+11 1.85741317E+11  448203.22      13494238.    
 4.13218219E-06 1.37946320E-08 1.89399374E+11 1.89385157E+11  459969.60      13756640.    
