 OPTXAGNF AGN Spectrum Model Parameters: NLS, Astar 0.0                          
 M_BH:  1.0000E+09 M_0            L  :  1.0000E-02 L/Ledd 
 D   :  1.5000E+18 cm             z  :   0.000     redshift 
 Rcor:   40.00     Rg             Ro :   4.000     Rg 
 C_T :  0.2000     keV            Tau:   15.00     Optical Depth 
 gam :   2.200     (-slope)       fpl:  0.2000     Fraction 
 E              0.5DeltaE      E.FE total     E.FE Disk      E.FE Compton   E.FE NonThermal
 (keV)          (keV)          E.E/cm2/s/E    E.E/cm2/s/E    E.E/cm2/s/E    E.E/cm2/s/E    
 1.00334952E-06 3.34952256E-09 1.31547854E+09 1.31538263E+09  737.74785      95175.568    
 1.01007101E-06 3.37196116E-09 1.34142621E+09 1.34132845E+09  757.12652      97010.501    
 1.01683752E-06 3.39455008E-09 1.36845811E+09 1.36835837E+09  777.67356      98968.310    
 1.02364936E-06 3.41729032E-09 1.39623065E+09 1.39612880E+09  799.01063      101049.34    
 1.03050683E-06 3.44018290E-09 1.42376384E+09 1.42365992E+09  819.99049      103093.51    
 1.03741024E-06 3.46322884E-09 1.45306705E+09 1.45296096E+09  842.97133      105243.67    
 1.04435990E-06 3.48642917E-09 1.48192754E+09 1.48181934E+09  865.35676      107331.07    
 1.05135611E-06 3.50978492E-09 1.51157586E+09 1.51146553E+09  888.59067      109449.76    
 1.05839920E-06 3.53329712E-09 1.54245858E+09 1.54234603E+09  913.22610      111633.89    
 1.06548946E-06 3.55696684E-09 1.57287082E+09 1.57275603E+09  937.20772      113850.51    
 1.07262722E-06 3.58079512E-09 1.60501388E+09 1.60489665E+09  963.20143      116263.23    
 1.07981280E-06 3.60478303E-09 1.63711141E+09 1.63699178E+09  989.05685      118645.55    
 1.08704652E-06 3.62893164E-09 1.66962736E+09 1.66950532E+09  1015.3263      121029.75    
 1.09432869E-06 3.65324201E-09 1.70396589E+09 1.70384133E+09  1043.7666      123513.40    
 1.10165965E-06 3.67771524E-09 1.73755730E+09 1.73743031E+09  1071.1794      125912.56    
 1.10903971E-06 3.70235243E-09 1.77281293E+09 1.77268342E+09  1100.5781      128410.11    
 1.11646922E-06 3.72715465E-09 1.80850738E+09 1.80837522E+09  1130.4377      131030.03    
 1.12394850E-06 3.75212303E-09 1.84416594E+09 1.84403108E+09  1160.1361      133704.48    
 1.13147788E-06 3.77725867E-09 1.88234378E+09 1.88220605E+09  1192.9652      136543.49    
 1.13905770E-06 3.80256270E-09 1.91944576E+09 1.91930527E+09  1224.3001      139260.10    
 1.14668830E-06 3.82803623E-09 1.95811304E+09 1.95796972E+09  1257.5466      142058.02    
 1.15437002E-06 3.85368042E-09 1.99780398E+09 1.99765780E+09  1292.0261      144889.50    
 1.16210319E-06 3.87949640E-09 2.03717050E+09 2.03702148E+09  1325.9500      147685.74    
 1.16988818E-06 3.90548532E-09 2.07908246E+09 2.07893032E+09  1363.1337      150778.01    
 1.17772531E-06 3.93164835E-09 2.12032693E+09 2.12017166E+09  1399.3064      153876.37    
 1.18561494E-06 3.95798663E-09 2.16273319E+09 2.16257472E+09  1436.9005      157025.85    
 1.19355743E-06 3.98450137E-09 2.20686440E+09 2.20670266E+09  1476.7101      160259.72    
 1.20155313E-06 4.01119372E-09 2.25034296E+09 2.25017804E+09  1515.4875      163404.63    
 1.20960239E-06 4.03806489E-09 2.29631228E+09 2.29614404E+09  1557.5462      166684.45    
 1.21770557E-06 4.06511607E-09 2.34217737E+09 2.34200582E+09  1599.3262      169951.27    
 1.22586303E-06 4.09234846E-09 2.38868087E+09 2.38850583E+09  1641.8320      173397.16    
 1.23407514E-06 4.11976329E-09 2.43774478E+09 2.43756600E+09  1687.7902      177093.06    
 1.24234227E-06 4.14736177E-09 2.48576345E+09 2.48558106E+09  1732.1154      180654.06    
 1.25066478E-06 4.17514513E-09 2.53617971E+09 2.53599359E+09  1779.6836      184349.85    
 1.25904304E-06 4.20311462E-09 2.58717868E+09 2.58698882E+09  1827.9340      188036.02    
 1.26747742E-06 4.23127147E-09 2.63817163E+09 2.63797808E+09  1875.9883      191679.74    
 1.27596831E-06 4.25961695E-09 2.69271442E+09 2.69251693E+09  1929.0386      195564.91    
 1.28451608E-06 4.28815232E-09 2.74574549E+09 2.74554398E+09  1979.7053      199529.71    
 1.29312111E-06 4.31687884E-09 2.80103510E+09 2.80082938E+09  2033.4994      203691.10    
 1.30178379E-06 4.34579781E-09 2.85773747E+09 2.85752748E+09  2089.2153      207900.33    
 1.31050450E-06 4.37491051E-09 2.91400161E+09 2.91378744E+09  2144.0681      212022.74    
 1.31928362E-06 4.40421823E-09 2.97392360E+09 2.97370504E+09  2204.2313      216354.85    
 1.32812156E-06 4.43372228E-09 3.03284247E+09 3.03261965E+09  2262.6818      220559.53    
 1.33701871E-06 4.46342399E-09 3.09347191E+09 3.09324469E+09  2323.5104      224899.27    
 1.34597546E-06 4.49332467E-09 3.15650964E+09 3.15627761E+09  2387.8394      229640.72    
 1.35499221E-06 4.52342565E-09 3.21864368E+09 3.21840692E+09  2450.5397      234308.00    
 1.36406936E-06 4.55372829E-09 3.28435991E+09 3.28411820E+09  2518.5906      239190.91    
 1.37320733E-06 4.58423392E-09 3.34987148E+09 3.34962490E+09  2586.1017      243988.04    
 1.38240650E-06 4.61494391E-09 3.41635203E+09 3.41610058E+09  2654.8779      248798.63    
 1.39166731E-06 4.64585962E-09 3.48642614E+09 3.48616961E+09  2729.1425      253794.44    
 1.40099015E-06 4.67698245E-09 3.55503970E+09 3.55477815E+09  2800.8128      258747.24    
 1.41037545E-06 4.70831376E-09 3.62710531E+09 3.62683826E+09  2877.7781      264175.99    
 1.41982361E-06 4.73985497E-09 3.69994029E+09 3.69966768E+09  2955.7447      269652.75    
 1.42933508E-06 4.77160747E-09 3.77283143E+09 3.77255334E+09  3033.4984      275063.71    
 1.43891026E-06 4.80357269E-09 3.85072050E+09 3.85043661E+09  3119.2234      280772.42    
 1.44854958E-06 4.83575204E-09 3.92648676E+09 3.92619731E+09  3201.1469      286250.77    
 1.45825348E-06 4.86814696E-09 4.00550914E+09 4.00521396E+09  3288.1856      291892.49    
 1.46802239E-06 4.90075889E-09 4.08647803E+09 4.08617687E+09  3378.2158      297778.63    
 1.47785673E-06 4.93358930E-09 4.16685775E+09 4.16655045E+09  3466.9074      303838.71    
 1.48775696E-06 4.96663964E-09 4.25249053E+09 4.25217668E+09  3564.2491      310291.51    
 1.49772351E-06 4.99991138E-09 4.33662101E+09 4.33630082E+09  3658.6954      316532.13    
 1.50775683E-06 5.03340601E-09 4.42326590E+09 4.42293925E+09  3757.1162      322884.79    
 1.51785736E-06 5.06712502E-09 4.51326848E+09 4.51293523E+09  3861.0639      329391.22    
 1.52802556E-06 5.10106992E-09 4.60202181E+09 4.60168211E+09  3962.4435      335740.39    
 1.53826187E-06 5.13524222E-09 4.69592342E+09 4.69557675E+09  4072.5472      342599.77    
 1.54856676E-06 5.16964344E-09 4.78945407E+09 4.78910021E+09  4181.6342      349680.66    
 1.55894067E-06 5.20427512E-09 4.88444966E+09 4.88408854E+09  4292.9140      356828.25    
 1.56938409E-06 5.23913879E-09 4.98448427E+09 4.98411559E+09  4412.9164      364261.78    
 1.57989746E-06 5.27423602E-09 5.08248017E+09 5.08210420E+09  4528.7989      371442.76    
 1.59048127E-06 5.30956836E-09 5.18544160E+09 5.18505806E+09  4653.3256      378892.60    
 1.60113597E-06 5.34513740E-09 5.28941162E+09 5.28902050E+09  4779.3069      386339.28    
 1.61186206E-06 5.38094472E-09 5.39355445E+09 5.39315556E+09  4905.1124      393984.11    
 1.62265999E-06 5.41699191E-09 5.50472826E+09 5.50432077E+09  5043.6334      402438.89    
 1.63353026E-06 5.45328058E-09 5.61292478E+09 5.61250904E+09  5176.0930      410569.79    
 1.64447336E-06 5.48981235E-09 5.72581193E+09 5.72538765E+09  5316.9181      418960.80    
 1.65548976E-06 5.52658885E-09 5.84137537E+09 5.84094247E+09  5462.3921      427431.67    
 1.66657996E-06 5.56361172E-09 5.95614964E+09 5.95570829E+09  5605.7942      435744.60    
 1.67774445E-06 5.60088261E-09 6.07846161E+09 6.07801134E+09  5763.2854      444512.04    
 1.68898374E-06 5.63840317E-09 6.19853132E+09 6.19807200E+09  5915.8910      453404.73    
 1.70029832E-06 5.67617509E-09 6.32229151E+09 6.32182262E+09  6075.1317      462814.43    
 1.71168869E-06 5.71420004E-09 6.45072792E+09 6.45024919E+09  6243.0940      472490.47    
 1.72315537E-06 5.75247973E-09 6.57744072E+09 6.57695241E+09  6407.0097      481903.13    
 1.73469887E-06 5.79101585E-09 6.71154581E+09 6.71104748E+09  6585.1484      491742.83    
 1.74631969E-06 5.82981012E-09 6.84500898E+09 6.84450082E+09  6761.4103      501402.52    
 1.75801837E-06 5.86886429E-09 6.98067807E+09 6.98015997E+09  6941.4561      511154.59    
 1.76979541E-06 5.90818007E-09 7.12340615E+09 7.12287722E+09  7135.3601      521796.09    
 1.78165135E-06 5.94775924E-09 7.26329300E+09 7.26275323E+09  7322.7233      532444.20    
 1.79358672E-06 5.98760354E-09 7.41031684E+09 7.40976579E+09  7524.1970      543530.13    
 1.80560203E-06 6.02771477E-09 7.55865209E+09 7.55808981E+09  7727.7564      554554.58    
 1.81769784E-06 6.06809470E-09 7.70736502E+09 7.70679161E+09  7931.3042      565474.34    
 1.82987468E-06 6.10874514E-09 7.86595815E+09 7.86537304E+09  8155.1306      576953.55    
 1.84213310E-06 6.14966790E-09 8.02038062E+09 8.01978416E+09  8369.2947      588092.58    
 1.85447363E-06 6.19086481E-09 8.18155451E+09 8.18094574E+09  8597.1375      600169.98    
 1.86689683E-06 6.23233769E-09 8.34640119E+09 8.34577959E+09  8832.1928      612760.46    
 1.87940326E-06 6.27408840E-09 8.51019692E+09 8.50956276E+09  9064.0479      625098.18    
 1.89199346E-06 6.31611880E-09 8.68479916E+09 8.68415174E+09  9318.8484      638097.27    
 1.90466801E-06 6.35843077E-09 8.85606372E+09 8.85540348E+09  9565.4203      650666.82    
 1.91742747E-06 6.40102618E-09 9.03273483E+09 9.03206153E+09  9823.0575      663478.52    
 1.93027240E-06 6.44390694E-09 9.21590962E+09 9.21522282E+09  10094.449      676711.43    
 1.94320339E-06 6.48707497E-09 9.39671225E+09 9.39601153E+09  10359.468      690362.07    
 1.95622099E-06 6.53053217E-09 9.58812020E+09 9.58740454E+09  10647.673      705011.72    
 1.96932581E-06 6.57428050E-09 9.77845420E+09 9.77772391E+09  10932.467      719354.20    
 1.98251841E-06 6.61832191E-09 9.97209751E+09 9.97135251E+09  11223.765      733773.82    
 1.99579939E-06 6.66265834E-09 1.01756167E+10 1.01748564E+10  11537.072      748724.72    
 2.00916934E-06 6.70729179E-09 1.03751812E+10 1.03744062E+10  11839.999      763204.37    
 2.02262885E-06 6.75222424E-09 1.05849939E+10 1.05842033E+10  12165.956      778416.71    
 2.03617854E-06 6.79745770E-09 1.07964962E+10 1.07956891E+10  12494.855      794522.88    
 2.04981899E-06 6.84299417E-09 1.10087243E+10 1.10079007E+10  12824.176      810735.57    
 2.06355082E-06 6.88883570E-09 1.12348222E+10 1.12339812E+10  13185.830      827822.22    
 2.07737464E-06 6.93498432E-09 1.14550851E+10 1.14542273E+10  13532.086      844217.16    
 2.09129106E-06 6.98144209E-09 1.16850539E+10 1.16841789E+10  13900.704      861134.18    
 2.10530072E-06 7.02821109E-09 1.19200505E+10 1.19191580E+10  14280.491      878181.26    
 2.11940422E-06 7.07529339E-09 1.21536566E+10 1.21527467E+10  14655.347      895235.95    
 2.13360221E-06 7.12269110E-09 1.24027410E+10 1.24018117E+10  15067.568      914301.43    
 2.14789530E-06 7.17040633E-09 1.26468734E+10 1.26459249E+10  15465.952      932953.44    
 2.16228415E-06 7.21844121E-09 1.28989134E+10 1.28979455E+10  15882.772      951999.05    
 2.17676939E-06 7.26679787E-09 1.31599850E+10 1.31589972E+10  16321.268      971464.77    
 2.19135167E-06 7.31547848E-09 1.34177974E+10 1.34167902E+10  16749.739      990443.70    
 2.20603163E-06 7.36448520E-09 1.36908077E+10 1.36897802E+10  17216.001      1010269.0    
 2.22080994E-06 7.41382021E-09 1.39620646E+10 1.39610166E+10  17676.140      1030259.1    
 2.23568724E-06 7.46348573E-09 1.42382696E+10 1.42372001E+10  18147.416      1051411.9    
 2.25066421E-06 7.51348396E-09 1.45282751E+10 1.45271828E+10  18653.635      1073654.1    
 2.26574151E-06 7.56381713E-09 1.48127861E+10 1.48116718E+10  19143.387      1095143.2    
 2.28091982E-06 7.61448748E-09 1.51119961E+10 1.51108589E+10  19670.724      1117486.1    
 2.29619980E-06 7.66549727E-09 1.54133551E+10 1.54121952E+10  20202.121      1139677.3    
 2.31158215E-06 7.71684879E-09 1.57160136E+10 1.57148312E+10  20734.912      1161710.4    
 2.32706754E-06 7.76854430E-09 1.60381193E+10 1.60369124E+10  21319.245      1185594.3    
 2.34265667E-06 7.82058613E-09 1.63520750E+10 1.63508433E+10  21879.042      1209744.1    
 2.35835023E-06 7.87297659E-09 1.66799695E+10 1.66787121E+10  22475.393      1234905.5    
 2.37414893E-06 7.92571802E-09 1.70147303E+10 1.70134470E+10  23089.008      1260240.2    
 2.39005346E-06 7.97881276E-09 1.73476639E+10 1.73463551E+10  23695.040      1285116.0    
 2.40606454E-06 8.03226319E-09 1.77027390E+10 1.77014033E+10  24361.914      1311298.4    
 2.42218287E-06 8.08607168E-09 1.80504882E+10 1.80491265E+10  25005.558      1336675.0    
 2.43840918E-06 8.14024064E-09 1.84097830E+10 1.84083938E+10  25679.888      1363458.6    
 2.45474420E-06 8.19477248E-09 1.87816010E+10 1.87801824E+10  26388.354      1392221.2    
 2.47118864E-06 8.24966963E-09 1.91489547E+10 1.91475072E+10  27081.058      1420386.8    
 2.48774324E-06 8.30493454E-09 1.95380626E+10 1.95365849E+10  27835.355      1449902.3    
 2.50440875E-06 8.36056967E-09 1.99243584E+10 1.99228510E+10  28578.767      1478779.3    
 2.52118589E-06 8.41657750E-09 2.03180244E+10 2.03164872E+10  29341.194      1507864.4    
 2.53807543E-06 8.47296053E-09 2.07309466E+10 2.07293784E+10  30159.074      1538047.2    
 2.55507811E-06 8.52972128E-09 2.11362511E+10 2.11346516E+10  30950.843      1568502.2    
 2.57219470E-06 8.58686227E-09 2.15626139E+10 2.15609805E+10  31803.939      1601590.8    
 2.58942595E-06 8.64438604E-09 2.19916727E+10 2.19900054E+10  32662.476      1634551.8    
 2.60677263E-06 8.70229518E-09 2.24229583E+10 2.24212575E+10  33524.417      1667271.8    
 2.62423551E-06 8.76059224E-09 2.28814721E+10 2.28797360E+10  34468.498      1701625.1    
 2.64181539E-06 8.81927985E-09 2.33286180E+10 2.33268480E+10  35373.496      1734679.7    
 2.65951303E-06 8.87836060E-09 2.37957552E+10 2.37939500E+10  36338.235      1768921.6    
 2.67732922E-06 8.93783714E-09 2.42722459E+10 2.42704035E+10  37329.599      1805043.7    
 2.69526477E-06 8.99771211E-09 2.47463577E+10 2.47444775E+10  38309.336      1841869.5    
 2.71332047E-06 9.05798819E-09 2.52521046E+10 2.52501843E+10  39388.134      1880868.5    
 2.73149713E-06 9.11866806E-09 2.57470469E+10 2.57450880E+10  40427.983      1918431.5    
 2.74979555E-06 9.17975443E-09 2.62588112E+10 2.62568129E+10  41518.866      1956834.3    
 2.76821656E-06 9.24125002E-09 2.67879053E+10 2.67858667E+10  42663.466      1995992.9    
 2.78676096E-06 9.30315757E-09 2.73109022E+10 2.73088240E+10  43783.308      2034456.6    
 2.80542960E-06 9.36547984E-09 2.78649987E+10 2.78628770E+10  45003.521      2076766.6    
 2.82422330E-06 9.42821962E-09 2.84146548E+10 2.84124890E+10  46204.547      2119633.0    
 2.84314290E-06 9.49137968E-09 2.89752542E+10 2.89730439E+10  47437.941      2162847.7    
 2.86218924E-06 9.55496287E-09 2.95626804E+10 2.95604241E+10  48759.303      2207576.1    
 2.88136318E-06 9.61897199E-09 3.01395638E+10 3.01372628E+10  50039.279      2250899.3    
 2.90066556E-06 9.68340992E-09 3.07465705E+10 3.07442232E+10  51419.310      2295921.5    
 2.92009725E-06 9.74827952E-09 3.13568985E+10 3.13545047E+10  52806.318      2340966.9    
 2.93965911E-06 9.81358368E-09 3.19709295E+10 3.19684872E+10  54200.690      2388156.6    
 2.95935202E-06 9.87932532E-09 3.26230277E+10 3.26205327E+10  55725.931      2439280.6    
 2.97917685E-06 9.94550737E-09 3.32593015E+10 3.32567559E+10  57188.935      2488332.0    
 2.99913449E-06 1.00121328E-08 3.39242058E+10 3.39216080E+10  58749.559      2539048.8    
 3.01922583E-06 1.00792045E-08 3.46018090E+10 3.45991586E+10  60351.145      2590025.2    
 3.03945176E-06 1.01467255E-08 3.52763437E+10 3.52736416E+10  61934.958      2640174.5    
 3.05981319E-06 1.02146989E-08 3.59960118E+10 3.59932546E+10  63680.038      2693473.0    
 3.08031101E-06 1.02831276E-08 3.66997978E+10 3.66969843E+10  65359.905      2748145.6    
 3.10094616E-06 1.03520148E-08 3.74280462E+10 3.74251738E+10  67124.575      2805214.6    
 3.12171953E-06 1.04213634E-08 3.81802307E+10 3.81772983E+10  68973.708      2863430.3    
 3.14263207E-06 1.04911766E-08 3.89241154E+10 3.89211244E+10  70783.985      2920210.7    
 3.16368471E-06 1.05614574E-08 3.97123871E+10 3.97093347E+10  72757.806      2979665.9    
 3.18487837E-06 1.06322091E-08 4.04937297E+10 4.04906172E+10  74698.041      3037803.5    
 3.20621402E-06 1.07034348E-08 4.12912674E+10 4.12880934E+10  76693.229      3097290.8    
 3.22769259E-06 1.07751376E-08 4.21261167E+10 4.21228752E+10  78827.910      3162639.9    
 3.24931505E-06 1.08473207E-08 4.29464131E+10 4.29431053E+10  80897.022      3226910.4    
 3.27108236E-06 1.09199874E-08 4.38097360E+10 4.38063590E+10  83129.348      3293904.4    
 3.29299549E-06 1.09931409E-08 4.46770538E+10 4.46736082E+10  85370.016      3360240.4    
 3.31505541E-06 1.10667844E-08 4.55503828E+10 4.55468689E+10  87625.595      3426246.0    
 3.33726312E-06 1.11409213E-08 4.64768367E+10 4.64732513E+10  90089.624      3495310.7    
 3.35961959E-06 1.12155548E-08 4.73813112E+10 4.73776553E+10  92454.570      3563432.3    
 3.38212584E-06 1.12906884E-08 4.83267259E+10 4.83229932E+10  94979.003      3637679.4    
 3.40478285E-06 1.13663252E-08 4.92893292E+10 4.92855182E+10  97566.294      3713420.8    
 3.42759164E-06 1.14424687E-08 5.02480264E+10 5.02441385E+10  100126.51      3787836.5    
 3.45055323E-06 1.15191223E-08 5.12710084E+10 5.12670391E+10  102949.23      3866368.2    
 3.47366865E-06 1.15962894E-08 5.22707094E+10 5.22666617E+10  105662.89      3942010.3    
 3.49693891E-06 1.16739735E-08 5.33059011E+10 5.33017731E+10  108517.37      4019427.7    
 3.52036506E-06 1.17521780E-08 5.43740833E+10 5.43698712E+10  111504.53      4100574.2    
 3.54394814E-06 1.18309064E-08 5.54310149E+10 5.54267166E+10  114430.77      4183882.0    
 3.56768921E-06 1.19101621E-08 5.65511953E+10 5.65468053E+10  117623.46      4272395.7    
 3.59158932E-06 1.19899488E-08 5.76606825E+10 5.76562031E+10  120757.70      4358686.4    
 3.61564954E-06 1.20702701E-08 5.87940535E+10 5.87894836E+10  123985.02      4445831.2    
 3.63987094E-06 1.21511293E-08 5.99792056E+10 5.99745424E+10  127433.44      4535772.3    
 3.66425460E-06 1.22325303E-08 6.11443217E+10 6.11395677E+10  130778.03      4623207.9    
 3.68880161E-06 1.23144766E-08 6.23707876E+10 6.23659362E+10  134388.81      4716992.0    
 3.71351306E-06 1.23969718E-08 6.36019124E+10 6.35969596E+10  138008.34      4814771.1    
 3.73839005E-06 1.24800197E-08 6.48426292E+10 6.48375747E+10  141656.82      4912787.8    
 3.76343369E-06 1.25636239E-08 6.61573456E+10 6.61521845E+10  145637.24      5015552.5    
 3.78864510E-06 1.26477882E-08 6.74416016E+10 6.74363378E+10  149459.96      5114425.7    
 3.81402541E-06 1.27325163E-08 6.87842814E+10 6.87789112E+10  153543.19      5216631.0    
 3.83957574E-06 1.28178120E-08 7.01501400E+10 7.01446627E+10  157722.60      5319493.3    
 3.86529723E-06 1.29036791E-08 7.15111086E+10 7.15055225E+10  161860.91      5424239.3    
 3.89119103E-06 1.29901214E-08 7.29634751E+10 7.29577682E+10  166426.47      5540512.6    
 3.91725829E-06 1.30771428E-08 7.43818365E+10 7.43760130E+10  170809.89      5652716.3    
 3.94350018E-06 1.31647472E-08 7.58515678E+10 7.58456246E+10  175426.91      5767795.6    
 3.96991787E-06 1.32529384E-08 7.73666523E+10 7.73605872E+10  180252.20      5884880.7    
 3.99651253E-06 1.33417205E-08 7.88665416E+10 7.88603573E+10  184982.08      5999328.1    
 4.02328535E-06 1.34310972E-08 8.04563783E+10 8.04500686E+10  190145.98      6119481.5    
 4.05023752E-06 1.35210728E-08 8.20298766E+10 8.20234394E+10  195208.70      6241995.7    
 4.07737024E-06 1.36116511E-08 8.36384825E+10 8.36319111E+10  200428.74      6370963.2    
 4.10468473E-06 1.37028361E-08 8.53188001E+10 8.53120894E+10  205999.05      6504715.7    
 4.13218219E-06 1.37946320E-08 8.69716182E+10 8.69647725E+10  211405.02      6634290.2    
