 OPTXAGNF AGN Spectrum Model Parameters: NLS, Astar 0.0                          
 M_BH:  1.0000E+09 M_0            L  :  3.0000E-02 L/Ledd 
 D   :  1.5000E+18 cm             z  :   0.000     redshift 
 Rcor:   40.00     Rg             Ro :   4.000     Rg 
 C_T :  0.2000     keV            Tau:   15.00     Optical Depth 
 gam :   2.200     (-slope)       fpl:  0.2000     Fraction 
 E              0.5DeltaE      E.FE total     E.FE Disk      E.FE Compton   E.FE NonThermal
 (keV)          (keV)          E.E/cm2/s/E    E.E/cm2/s/E    E.E/cm2/s/E    E.E/cm2/s/E    
 1.00334952E-06 3.34952256E-09 1.73851174E+09 1.73838472E+09  743.10761      126276.84    
 1.01007101E-06 3.37196116E-09 1.77285057E+09 1.77272110E+09  762.62816      128709.36    
 1.01683752E-06 3.39455008E-09 1.80862777E+09 1.80849564E+09  783.32570      131340.07    
 1.02364936E-06 3.41729032E-09 1.84538738E+09 1.84525246E+09  804.81913      134106.99    
 1.03050683E-06 3.44018290E-09 1.88182848E+09 1.88169084E+09  825.95272      136811.63    
 1.03741024E-06 3.46322884E-09 1.92061859E+09 1.92047809E+09  849.10207      139655.77    
 1.04435990E-06 3.48642917E-09 1.95882024E+09 1.95867695E+09  871.65163      142417.48    
 1.05135611E-06 3.50978492E-09 1.99806701E+09 1.99792090E+09  895.05594      145220.46    
 1.05839920E-06 3.53329712E-09 2.03895202E+09 2.03880298E+09  919.87216      148120.12    
 1.06548946E-06 3.55696684E-09 2.07921149E+09 2.07905944E+09  944.02973      151100.00    
 1.07262722E-06 3.58079512E-09 2.12176843E+09 2.12161316E+09  970.21430      154302.30    
 1.07981280E-06 3.60478303E-09 2.16426410E+09 2.16410565E+09  996.25956      157454.10    
 1.08704652E-06 3.62893164E-09 2.20731447E+09 2.20715284E+09  1022.7219      160608.52    
 1.09432869E-06 3.65324201E-09 2.25278465E+09 2.25261970E+09  1051.3713      163893.81    
 1.10165965E-06 3.67771524E-09 2.29726154E+09 2.29709339E+09  1078.9855      167068.16    
 1.10903971E-06 3.70235243E-09 2.34394804E+09 2.34377654E+09  1108.6003      170390.82    
 1.11646922E-06 3.72715465E-09 2.39121659E+09 2.39104154E+09  1138.6795      173910.93    
 1.12394850E-06 3.75212303E-09 2.43843628E+09 2.43825765E+09  1168.5963      177455.10    
 1.13147788E-06 3.77725867E-09 2.48900202E+09 2.48881961E+09  1201.6670      181210.32    
 1.13905770E-06 3.80256270E-09 2.53813728E+09 2.53795124E+09  1233.2324      184804.74    
 1.14668830E-06 3.82803623E-09 2.58935122E+09 2.58916144E+09  1266.7237      188506.24    
 1.15437002E-06 3.85368042E-09 2.64192438E+09 2.64173082E+09  1301.4572      192251.99    
 1.16210319E-06 3.87949640E-09 2.69406517E+09 2.69386785E+09  1335.6309      195982.38    
 1.16988818E-06 3.90548532E-09 2.74958774E+09 2.74938623E+09  1373.0887      200132.12    
 1.17772531E-06 3.93164835E-09 2.80422193E+09 2.80401629E+09  1409.5280      204231.52    
 1.18561494E-06 3.95798663E-09 2.86039893E+09 2.86018909E+09  1447.3992      208398.34    
 1.19355743E-06 3.98450137E-09 2.91886768E+09 2.91865352E+09  1487.5025      212676.28    
 1.20155313E-06 4.01119372E-09 2.97646743E+09 2.97624907E+09  1526.5659      216837.44    
 1.20960239E-06 4.03806489E-09 3.03737713E+09 3.03715439E+09  1568.9350      221176.13    
 1.21770557E-06 4.06511607E-09 3.09814699E+09 3.09791983E+09  1611.0234      225551.03    
 1.22586303E-06 4.09234846E-09 3.15976409E+09 3.15953228E+09  1653.8431      230160.71    
 1.23407514E-06 4.11976329E-09 3.22478442E+09 3.22454767E+09  1700.1409      235049.70    
 1.24234227E-06 4.14736177E-09 3.28841323E+09 3.28817172E+09  1744.7936      239761.47    
 1.25066478E-06 4.17514513E-09 3.35522899E+09 3.35498255E+09  1792.7134      244650.68    
 1.25904304E-06 4.20311462E-09 3.42281826E+09 3.42256689E+09  1841.3205      249527.44    
 1.26747742E-06 4.23127147E-09 3.49039769E+09 3.49014145E+09  1889.7301      254348.62    
 1.27596831E-06 4.25961695E-09 3.56269760E+09 3.56243609E+09  1943.1731      259568.77    
 1.28451608E-06 4.28815232E-09 3.63298476E+09 3.63271791E+09  1994.2147      264852.43    
 1.29312111E-06 4.31687884E-09 3.70627468E+09 3.70600227E+09  2048.4071      270357.89    
 1.30178379E-06 4.34579781E-09 3.78144255E+09 3.78116452E+09  2104.5357      275926.47    
 1.31050450E-06 4.37491051E-09 3.85602529E+09 3.85574175E+09  2159.7947      281381.15    
 1.31928362E-06 4.40421823E-09 3.93547360E+09 3.93518427E+09  2220.4040      287111.73    
 1.32812156E-06 4.43372228E-09 4.01358510E+09 4.01329013E+09  2279.2877      292684.80    
 1.33701871E-06 4.46342399E-09 4.09397099E+09 4.09367013E+09  2340.5675      298512.59    
 1.34597546E-06 4.49332467E-09 4.17756030E+09 4.17725307E+09  2405.3737      304824.65    
 1.35499221E-06 4.52342565E-09 4.25994441E+09 4.25963094E+09  2468.5392      311001.06    
 1.36406936E-06 4.55372829E-09 4.34709489E+09 4.34677490E+09  2537.0954      317460.60    
 1.37320733E-06 4.58423392E-09 4.43397076E+09 4.43364435E+09  2605.1079      323807.61    
 1.38240650E-06 4.61494391E-09 4.52213415E+09 4.52180130E+09  2674.3949      330172.61    
 1.39166731E-06 4.64585962E-09 4.61508017E+09 4.61474062E+09  2749.2116      336796.74    
 1.40099015E-06 4.67698245E-09 4.70607890E+09 4.70573263E+09  2821.4146      343439.72    
 1.41037545E-06 4.70831376E-09 4.80167209E+09 4.80131852E+09  2898.9524      350673.15    
 1.41982361E-06 4.73985497E-09 4.89828746E+09 4.89792656E+09  2977.4990      357919.14    
 1.42933508E-06 4.77160747E-09 4.99497468E+09 4.99460654E+09  3055.8313      365078.95    
 1.43891026E-06 4.80357269E-09 5.09831679E+09 5.09794102E+09  3142.1947      372630.50    
 1.44854958E-06 4.83575204E-09 5.19882826E+09 5.19844516E+09  3224.7282      379879.52    
 1.45825348E-06 4.86814696E-09 5.30367461E+09 5.30328394E+09  3312.4155      387357.70    
 1.46802239E-06 4.90075889E-09 5.41111175E+09 5.41071309E+09  3403.1167      395254.85    
 1.47785673E-06 4.93358930E-09 5.51776048E+09 5.51735366E+09  3492.4694      403329.26    
 1.48775696E-06 4.96663964E-09 5.63140635E+09 5.63099089E+09  3590.5375      411865.44    
 1.49772351E-06 4.99991138E-09 5.74304699E+09 5.74262318E+09  3685.6884      420122.94    
 1.50775683E-06 5.03340601E-09 5.85803525E+09 5.85760294E+09  3784.8438      428528.14    
 1.51785736E-06 5.06712502E-09 5.97749599E+09 5.97705497E+09  3889.5679      437135.82    
 1.52802556E-06 5.10106992E-09 6.09528774E+09 6.09483820E+09  3991.7046      445545.68    
 1.53826187E-06 5.13524222E-09 6.21993956E+09 6.21948069E+09  4102.6314      454761.55    
 1.54856676E-06 5.16964344E-09 6.34409320E+09 6.34362480E+09  4212.5339      464186.75    
 1.55894067E-06 5.20427512E-09 6.47019595E+09 6.46971799E+09  4324.6457      473644.31    
 1.56938409E-06 5.23913879E-09 6.60301480E+09 6.60252687E+09  4445.5465      483478.20    
 1.57989746E-06 5.27423602E-09 6.73311066E+09 6.73261312E+09  4562.2960      492980.48    
 1.59048127E-06 5.30956836E-09 6.86982510E+09 6.86931758E+09  4687.7554      502836.63    
 1.60113597E-06 5.34513740E-09 7.00788097E+09 7.00736344E+09  4814.6804      512716.54    
 1.61186206E-06 5.38094472E-09 7.14616269E+09 7.14563475E+09  4941.4285      522995.59    
 1.62265999E-06 5.41699191E-09 7.29382045E+09 7.29328114E+09  5080.9885      534226.39    
 1.63353026E-06 5.45328058E-09 7.43750121E+09 7.43695101E+09  5214.4413      544985.85    
 1.64447336E-06 5.48981235E-09 7.58743599E+09 7.58687455E+09  5356.3232      556087.83    
 1.65548976E-06 5.52658885E-09 7.74093783E+09 7.74036503E+09  5502.8893      567295.23    
 1.66657996E-06 5.56361172E-09 7.89338102E+09 7.89279708E+09  5647.3680      578295.53    
 1.67774445E-06 5.60088261E-09 8.05588046E+09 8.05528471E+09  5806.0429      589948.58    
 1.68898374E-06 5.63840317E-09 8.21538183E+09 8.21477396E+09  5959.7952      601903.10    
 1.70029832E-06 5.67617509E-09 8.37980400E+09 8.37918350E+09  6120.2332      614383.26    
 1.71168869E-06 5.71420004E-09 8.55046453E+09 8.54983105E+09  6289.4594      627184.83    
 1.72315537E-06 5.75247973E-09 8.71881756E+09 8.71817147E+09  6454.6082      639640.62    
 1.73469887E-06 5.79101585E-09 8.89703657E+09 8.89637728E+09  6634.0887      652658.39    
 1.74631969E-06 5.82981012E-09 9.07439261E+09 9.07372035E+09  6811.6781      665440.06    
 1.75801837E-06 5.86886429E-09 9.25468833E+09 9.25400290E+09  6993.0804      678433.47    
 1.76979541E-06 5.90818007E-09 9.44440791E+09 9.44370800E+09  7188.4469      692727.30    
 1.78165135E-06 5.94775924E-09 9.63032490E+09 9.62961070E+09  7377.2227      706825.27    
 1.79358672E-06 5.98760354E-09 9.82577065E+09 9.82504158E+09  7580.2171      721492.68    
 1.80560203E-06 6.02771477E-09 1.00229623E+10 1.00222185E+10  7785.3132      736079.81    
 1.81769784E-06 6.06809470E-09 1.02206509E+10 1.02198924E+10  7990.3978      750529.99    
 1.82987468E-06 6.10874514E-09 1.04315378E+10 1.04307639E+10  8215.9165      765716.19    
 1.84213310E-06 6.14966790E-09 1.06368429E+10 1.06360539E+10  8431.6989      780612.48    
 1.85447363E-06 6.19086481E-09 1.08511650E+10 1.08503596E+10  8661.2651      796794.71    
 1.86689683E-06 6.23233769E-09 1.10703900E+10 1.10695676E+10  8898.0993      813453.53    
 1.87940326E-06 6.27408840E-09 1.12882009E+10 1.12873620E+10  9131.7089      829780.69    
 1.89199346E-06 6.31611880E-09 1.15204548E+10 1.15195984E+10  9388.4403      846978.15    
 1.90466801E-06 6.35843077E-09 1.17482367E+10 1.17473635E+10  9636.8800      863611.56    
 1.91742747E-06 6.40102618E-09 1.19832405E+10 1.19823500E+10  9896.4702      880564.11    
 1.93027240E-06 6.44390694E-09 1.22269359E+10 1.22260275E+10  10169.921      898321.47    
 1.94320339E-06 6.48707497E-09 1.24674481E+10 1.24665211E+10  10436.950      916547.91    
 1.95622099E-06 6.53053217E-09 1.27221402E+10 1.27211935E+10  10727.344      935930.21    
 1.96932581E-06 6.57428050E-09 1.29753861E+10 1.29744201E+10  11014.301      954909.30    
 1.98251841E-06 6.61832191E-09 1.32330496E+10 1.32320643E+10  11307.812      973990.70    
 1.99579939E-06 6.66265834E-09 1.35039219E+10 1.35029165E+10  11623.502      993771.38    
 2.00916934E-06 6.70729179E-09 1.37694897E+10 1.37684649E+10  11928.733      1012951.8    
 2.02262885E-06 6.75222424E-09 1.40487662E+10 1.40477206E+10  12257.172      1033375.2    
 2.03617854E-06 6.79745770E-09 1.43302943E+10 1.43292269E+10  12588.575      1054840.2    
 2.04981899E-06 6.84299417E-09 1.46127815E+10 1.46116923E+10  12920.404      1076300.7    
 2.06355082E-06 6.88883570E-09 1.49138325E+10 1.49127203E+10  13284.817      1098906.6    
 2.07737464E-06 6.93498432E-09 1.52070563E+10 1.52059220E+10  13633.712      1120603.8    
 2.09129106E-06 6.98144209E-09 1.55132682E+10 1.55121112E+10  14005.143      1142988.4    
 2.10530072E-06 7.02821109E-09 1.58262040E+10 1.58250240E+10  14387.830      1165586.2    
 2.11940422E-06 7.07529339E-09 1.61372627E+10 1.61360595E+10  14765.548      1188449.5    
 2.13360221E-06 7.12269110E-09 1.64690499E+10 1.64678209E+10  15180.921      1213881.3    
 2.14789530E-06 7.17040633E-09 1.67941868E+10 1.67929327E+10  15582.351      1238565.4    
 2.16228415E-06 7.21844121E-09 1.71299073E+10 1.71286275E+10  16002.360      1263768.3    
 2.17676939E-06 7.26679787E-09 1.74777215E+10 1.74764155E+10  16444.214      1289524.6    
 2.19135167E-06 7.31547848E-09 1.78211502E+10 1.78198187E+10  16875.964      1314641.9    
 2.20603163E-06 7.36448520E-09 1.81849421E+10 1.81835838E+10  17345.801      1340914.4    
 2.22080994E-06 7.41382021E-09 1.85463678E+10 1.85449823E+10  17809.467      1367716.0    
 2.23568724E-06 7.46348573E-09 1.89144120E+10 1.89129978E+10  18284.358      1395941.6    
 2.25066421E-06 7.51348396E-09 1.93009524E+10 1.92995082E+10  18794.465      1425371.0    
 2.26574151E-06 7.56381713E-09 1.96801041E+10 1.96786310E+10  19287.977      1453811.2    
 2.28091982E-06 7.61448748E-09 2.00789597E+10 2.00774565E+10  19819.367      1483375.3    
 2.29619980E-06 7.66549727E-09 2.04806823E+10 2.04791492E+10  20354.850      1512741.2    
 2.31158215E-06 7.71684879E-09 2.08841283E+10 2.08825655E+10  20891.738      1541907.3    
 2.32706754E-06 7.76854430E-09 2.13136608E+10 2.13120653E+10  21480.572      1573988.3    
 2.34265667E-06 7.82058613E-09 2.17322325E+10 2.17306042E+10  22044.678      1606176.9    
 2.35835023E-06 7.87297659E-09 2.21694973E+10 2.21678352E+10  22645.626      1639472.7    
 2.37414893E-06 7.92571802E-09 2.26159633E+10 2.26142670E+10  23263.973      1672997.7    
 2.39005346E-06 7.97881276E-09 2.30599518E+10 2.30582220E+10  23874.678      1705920.9    
 2.40606454E-06 8.03226319E-09 2.35336604E+10 2.35318953E+10  24546.705      1740563.4    
 2.42218287E-06 8.08607168E-09 2.39975058E+10 2.39957064E+10  25195.318      1774211.9    
 2.43840918E-06 8.14024064E-09 2.44768389E+10 2.44750028E+10  25874.860      1810220.7    
 2.45474420E-06 8.19477248E-09 2.49729783E+10 2.49711032E+10  26588.807      1848472.4    
 2.47118864E-06 8.24966963E-09 2.54630915E+10 2.54611785E+10  27286.869      1885750.6    
 2.48774324E-06 8.30493454E-09 2.59824216E+10 2.59804687E+10  28047.010      1924805.7    
 2.50440875E-06 8.36056967E-09 2.64979465E+10 2.64959547E+10  28796.181      1963022.7    
 2.52118589E-06 8.41657750E-09 2.70233521E+10 2.70213210E+10  29564.517      2001515.1    
 2.53807543E-06 8.47296053E-09 2.75746278E+10 2.75725558E+10  30388.746      2041606.4    
 2.55507811E-06 8.52972128E-09 2.81156297E+10 2.81135160E+10  31186.658      2082563.7    
 2.57219470E-06 8.58686227E-09 2.86849286E+10 2.86827701E+10  32046.382      2126488.5    
 2.58942595E-06 8.64438604E-09 2.92578268E+10 2.92556237E+10  32911.592      2170109.6    
 2.60677263E-06 8.70229518E-09 2.98336877E+10 2.98314405E+10  33780.233      2213415.8    
 2.62423551E-06 8.76059224E-09 3.04461632E+10 3.04438696E+10  34731.666      2258871.7    
 2.64181539E-06 8.81927985E-09 3.10433060E+10 3.10409677E+10  35643.708      2302621.7    
 2.65951303E-06 8.87836060E-09 3.16673262E+10 3.16649414E+10  36615.966      2348204.1    
 2.67732922E-06 8.93783714E-09 3.23039091E+10 3.23014747E+10  37615.061      2396752.8    
 2.69526477E-06 8.99771211E-09 3.29372497E+10 3.29347656E+10  38602.438      2445561.7    
 2.71332047E-06 9.05798819E-09 3.36131642E+10 3.36106274E+10  39689.665      2497166.1    
 2.73149713E-06 9.11866806E-09 3.42744889E+10 3.42719013E+10  40737.634      2546883.6    
 2.74979555E-06 9.17975443E-09 3.49584364E+10 3.49557968E+10  41837.046      2597707.9    
 2.76821656E-06 9.24125002E-09 3.56656998E+10 3.56630072E+10  42990.604      2649528.1    
 2.78676096E-06 9.30315757E-09 3.63647041E+10 3.63619591E+10  44119.207      2700883.9    
 2.80542960E-06 9.36547984E-09 3.71055888E+10 3.71027858E+10  45348.984      2757667.2    
 2.82422330E-06 9.42821962E-09 3.78404463E+10 3.78375853E+10  46559.423      2814403.4    
 2.84314290E-06 9.49137968E-09 3.85900121E+10 3.85870927E+10  47802.489      2871600.2    
 2.86218924E-06 9.55496287E-09 3.93757162E+10 3.93727362E+10  49134.230      2930790.3    
 2.88136318E-06 9.61897199E-09 4.01471527E+10 4.01441141E+10  50424.255      2988134.9    
 2.90066556E-06 9.68340992E-09 4.09591799E+10 4.09560803E+10  51815.138      3047716.1    
 2.92009725E-06 9.74827952E-09 4.17756439E+10 4.17724826E+10  53213.056      3108088.3    
 2.93965911E-06 9.81358368E-09 4.25970506E+10 4.25938248E+10  54618.399      3171218.8    
 2.95935202E-06 9.87932532E-09 4.34697919E+10 4.34664968E+10  56155.666      3238871.5    
 2.97917685E-06 9.94550737E-09 4.43211181E+10 4.43177566E+10  57630.195      3303800.3    
 2.99913449E-06 1.00121328E-08 4.52110457E+10 4.52076156E+10  59203.133      3370922.6    
 3.01922583E-06 1.00792045E-08 4.61180718E+10 4.61145726E+10  60817.365      3438388.9    
 3.03945176E-06 1.01467255E-08 4.70208912E+10 4.70173240E+10  62413.682      3504781.0    
 3.05981319E-06 1.02146989E-08 4.79846311E+10 4.79809906E+10  64172.572      3576325.7    
 3.08031101E-06 1.02831276E-08 4.89268524E+10 4.89231373E+10  65865.722      3649278.7    
 3.10094616E-06 1.03520148E-08 4.99020665E+10 4.98982740E+10  67644.364      3724839.0    
 3.12171953E-06 1.04213634E-08 5.09095773E+10 5.09057059E+10  69508.155      3801885.5    
 3.14263207E-06 1.04911766E-08 5.19057979E+10 5.19018495E+10  71332.777      3877047.3    
 3.16368471E-06 1.05614574E-08 5.29619744E+10 5.29579454E+10  73322.273      3955730.4    
 3.18487837E-06 1.06322091E-08 5.40087144E+10 5.40046063E+10  75277.912      4032785.3    
 3.20621402E-06 1.07034348E-08 5.50772856E+10 5.50730958E+10  77288.952      4112501.1    
 3.22769259E-06 1.07751376E-08 5.61962726E+10 5.61919934E+10  79440.623      4199763.1    
 3.24931505E-06 1.08473207E-08 5.72954882E+10 5.72911218E+10  81526.195      4284864.6    
 3.27108236E-06 1.09199874E-08 5.84528634E+10 5.84484061E+10  83776.312      4373531.1    
 3.29299549E-06 1.09931409E-08 5.96155730E+10 5.96110257E+10  86034.842      4461335.5    
 3.31505541E-06 1.10667844E-08 6.07863330E+10 6.07816960E+10  88308.408      4548709.3    
 3.33726312E-06 1.11409213E-08 6.20289654E+10 6.20242344E+10  90792.130      4640228.0    
 3.35961959E-06 1.12155548E-08 6.32417405E+10 6.32369159E+10  93175.963      4731496.3    
 3.38212584E-06 1.12906884E-08 6.45098915E+10 6.45049651E+10  95720.590      4830713.9    
 3.40478285E-06 1.13663252E-08 6.58012508E+10 6.57962215E+10  98328.594      4930966.7    
 3.42759164E-06 1.14424687E-08 6.70872143E+10 6.70820839E+10  100909.30      5029479.9    
 3.45055323E-06 1.15191223E-08 6.84602401E+10 6.84550030E+10  103754.67      5133411.4    
 3.47366865E-06 1.15962894E-08 6.98016026E+10 6.97962625E+10  106490.10      5233546.3    
 3.49693891E-06 1.16739735E-08 7.11909910E+10 7.11855456E+10  109367.50      5336041.1    
 3.52036506E-06 1.17521780E-08 7.26250390E+10 7.26194817E+10  112378.68      5444925.3    
 3.54394814E-06 1.18309064E-08 7.40437083E+10 7.40380368E+10  115328.44      5556183.8    
 3.56768921E-06 1.19101621E-08 7.55481072E+10 7.55423153E+10  118546.85      5673335.0    
 3.59158932E-06 1.19899488E-08 7.70378841E+10 7.70319749E+10  121706.34      5787565.8    
 3.61564954E-06 1.20702701E-08 7.85599624E+10 7.85539345E+10  124959.68      5902925.4    
 3.63987094E-06 1.21511293E-08 8.01522518E+10 8.01461013E+10  128435.95      6021967.8    
 3.66425460E-06 1.22325303E-08 8.17172006E+10 8.17109309E+10  131807.53      6137833.6    
 3.68880161E-06 1.23144766E-08 8.33653750E+10 8.33589757E+10  135447.53      6263920.2    
 3.71351306E-06 1.23969718E-08 8.50197585E+10 8.50132253E+10  139096.34      6394129.3    
 3.73839005E-06 1.24800197E-08 8.66870335E+10 8.66803668E+10  142774.36      6523891.8    
 3.76343369E-06 1.25636239E-08 8.84547891E+10 8.84479824E+10  146787.07      6659906.5    
 3.78864510E-06 1.26477882E-08 9.01809841E+10 9.01740427E+10  150640.78      6790806.8    
 3.81402541E-06 1.27325163E-08 9.19864937E+10 9.19794129E+10  154757.18      6926096.3    
 3.83957574E-06 1.28178120E-08 9.38234009E+10 9.38161793E+10  158970.57      7062664.6    
 3.86529723E-06 1.29036791E-08 9.56534898E+10 9.56461231E+10  163142.51      7203587.6    
 3.89119103E-06 1.29901214E-08 9.76078348E+10 9.76003090E+10  167745.29      7358089.9    
 3.91725829E-06 1.30771428E-08 9.95157285E+10 9.95080497E+10  172164.41      7506643.0    
 3.94350018E-06 1.31647472E-08 1.01493398E+11 1.01485562E+11  176819.09      7658986.6    
 3.96991787E-06 1.32529384E-08 1.03532686E+11 1.03524691E+11  181683.81      7813975.0    
 3.99651253E-06 1.33417205E-08 1.05551088E+11 1.05542936E+11  186452.30      7965500.3    
 4.02328535E-06 1.34310972E-08 1.07691892E+11 1.07683575E+11  191658.49      8125327.0    
 4.05023752E-06 1.35210728E-08 1.09810253E+11 1.09801766E+11  196762.64      8290106.3    
 4.07737024E-06 1.36116511E-08 1.11976272E+11 1.11967609E+11  202025.45      8461221.9    
 4.10468473E-06 1.37028361E-08 1.14239911E+11 1.14231065E+11  207641.49      8638273.4    
 4.13218219E-06 1.37946320E-08 1.16465831E+11 1.16456808E+11  213091.82      8809834.2    
