 OPTXAGNF AGN Spectrum Model Parameters: NLS, Astar 0.0                          
 M_BH:  1.0000E+09 M_0            L  :  0.5000     L/Ledd 
 D   :  1.5000E+18 cm             z  :   0.000     redshift 
 Rcor:   40.00     Rg             Ro :   4.000     Rg 
 C_T :  0.2000     keV            Tau:   15.00     Optical Depth 
 gam :   2.200     (-slope)       fpl:  0.2000     Fraction 
 E              0.5DeltaE      E.FE total     E.FE Disk      E.FE Compton   E.FE NonThermal
 (keV)          (keV)          E.E/cm2/s/E    E.E/cm2/s/E    E.E/cm2/s/E    E.E/cm2/s/E    
 1.00334952E-06 3.34952256E-09 3.53618187E+09 3.53592038E+09  762.73543      260725.99    
 1.01007101E-06 3.37196116E-09 3.60618014E+09 3.60591349E+09  782.77337      265860.84    
 1.01683752E-06 3.39455008E-09 3.67912145E+09 3.67884950E+09  804.01964      271144.76    
 1.02364936E-06 3.41729032E-09 3.75407264E+09 3.75379527E+09  826.08296      276538.52    
 1.03050683E-06 3.44018290E-09 3.82836925E+09 3.82808629E+09  847.77690      282119.43    
 1.03741024E-06 3.46322884E-09 3.90747572E+09 3.90718669E+09  871.54026      288163.66    
 1.04435990E-06 3.48642917E-09 3.98537427E+09 3.98507936E+09  894.68788      294022.16    
 1.05135611E-06 3.50978492E-09 4.06541142E+09 4.06511053E+09  918.71302      299970.77    
 1.05839920E-06 3.53329712E-09 4.14880305E+09 4.14849602E+09  944.18767      306081.47    
 1.06548946E-06 3.55696684E-09 4.23090971E+09 4.23059671E+09  968.98616      312025.99    
 1.07262722E-06 3.58079512E-09 4.31772211E+09 4.31740282E+09  995.86564      318288.87    
 1.07981280E-06 3.60478303E-09 4.40440669E+09 4.40408082E+09  1022.6021      324842.13    
 1.08704652E-06 3.62893164E-09 4.49222531E+09 4.49189273E+09  1049.7668      331529.61    
 1.09432869E-06 3.65324201E-09 4.58500203E+09 4.58466243E+09  1079.1768      338512.38    
 1.10165965E-06 3.67771524E-09 4.67573917E+09 4.67539282E+09  1107.5241      345243.63    
 1.10903971E-06 3.70235243E-09 4.77100377E+09 4.77065041E+09  1137.9254      352222.06    
 1.11646922E-06 3.72715465E-09 4.86745858E+09 4.86709822E+09  1168.8034      359189.60    
 1.12394850E-06 3.75212303E-09 4.96380952E+09 4.96344214E+09  1199.5147      366172.19    
 1.13147788E-06 3.77725867E-09 5.06702084E+09 5.06664561E+09  1233.4641      374004.99    
 1.13905770E-06 3.80256270E-09 5.16729458E+09 5.16691169E+09  1265.8680      381626.83    
 1.14668830E-06 3.82803623E-09 5.27182892E+09 5.27143813E+09  1300.2492      389485.53    
 1.15437002E-06 3.85368042E-09 5.37914863E+09 5.37874986E+09  1335.9058      397440.72    
 1.16210319E-06 3.87949640E-09 5.48557701E+09 5.48517040E+09  1370.9876      405233.39    
 1.16988818E-06 3.90548532E-09 5.59894109E+09 5.59852627E+09  1409.4412      413410.93    
 1.17772531E-06 3.93164835E-09 5.71047821E+09 5.71005521E+09  1446.8492      421550.96    
 1.18561494E-06 3.95798663E-09 5.82517806E+09 5.82474632E+09  1485.7274      430253.56    
 1.19355743E-06 3.98450137E-09 5.94457871E+09 5.94413784E+09  1526.8972      439342.44    
 1.20155313E-06 4.01119372E-09 6.06219081E+09 6.06174108E+09  1566.9995      448166.39    
 1.20960239E-06 4.03806489E-09 6.18659463E+09 6.18613564E+09  1610.4957      457384.92    
 1.21770557E-06 4.06511607E-09 6.31070683E+09 6.31023873E+09  1653.7038      466454.43    
 1.22586303E-06 4.09234846E-09 6.43655342E+09 6.43607618E+09  1697.6627      475542.64    
 1.23407514E-06 4.11976329E-09 6.56938561E+09 6.56889860E+09  1745.1927      485267.77    
 1.24234227E-06 4.14736177E-09 6.69935503E+09 6.69885808E+09  1791.0337      495158.05    
 1.25066478E-06 4.17514513E-09 6.83586652E+09 6.83535913E+09  1840.2292      505542.57    
 1.25904304E-06 4.20311462E-09 6.97396242E+09 6.97344464E+09  1890.1304      515895.71    
 1.26747742E-06 4.23127147E-09 7.11203223E+09 7.11150417E+09  1939.8289      526120.04    
 1.27596831E-06 4.25961695E-09 7.25979767E+09 7.25925877E+09  1994.6954      536904.03    
 1.28451608E-06 4.28815232E-09 7.40342031E+09 7.40287099E+09  2047.0963      547278.29    
 1.29312111E-06 4.31687884E-09 7.55320919E+09 7.55264880E+09  2102.7323      558281.78    
 1.30178379E-06 4.34579781E-09 7.70685387E+09 7.70628169E+09  2160.3564      570018.01    
 1.31050450E-06 4.37491051E-09 7.85928903E+09 7.85870522E+09  2217.0878      581585.27    
 1.31928362E-06 4.40421823E-09 8.02172315E+09 8.02112710E+09  2279.3126      593765.84    
 1.32812156E-06 4.43372228E-09 8.18140194E+09 8.18079403E+09  2339.7657      605567.51    
 1.33701871E-06 4.46342399E-09 8.34575106E+09 8.34513109E+09  2402.6790      617567.50    
 1.34597546E-06 4.49332467E-09 8.51668273E+09 8.51605037E+09  2469.2135      629897.23    
 1.35499221E-06 4.52342565E-09 8.68512815E+09 8.68448328E+09  2534.0632      642339.86    
 1.36406936E-06 4.55372829E-09 8.86337387E+09 8.86271528E+09  2604.4481      655985.13    
 1.37320733E-06 4.58423392E-09 9.04104767E+09 9.04037554E+09  2674.2749      669454.47    
 1.38240650E-06 4.61494391E-09 9.22136289E+09 9.22067718E+09  2745.4102      682958.64    
 1.39166731E-06 4.64585962E-09 9.41151493E+09 9.41081511E+09  2822.2237      697004.06    
 1.40099015E-06 4.67698245E-09 9.59764991E+09 9.59693643E+09  2896.3535      710580.37    
 1.41037545E-06 4.70831376E-09 9.79323471E+09 9.79250705E+09  2975.9611      724688.43    
 1.41982361E-06 4.73985497E-09 9.99091700E+09 9.99017456E+09  3056.6048      739388.70    
 1.42933508E-06 4.77160747E-09 1.01887383E+10 1.01879807E+10  3137.0283      754524.68    
 1.43891026E-06 4.80357269E-09 1.04002579E+10 1.03994841E+10  3225.6988      770579.89    
 1.44854958E-06 4.83575204E-09 1.06059378E+10 1.06051486E+10  3310.4364      785952.87    
 1.45825348E-06 4.86814696E-09 1.08205381E+10 1.08197329E+10  3400.4663      801801.31    
 1.46802239E-06 4.90075889E-09 1.10404668E+10 1.10396455E+10  3493.5913      817812.92    
 1.47785673E-06 4.93358930E-09 1.12587595E+10 1.12579224E+10  3585.3315      833571.85    
 1.48775696E-06 4.96663964E-09 1.14914639E+10 1.14906093E+10  3686.0214      850964.64    
 1.49772351E-06 4.99991138E-09 1.17200259E+10 1.17191537E+10  3783.7157      868481.85    
 1.50775683E-06 5.03340601E-09 1.19554774E+10 1.19545871E+10  3885.5223      886322.23    
 1.51785736E-06 5.06712502E-09 1.22001399E+10 1.21992313E+10  3993.0473      904609.61    
 1.52802556E-06 5.10106992E-09 1.24413490E+10 1.24404225E+10  4097.9155      922406.73    
 1.53826187E-06 5.13524222E-09 1.26966935E+10 1.26957483E+10  4211.8103      940985.75    
 1.54856676E-06 5.16964344E-09 1.29509986E+10 1.29500349E+10  4324.6533      959358.71    
 1.55894067E-06 5.20427512E-09 1.32093120E+10 1.32083288E+10  4439.7652      978764.40    
 1.56938409E-06 5.23913879E-09 1.34814712E+10 1.34804670E+10  4563.9026      999659.67    
 1.57989746E-06 5.27423602E-09 1.37479985E+10 1.37469740E+10  4683.7772      1019811.9    
 1.59048127E-06 5.30956836E-09 1.40281714E+10 1.40271259E+10  4812.5963      1040748.0    
 1.60113597E-06 5.34513740E-09 1.43111004E+10 1.43100339E+10  4942.9206      1061592.3    
 1.61186206E-06 5.38094472E-09 1.45944791E+10 1.45933918E+10  5073.0633      1082230.1    
 1.62265999E-06 5.41699191E-09 1.48972024E+10 1.48960931E+10  5216.3631      1104120.9    
 1.63353026E-06 5.45328058E-09 1.51917003E+10 1.51905685E+10  5353.3914      1126411.2    
 1.64447336E-06 5.48981235E-09 1.54990988E+10 1.54979433E+10  5499.0761      1149964.3    
 1.65548976E-06 5.52658885E-09 1.58138510E+10 1.58126716E+10  5649.5714      1173766.8    
 1.66657996E-06 5.56361172E-09 1.61263988E+10 1.61251959E+10  5797.9231      1197096.9    
 1.67774445E-06 5.60088261E-09 1.64597093E+10 1.64584817E+10  5960.8541      1221638.7    
 1.68898374E-06 5.63840317E-09 1.67868067E+10 1.67855551E+10  6118.7300      1245414.4    
 1.70029832E-06 5.67617509E-09 1.71240553E+10 1.71227791E+10  6283.4720      1269917.8    
 1.71168869E-06 5.71420004E-09 1.74741847E+10 1.74728817E+10  6457.2395      1296535.2    
 1.72315537E-06 5.75247973E-09 1.78195247E+10 1.78181951E+10  6626.8198      1322938.3    
 1.73469887E-06 5.79101585E-09 1.81852471E+10 1.81838897E+10  6811.1189      1350601.7    
 1.74631969E-06 5.82981012E-09 1.85491665E+10 1.85477818E+10  6993.4761      1377727.9    
 1.75801837E-06 5.86886429E-09 1.89191444E+10 1.89177323E+10  7179.7493      1404977.5    
 1.76979541E-06 5.90818007E-09 1.93085980E+10 1.93071574E+10  7380.3643      1433232.7    
 1.78165135E-06 5.94775924E-09 1.96901623E+10 1.96886936E+10  7574.2107      1461125.9    
 1.79358672E-06 5.98760354E-09 2.00914253E+10 2.00899258E+10  7782.6602      1491687.7    
 1.80560203E-06 6.02771477E-09 2.04962820E+10 2.04947513E+10  7993.2686      1522657.7    
 1.81769784E-06 6.06809470E-09 2.09021421E+10 2.09005806E+10  8203.8653      1553309.6    
 1.82987468E-06 6.10874514E-09 2.13353079E+10 2.13337139E+10  8435.4491      1585597.3    
 1.84213310E-06 6.14966790E-09 2.17568905E+10 2.17552653E+10  8657.0336      1616602.9    
 1.85447363E-06 6.19086481E-09 2.21971209E+10 2.21954634E+10  8892.7751      1648562.2    
 1.86689683E-06 6.23233769E-09 2.26474843E+10 2.26457935E+10  9135.9816      1681633.9    
 1.87940326E-06 6.27408840E-09 2.30948917E+10 2.30931666E+10  9375.8764      1715770.1    
 1.89199346E-06 6.31611880E-09 2.35722033E+10 2.35704413E+10  9639.5198      1752330.9    
 1.90466801E-06 6.35843077E-09 2.40402202E+10 2.40384227E+10  9894.6471      1787619.6    
 1.91742747E-06 6.40102618E-09 2.45231767E+10 2.45213430E+10  10161.227      1823608.0    
 1.93027240E-06 6.44390694E-09 2.50241264E+10 2.50222556E+10  10442.044      1860406.9    
 1.94320339E-06 6.48707497E-09 2.55184418E+10 2.55165347E+10  10716.266      1896327.5    
 1.95622099E-06 6.53053217E-09 2.60421369E+10 2.60401910E+10  11014.486      1934892.2    
 1.96932581E-06 6.57428050E-09 2.65628045E+10 2.65608184E+10  11309.177      1974812.1    
 1.98251841E-06 6.61832191E-09 2.70926027E+10 2.70905758E+10  11610.599      2015306.1    
 1.99579939E-06 6.66265834E-09 2.76497806E+10 2.76477113E+10  11934.804      2057349.3    
 2.00916934E-06 6.70729179E-09 2.81959145E+10 2.81938042E+10  12248.265      2097993.9    
 2.02262885E-06 6.75222424E-09 2.87704689E+10 2.87683161E+10  12585.565      2140200.2    
 2.03617854E-06 6.79745770E-09 2.93496628E+10 2.93474676E+10  12925.911      2182259.1    
 2.04981899E-06 6.84299417E-09 2.99308084E+10 2.99285699E+10  13266.694      2225225.4    
 2.06355082E-06 6.88883570E-09 3.05504796E+10 3.05481930E+10  13640.947      2272947.7    
 2.07737464E-06 6.93498432E-09 3.11538524E+10 3.11515194E+10  13999.261      2318970.4    
 2.09129106E-06 6.98144209E-09 3.17841696E+10 3.17817887E+10  14380.724      2366511.4    
 2.10530072E-06 7.02821109E-09 3.24284228E+10 3.24259936E+10  14773.751      2414421.2    
 2.11940422E-06 7.07529339E-09 3.30687268E+10 3.30662502E+10  15161.672      2461474.3    
 2.13360221E-06 7.12269110E-09 3.37520823E+10 3.37495557E+10  15588.276      2511035.5    
 2.14789530E-06 7.17040633E-09 3.44215682E+10 3.44189913E+10  16000.556      2560931.8    
 2.16228415E-06 7.21844121E-09 3.51130187E+10 3.51103881E+10  16431.922      2614182.2    
 2.17676939E-06 7.26679787E-09 3.58295844E+10 3.58268986E+10  16885.729      2668909.7    
 2.19135167E-06 7.31547848E-09 3.65369744E+10 3.65342349E+10  17329.158      2722189.5    
 2.20603163E-06 7.36448520E-09 3.72866929E+10 3.72838972E+10  17811.712      2777941.3    
 2.22080994E-06 7.41382021E-09 3.80314361E+10 3.80285852E+10  18287.928      2832574.4    
 2.23568724E-06 7.46348573E-09 3.87898983E+10 3.87869919E+10  18775.676      2887639.6    
 2.25066421E-06 7.51348396E-09 3.95868291E+10 3.95838624E+10  19299.600      2947379.9    
 2.26574151E-06 7.56381713E-09 4.03683171E+10 4.03652896E+10  19806.478      3007634.3    
 2.28091982E-06 7.61448748E-09 4.11907945E+10 4.11877037E+10  20352.269      3070451.2    
 2.29619980E-06 7.66549727E-09 4.20191911E+10 4.20160374E+10  20902.265      3132804.8    
 2.31158215E-06 7.71684879E-09 4.28511133E+10 4.28478972E+10  21453.706      3194671.7    
 2.32706754E-06 7.76854430E-09 4.37373540E+10 4.37340723E+10  22058.513      3259608.9    
 2.34265667E-06 7.82058613E-09 4.46006772E+10 4.45973322E+10  22637.917      3322369.6    
 2.35835023E-06 7.87297659E-09 4.55029169E+10 4.54995033E+10  23255.170      3390362.9    
 2.37414893E-06 7.92571802E-09 4.64242902E+10 4.64208047E+10  23890.301      3461554.8    
 2.39005346E-06 7.97881276E-09 4.73404198E+10 4.73368639E+10  24517.581      3531397.4    
 2.40606454E-06 8.03226319E-09 4.83185026E+10 4.83148724E+10  25207.861      3605059.0    
 2.42218287E-06 8.08607168E-09 4.92759288E+10 4.92722268E+10  25874.089      3676151.4    
 2.43840918E-06 8.14024064E-09 5.02656041E+10 5.02618288E+10  26572.093      3748741.6    
 2.45474420E-06 8.19477248E-09 5.12903010E+10 5.12864503E+10  27305.446      3823353.0    
 2.47118864E-06 8.24966963E-09 5.23023326E+10 5.22984045E+10  28022.480      3900099.2    
 2.48774324E-06 8.30493454E-09 5.33753247E+10 5.33713129E+10  28803.295      3983022.9    
 2.50440875E-06 8.36056967E-09 5.44402873E+10 5.44361936E+10  29572.842      4064145.4    
 2.52118589E-06 8.41657750E-09 5.55258076E+10 5.55216314E+10  30362.080      4145851.5    
 2.53807543E-06 8.47296053E-09 5.66653304E+10 5.66610688E+10  31208.746      4230430.5    
 2.55507811E-06 8.52972128E-09 5.77832739E+10 5.77789295E+10  32028.374      4312402.0    
 2.57219470E-06 8.58686227E-09 5.89603047E+10 5.89558735E+10  32911.514      4398366.3    
 2.58942595E-06 8.64438604E-09 6.01447818E+10 6.01402593E+10  33800.291      4488790.6    
 2.60677263E-06 8.70229518E-09 6.13353532E+10 6.13307379E+10  34692.595      4580587.5    
 2.62423551E-06 8.76059224E-09 6.26024683E+10 6.25977554E+10  35669.969      4677252.0    
 2.64181539E-06 8.81927985E-09 6.38373822E+10 6.38325755E+10  36606.870      4770070.4    
 2.65951303E-06 8.87836060E-09 6.51284653E+10 6.51235618E+10  37605.645      4865933.5    
 2.67732922E-06 8.93783714E-09 6.64457556E+10 6.64407546E+10  38631.998      4962371.3    
 2.69526477E-06 8.99771211E-09 6.77561306E+10 6.77510324E+10  39646.311      5058533.8    
 2.71332047E-06 9.05798819E-09 6.91556207E+10 6.91504141E+10  40763.227      5165831.9    
 2.73149713E-06 9.11866806E-09 7.05244181E+10 7.05191049E+10  41839.804      5271333.4    
 2.74979555E-06 9.17975443E-09 7.19405156E+10 7.19350933E+10  42969.244      5379266.2    
 2.76821656E-06 9.24125002E-09 7.34053965E+10 7.33998630E+10  44154.325      5489390.6    
 2.78676096E-06 9.30315757E-09 7.48528156E+10 7.48471734E+10  45313.765      5596843.3    
 2.80542960E-06 9.36547984E-09 7.63879748E+10 7.63822191E+10  46577.173      5709193.5    
 2.82422330E-06 9.42821962E-09 7.79103569E+10 7.79044875E+10  47820.712      5821622.0    
 2.84314290E-06 9.49137968E-09 7.94634706E+10 7.94574807E+10  49097.779      5940845.4    
 2.86218924E-06 9.55496287E-09 8.10923424E+10 8.10862253E+10  50465.975      6066682.5    
 2.88136318E-06 9.61897199E-09 8.26910962E+10 8.26848560E+10  51791.303      6188352.9    
 2.90066556E-06 9.68340992E-09 8.43749778E+10 8.43686096E+10  53220.280      6314979.9    
 2.92009725E-06 9.74827952E-09 8.60680368E+10 8.60615416E+10  54656.491      6440524.5    
 2.93965911E-06 9.81358368E-09 8.77713044E+10 8.77646829E+10  56100.333      6565379.5    
 2.95935202E-06 9.87932532E-09 8.95823638E+10 8.95756066E+10  57679.753      6699520.7    
 2.97917685E-06 9.94550737E-09 9.13482238E+10 9.13413289E+10  59194.702      6835750.8    
 2.99913449E-06 1.00121328E-08 9.31951150E+10 9.31880759E+10  60810.788      6978362.4    
 3.01922583E-06 1.00792045E-08 9.50778254E+10 9.50706412E+10  62469.317      7121697.0    
 3.03945176E-06 1.01467255E-08 9.69514818E+10 9.69441551E+10  64109.435      7262550.5    
 3.05981319E-06 1.02146989E-08 9.89532362E+10 9.89457593E+10  65916.639      7410948.0    
 3.08031101E-06 1.02831276E-08 1.00909475E+11 1.00901853E+11  67656.283      7554380.2    
 3.10094616E-06 1.03520148E-08 1.02935012E+11 1.02927238E+11  69483.795      7704995.1    
 3.12171953E-06 1.04213634E-08 1.05028434E+11 1.05020495E+11  71398.824      7867325.6    
 3.14263207E-06 1.04911766E-08 1.07097837E+11 1.07089737E+11  73273.599      8026815.0    
 3.16368471E-06 1.05614574E-08 1.09293457E+11 1.09285188E+11  75317.834      8194116.9    
 3.18487837E-06 1.06322091E-08 1.11468965E+11 1.11460530E+11  77327.275      8357495.0    
 3.20621402E-06 1.07034348E-08 1.13690283E+11 1.13681681E+11  79393.662      8522335.8    
 3.22769259E-06 1.07751376E-08 1.16017781E+11 1.16009007E+11  81604.597      8692815.8    
 3.24931505E-06 1.08473207E-08 1.18303301E+11 1.18294353E+11  83747.598      8863886.7    
 3.27108236E-06 1.09199874E-08 1.20711400E+11 1.20702263E+11  86059.731      9051157.7    
 3.29299549E-06 1.09931409E-08 1.23130535E+11 1.23121209E+11  88380.516      9237649.8    
 3.31505541E-06 1.10667844E-08 1.25566395E+11 1.25556881E+11  90716.760      9423107.1    
 3.33726312E-06 1.11409213E-08 1.28153931E+11 1.28144221E+11  93269.028      9617511.7    
 3.35961959E-06 1.12155548E-08 1.30678061E+11 1.30668161E+11  95718.623      9804696.9    
 3.38212584E-06 1.12906884E-08 1.33319007E+11 1.33308910E+11  98333.506      9998230.0    
 3.40478285E-06 1.13663252E-08 1.36008795E+11 1.35998493E+11  101013.54      10201058.    
 3.42759164E-06 1.14424687E-08 1.38686849E+11 1.38676336E+11  103665.52      10409454.    
 3.45055323E-06 1.15191223E-08 1.41548938E+11 1.41538200E+11  106589.57      10630547.    
 3.47366865E-06 1.15962894E-08 1.44343670E+11 1.44332717E+11  109400.61      10843081.    
 3.49693891E-06 1.16739735E-08 1.47239794E+11 1.47228621E+11  112357.59      11060765.    
 3.52036506E-06 1.17521780E-08 1.50230244E+11 1.50218846E+11  115452.12      11282367.    
 3.54394814E-06 1.18309064E-08 1.53187724E+11 1.53176106E+11  118483.50      11499360.    
 3.56768921E-06 1.19101621E-08 1.56326665E+11 1.56314806E+11  121791.07      11737527.    
 3.59158932E-06 1.19899488E-08 1.59434261E+11 1.59422156E+11  125038.07      11979996.    
 3.61564954E-06 1.20702701E-08 1.62609996E+11 1.62597642E+11  128381.57      12224977.    
 3.63987094E-06 1.21511293E-08 1.65934419E+11 1.65921809E+11  131954.25      12478113.    
 3.66425460E-06 1.22325303E-08 1.69200387E+11 1.69187528E+11  135419.32      12723479.    
 3.68880161E-06 1.23144766E-08 1.72642719E+11 1.72629601E+11  139160.35      12978705.    
 3.71351306E-06 1.23969718E-08 1.76097851E+11 1.76084475E+11  142910.45      13232917.    
 3.73839005E-06 1.24800197E-08 1.79579933E+11 1.79566287E+11  146690.58      13498552.    
 3.76343369E-06 1.25636239E-08 1.83275283E+11 1.83261344E+11  150814.83      13787487.    
 3.78864510E-06 1.26477882E-08 1.86881788E+11 1.86867568E+11  154775.62      14065314.    
 3.81402541E-06 1.27325163E-08 1.90656580E+11 1.90642068E+11  159006.50      14352849.    
 3.83957574E-06 1.28178120E-08 1.94497768E+11 1.94482963E+11  163337.11      14641351.    
 3.86529723E-06 1.29036791E-08 1.98323895E+11 1.98308802E+11  167625.11      14925396.    
 3.89119103E-06 1.29901214E-08 2.02414230E+11 2.02398831E+11  172356.12      15226886.    
 3.91725829E-06 1.30771428E-08 2.06405110E+11 2.06389400E+11  176898.29      15533923.    
 3.94350018E-06 1.31647472E-08 2.10544171E+11 2.10528132E+11  181682.68      15857111.    
 3.96991787E-06 1.32529384E-08 2.14814139E+11 2.14797765E+11  186683.05      16186604.    
 3.99651253E-06 1.33417205E-08 2.19038960E+11 2.19022260E+11  191584.49      16508230.    
 4.02328535E-06 1.34310972E-08 2.23524446E+11 2.23507403E+11  196936.01      16845336.    
 4.05023752E-06 1.35210728E-08 2.27961444E+11 2.27944067E+11  202182.63      17174377.    
 4.07737024E-06 1.36116511E-08 2.32499563E+11 2.32481845E+11  207592.40      17510518.    
 4.10468473E-06 1.37028361E-08 2.37245702E+11 2.37227611E+11  213365.42      17877711.    
 4.13218219E-06 1.37946320E-08 2.41910581E+11 2.41892120E+11  218968.04      18241667.    
