 OPTXAGNF AGN Spectrum Model Parameters: NLS, Astar 0.0                          
 M_BH:  2.0000E+06 M_0            L  :  0.1000     L/Ledd 
 D   :  1.5000E+18 cm             z  :   0.000     redshift 
 Rcor:   40.00     Rg             Ro :   4.000     Rg 
 C_T :  0.2000     keV            Tau:   15.00     Optical Depth 
 gam :   2.200     (-slope)       fpl:  0.2000     Fraction 
 E              0.5DeltaE      E.FE total     E.FE Disk      E.FE Compton   E.FE NonThermal
 (keV)          (keV)          E.E/cm2/s/E    E.E/cm2/s/E    E.E/cm2/s/E    E.E/cm2/s/E    
 1.00334952E-06 3.34952256E-09  44771.766      44770.316     8.84431886E-05  1.4500684    
 1.01007101E-06 3.37196116E-09  45659.275      45657.824     9.07668728E-05  1.4512024    
 1.01683752E-06 3.39455008E-09  46584.193      46582.742     9.32306909E-05  1.4510801    
 1.02364936E-06 3.41729032E-09  47534.657      47533.206     9.57892692E-05  1.4505574    
 1.03050683E-06 3.44018290E-09  48476.773      48475.321     9.83050081E-05  1.4516858    
 1.03741024E-06 3.46322884E-09  49480.049      49478.599     1.01060750E-04  1.4503174    
 1.04435990E-06 3.48642917E-09  50467.944      50466.492     1.03745083E-04  1.4510440    
 1.05135611E-06 3.50978492E-09  51483.022      51481.571     1.06531187E-04  1.4513292    
 1.05839920E-06 3.53329712E-09  52540.759      52539.309     1.09485403E-04  1.4503980    
 1.06548946E-06 3.55696684E-09  53582.127      53580.676     1.12361200E-04  1.4515282    
 1.07262722E-06 3.58079512E-09  54683.348      54681.897     1.15478346E-04  1.4505664    
 1.07981280E-06 3.60478303E-09  55782.918      55781.467     1.18578911E-04  1.4508854    
 1.08704652E-06 3.62893164E-09  56896.893      56895.441     1.21729138E-04  1.4515783    
 1.09432869E-06 3.65324201E-09  58073.945      58072.494     1.25139774E-04  1.4502384    
 1.10165965E-06 3.67771524E-09  59225.016      59223.565     1.28427161E-04  1.4513704    
 1.10903971E-06 3.70235243E-09  60433.687      60432.236     1.31952770E-04  1.4508154    
 1.11646922E-06 3.72715465E-09  61657.486      61656.035     1.35533663E-04  1.4507265    
 1.12394850E-06 3.75212303E-09  62879.933      62878.481     1.39095232E-04  1.4518274    
 1.13147788E-06 3.77725867E-09  64189.687      64188.237     1.43032357E-04  1.4500785    
 1.13905770E-06 3.80256270E-09  65462.015      65460.563     1.46790238E-04  1.4512123    
 1.14668830E-06 3.82803623E-09  66788.559      66787.108     1.50777446E-04  1.4510645    
 1.15437002E-06 3.85368042E-09  68150.544      68149.093     1.54912577E-04  1.4505674    
 1.16210319E-06 3.87949640E-09  69501.147      69499.695     1.58981049E-04  1.4516957    
 1.16988818E-06 3.90548532E-09  70940.048      70938.597     1.63440594E-04  1.4503017    
 1.17772531E-06 3.93164835E-09  72355.649      72354.198     1.67778865E-04  1.4510540    
 1.18561494E-06 3.95798663E-09  73811.492      73810.041     1.72287657E-04  1.4513136    
 1.19355743E-06 3.98450137E-09  75327.181      75325.730     1.77062244E-04  1.4504080    
 1.20155313E-06 4.01119372E-09  76820.052      76818.600     1.81713006E-04  1.4515381    
 1.20960239E-06 4.03806489E-09  78399.410      78397.960     1.86757430E-04  1.4505507    
 1.21770557E-06 4.06511607E-09  79975.021      79973.570     1.91768429E-04  1.4508954    
 1.22586303E-06 4.09234846E-09  81572.690      81571.238     1.96866519E-04  1.4515626    
 1.23407514E-06 4.11976329E-09  83259.333      83257.883     2.02378808E-04  1.4502484    
 1.24234227E-06 4.14736177E-09  84909.451      84907.999     2.07695194E-04  1.4513803    
 1.25066478E-06 4.17514513E-09  86642.899      86641.448     2.13400661E-04  1.4507998    
 1.25904304E-06 4.20311462E-09  88396.503      88395.052     2.19187989E-04  1.4507365    
 1.26747742E-06 4.23127147E-09  90149.727      90148.275     2.24951799E-04  1.4518118    
 1.27596831E-06 4.25961695E-09  92026.503      92025.053     2.31315047E-04  1.4500885    
 1.28451608E-06 4.28815232E-09  93850.424      93848.973     2.37392318E-04  1.4512223    
 1.29312111E-06 4.31687884E-09  95752.905      95751.453     2.43844824E-04  1.4510488    
 1.30178379E-06 4.34579781E-09  97704.496      97703.046     2.50527944E-04  1.4505774    
 1.31050450E-06 4.37491051E-09  99640.613      99639.161     2.57107503E-04  1.4517056    
 1.31928362E-06 4.40421823E-09  101704.19      101702.74     2.64324259E-04  1.4502861    
 1.32812156E-06 4.43372228E-09  103732.58      103731.13     2.71335523E-04  1.4510639    
 1.33701871E-06 4.46342399E-09  105820.47      105819.02     2.78632155E-04  1.4512979    
 1.34597546E-06 4.49332467E-09  107992.28      107990.83     2.86348806E-04  1.4504181    
 1.35499221E-06 4.52342565E-09  110132.31      110130.86     2.93870045E-04  1.4515480    
 1.36406936E-06 4.55372829E-09  112397.30      112395.85     3.02033342E-04  1.4505351    
 1.37320733E-06 4.58423392E-09  114654.94      114653.49     3.10131892E-04  1.4509054    
 1.38240650E-06 4.61494391E-09  116946.21      116944.76     3.18382242E-04  1.4515470    
 1.39166731E-06 4.64585962E-09  119362.95      119361.50     3.27291222E-04  1.4502585    
 1.40099015E-06 4.67698245E-09  121728.36      121726.91     3.35888911E-04  1.4513902    
 1.41037545E-06 4.70831376E-09  124214.30      124212.85     3.45122014E-04  1.4507841    
 1.41982361E-06 4.73985497E-09  126726.95      126725.50     3.54475301E-04  1.4507465    
 1.42933508E-06 4.77160747E-09  129241.29      129239.83     3.63803060E-04  1.4517961    
 1.43891026E-06 4.80357269E-09  131930.42      131928.97     3.74087433E-04  1.4500986    
 1.44854958E-06 4.83575204E-09  134544.94      134543.49     3.83915626E-04  1.4512322    
 1.45825348E-06 4.86814696E-09  137273.26      137271.81     3.94357717E-04  1.4510332    
 1.46802239E-06 4.90075889E-09  140069.56      140068.11     4.05158830E-04  1.4505874    
 1.47785673E-06 4.93358930E-09  142844.88      142843.42     4.15799325E-04  1.4517155    
 1.48775696E-06 4.96663964E-09  145804.16      145802.71     4.27477979E-04  1.4502704    
 1.49772351E-06 4.99991138E-09  148710.45      148709.00     4.38809164E-04  1.4510739    
 1.50775683E-06 5.03340601E-09  151704.65      151703.20     4.50617374E-04  1.4512822    
 1.51785736E-06 5.06712502E-09  154816.43      154814.98     4.63088946E-04  1.4504281    
 1.52802556E-06 5.10106992E-09  157884.00      157882.55     4.75252326E-04  1.4515579    
 1.53826187E-06 5.13524222E-09  161132.09      161130.64     4.88462814E-04  1.4505194    
 1.54856676E-06 5.16964344E-09  164366.80      164365.35     5.01551303E-04  1.4509153    
 1.55894067E-06 5.20427512E-09  167652.62      167651.16     5.14903007E-04  1.4515313    
 1.56938409E-06 5.23913879E-09  171115.29      171113.83     5.29301709E-04  1.4502685    
 1.57989746E-06 5.27423602E-09  174505.87      174504.42     5.43205923E-04  1.4514002    
 1.59048127E-06 5.30956836E-09  178070.77      178069.32     5.58147741E-04  1.4507684    
 1.60113597E-06 5.34513740E-09  181670.80      181669.35     5.73264189E-04  1.4507565    
 1.61186206E-06 5.38094472E-09  185276.46      185275.01     5.88359578E-04  1.4517804    
 1.62265999E-06 5.41699191E-09  189129.36      189127.91     6.04981303E-04  1.4501086    
 1.63353026E-06 5.45328058E-09  192876.95      192875.50     6.20875490E-04  1.4512421    
 1.64447336E-06 5.48981235E-09  196789.39      196787.93     6.37773897E-04  1.4510175    
 1.65548976E-06 5.52658885E-09  200795.76      200794.31     6.55230395E-04  1.4505975    
 1.66657996E-06 5.56361172E-09  204773.80      204772.35     6.72438232E-04  1.4517254    
 1.67774445E-06 5.60088261E-09  209017.33      209015.87     6.91337411E-04  1.4502548    
 1.68898374E-06 5.63840317E-09  213181.23      213179.78     7.09650162E-04  1.4510839    
 1.70029832E-06 5.67617509E-09  217474.87      217473.42     7.28759472E-04  1.4512666    
 1.71168869E-06 5.71420004E-09  221933.19      221931.74     7.48915865E-04  1.4504381    
 1.72315537E-06 5.75247973E-09  226330.06      226328.60     7.68586511E-04  1.4515679    
 1.73469887E-06 5.79101585E-09  230987.65      230986.20     7.89964725E-04  1.4505038    
 1.74631969E-06 5.82981012E-09  235622.02      235620.57     8.11117681E-04  1.4509253    
 1.75801837E-06 5.86886429E-09  240333.78      240332.32     8.32724968E-04  1.4515157    
 1.76979541E-06 5.90818007E-09  245294.73      245293.28     8.55996124E-04  1.4502785    
 1.78165135E-06 5.94775924E-09  250154.50      250153.04     8.78482043E-04  1.4514101    
 1.79358672E-06 5.98760354E-09  255266.32      255264.87     9.02662166E-04  1.4507528    
 1.80560203E-06 6.02771477E-09  260424.00      260422.55     9.27092784E-04  1.4507665    
 1.81769784E-06 6.06809470E-09  265594.33      265592.88     9.51522060E-04  1.4517648    
 1.82987468E-06 6.10874514E-09  271114.27      271112.82     9.78386241E-04  1.4501187    
 1.84213310E-06 6.14966790E-09  276485.64      276484.18     1.00409034E-03  1.4512521    
 1.85447363E-06 6.19086481E-09  282095.72      282094.27     1.03143694E-03  1.4510018    
 1.86689683E-06 6.23233769E-09  287835.45      287834.00     1.05964966E-03  1.4506075    
 1.87940326E-06 6.27408840E-09  293537.05      293535.60     1.08747818E-03  1.4517353    
 1.89199346E-06 6.31611880E-09  299621.73      299620.28     1.11806205E-03  1.4502391    
 1.90466801E-06 6.35843077E-09  305587.05      305585.60     1.14765791E-03  1.4510938    
 1.91742747E-06 6.40102618E-09  311743.66      311742.21     1.17858259E-03  1.4512509    
 1.93027240E-06 6.44390694E-09  318130.75      318129.30     1.21115903E-03  1.4504482    
 1.94320339E-06 6.48707497E-09  324432.52      324431.07     1.24297040E-03  1.4515778    
 1.95622099E-06 6.53053217E-09  331110.82      331109.36     1.27756619E-03  1.4504881    
 1.96932581E-06 6.57428050E-09  337750.02      337748.56     1.31175246E-03  1.4509353    
 1.98251841E-06 6.61832191E-09  344506.05      344504.60     1.34671984E-03  1.4515000    
 1.99579939E-06 6.66265834E-09  351613.10      351611.65     1.38433057E-03  1.4502886    
 2.00916934E-06 6.70729179E-09  358578.17      358576.71     1.42069478E-03  1.4514200    
 2.02262885E-06 6.75222424E-09  365907.64      365906.19     1.45982505E-03  1.4507371    
 2.03617854E-06 6.79745770E-09  373296.39      373294.94     1.49930879E-03  1.4507765    
 2.04981899E-06 6.84299417E-09  380709.84      380708.39     1.53884327E-03  1.4517491    
 2.06355082E-06 6.88883570E-09  388617.54      388616.08     1.58226132E-03  1.4501288    
 2.07737464E-06 6.93498432E-09  396315.67      396314.22     1.62382995E-03  1.4520756    
 2.09129106E-06 6.98144209E-09  404359.45      404357.98     1.66808473E-03  1.4673528    
 2.10530072E-06 7.02821109E-09  412581.90      412580.40     1.71368127E-03  1.5064107    
 2.11940422E-06 7.07529339E-09  420753.27      420751.72     1.75868551E-03  1.5472411    
 2.13360221E-06 7.12269110E-09  429477.30      429475.71     1.80817819E-03  1.5912915    
 2.14789530E-06 7.17040633E-09  438022.79      438021.15     1.85600898E-03  1.6329707    
 2.16228415E-06 7.21844121E-09  446850.05      446848.37     1.90605442E-03  1.6757758    
 2.17676939E-06 7.26679787E-09  455999.69      455997.96     1.95870385E-03  1.7199669    
 2.19135167E-06 7.31547848E-09  465030.99      465029.23     2.01014911E-03  1.7639993    
 2.20603163E-06 7.36448520E-09  474605.97      474604.15     2.06613444E-03  1.8130678    
 2.22080994E-06 7.41382021E-09  484116.60      484114.73     2.12138435E-03  1.8607270    
 2.23568724E-06 7.46348573E-09  493803.14      493801.23     2.17797243E-03  1.9086621    
 2.25066421E-06 7.51348396E-09  503983.90      503981.94     2.23875859E-03  1.9589688    
 2.26574151E-06 7.56381713E-09  513965.58      513963.57     2.29756668E-03  2.0068631    
 2.28091982E-06 7.61448748E-09  524473.99      524471.93     2.36089037E-03  2.0574425    
 2.29619980E-06 7.66549727E-09  535058.10      535055.99     2.42470221E-03  2.1097249    
 2.31158215E-06 7.71684879E-09  545687.04      545684.87     2.48868168E-03  2.1632543    
 2.32706754E-06 7.76854430E-09  557014.45      557012.23     2.55885404E-03  2.2207328    
 2.34265667E-06 7.82058613E-09  568046.43      568044.16     2.62607867E-03  2.2749237    
 2.35835023E-06 7.87297659E-09  579578.70      579576.37     2.69769565E-03  2.3314078    
 2.37414893E-06 7.92571802E-09  591356.74      591354.35     2.77138724E-03  2.3882929    
 2.39005346E-06 7.97881276E-09  603066.66      603064.22     2.84416789E-03  2.4439328    
 2.40606454E-06 8.03226319E-09  615573.79      615571.28     2.92425980E-03  2.5064644    
 2.42218287E-06 8.08607168E-09  627814.33      627811.76     3.00156047E-03  2.5681361    
 2.43840918E-06 8.14024064E-09  640469.59      640466.95     3.08254888E-03  2.6314694    
 2.45474420E-06 8.19477248E-09  653575.42      653572.72     3.16763970E-03  2.6964591    
 2.47118864E-06 8.24966963E-09  666517.36      666514.59     3.25083671E-03  2.7591657    
 2.48774324E-06 8.30493454E-09  680244.14      680241.31     3.34143589E-03  2.8255495    
 2.50440875E-06 8.36056967E-09  693866.81      693863.92     3.43072745E-03  2.8905213    
 2.52118589E-06 8.41657750E-09  707753.71      707750.75     3.52230434E-03  2.9593601    
 2.53807543E-06 8.47296053E-09  722336.14      722333.11     3.62054621E-03  3.0336334    
 2.55507811E-06 8.52972128E-09  736639.60      736636.49     3.71565031E-03  3.1045981    
 2.57219470E-06 8.58686227E-09  751704.24      751701.06     3.81812547E-03  3.1791148    
 2.58942595E-06 8.64438604E-09  766864.15      766860.89     3.92125505E-03  3.2527615    
 2.60677263E-06 8.70229518E-09  782101.77      782098.44     4.02479412E-03  3.3256403    
 2.62423551E-06 8.76059224E-09  798326.18      798322.77     4.13820659E-03  3.4036196    
 2.64181539E-06 8.81927985E-09  814134.26      814130.77     4.24692181E-03  3.4822984    
 2.65951303E-06 8.87836060E-09  830666.34      830662.77     4.36281847E-03  3.5659160    
 2.67732922E-06 8.93783714E-09  847535.88      847532.22     4.48191605E-03  3.6500563    
 2.69526477E-06 8.99771211E-09  864315.14      864311.40     4.59961637E-03  3.7321833    
 2.71332047E-06 9.05798819E-09  882244.10      882240.28     4.72922542E-03  3.8196694    
 2.73149713E-06 9.11866806E-09  899775.76      899771.85     4.85415285E-03  3.9032934    
 2.74979555E-06 9.17975443E-09  917917.28      917913.29     4.98521590E-03  3.9901571    
 2.76821656E-06 9.24125002E-09  936688.09      936684.00     5.12273742E-03  4.0845748    
 2.78676096E-06 9.30315757E-09  955232.19      955228.01     5.25728293E-03  4.1774959    
 2.80542960E-06 9.36547984E-09  974909.08      974904.79     5.40389619E-03  4.2758085    
 2.82422330E-06 9.42821962E-09  994419.76      994415.39     5.54820345E-03  4.3713018    
 2.84314290E-06 9.49137968E-09  1014326.4      1014321.9     5.69640265E-03  4.4675810    
 2.86218924E-06 9.55496287E-09  1035211.4      1035206.9     5.85517961E-03  4.5676360    
 2.88136318E-06 9.61897199E-09  1055705.8      1055701.2     6.00898106E-03  4.6659324    
 2.90066556E-06 9.68340992E-09  1077300.0      1077295.2     6.17481369E-03  4.7745704    
 2.92009725E-06 9.74827952E-09  1099011.7      1099006.8     6.34148626E-03  4.8836579    
 2.93965911E-06 9.81358368E-09  1120854.0      1120849.0     6.50904487E-03  4.9917615    
 2.95935202E-06 9.87932532E-09  1144090.0      1144084.9     6.69234151E-03  5.1060697    
 2.97917685E-06 9.94550737E-09  1166739.6      1166734.4     6.86815465E-03  5.2151470    
 2.99913449E-06 1.00121328E-08  1190436.6      1190431.3     7.05570795E-03  5.3282758    
 3.01922583E-06 1.00792045E-08  1214596.1      1214590.6     7.24818849E-03  5.4451868    
 3.03945176E-06 1.01467255E-08  1238636.7      1238631.1     7.43853214E-03  5.5654467    
 3.05981319E-06 1.02146989E-08  1264335.0      1264329.3     7.64827196E-03  5.6951853    
 3.08031101E-06 1.02831276E-08  1289442.3      1289436.4     7.85016960E-03  5.8191216    
 3.10094616E-06 1.03520148E-08  1315445.6      1315439.6     8.06226758E-03  5.9462793    
 3.12171953E-06 1.04213634E-08  1342327.1      1342321.0     8.28452561E-03  6.0761062    
 3.14263207E-06 1.04911766E-08  1368895.4      1368889.2     8.50211099E-03  6.2024492    
 3.16368471E-06 1.05614574E-08  1397098.4      1397092.0     8.73936914E-03  6.3394997    
 3.18487837E-06 1.06322091E-08  1425038.9      1425032.4     8.97258859E-03  6.4799621    
 3.20621402E-06 1.07034348E-08  1453571.5      1453564.9     9.21241920E-03  6.6228318    
 3.22769259E-06 1.07751376E-08  1483479.8      1483473.0     9.46903131E-03  6.7711559    
 3.24931505E-06 1.08473207E-08  1512841.3      1512834.4     9.71775702E-03  6.9140751    
 3.27108236E-06 1.09199874E-08  1543791.5      1543784.4     9.98611852E-03  7.0633786    
 3.29299549E-06 1.09931409E-08  1574882.9      1574875.7     1.02554851E-02  7.2114305    
 3.31505541E-06 1.10667844E-08  1606189.2      1606181.8     1.05266467E-02  7.3633217    
 3.33726312E-06 1.11409213E-08  1639463.0      1639455.4     1.08228889E-02  7.5317929    
 3.35961959E-06 1.12155548E-08  1671911.1      1671903.4     1.11072114E-02  7.6935888    
 3.38212584E-06 1.12906884E-08  1705874.2      1705866.3     1.14107244E-02  7.8615210    
 3.40478285E-06 1.13663252E-08  1740469.7      1740461.6     1.17218025E-02  8.0301243    
 3.42759164E-06 1.14424687E-08  1774909.9      1774901.7     1.20296235E-02  8.1955528    
 3.45055323E-06 1.15191223E-08  1811739.9      1811731.5     1.23690339E-02  8.3711545    
 3.47366865E-06 1.15962894E-08  1847691.8      1847683.2     1.26953236E-02  8.5468121    
 3.49693891E-06 1.16739735E-08  1884959.3      1884950.6     1.30385586E-02  8.7347704    
 3.52036506E-06 1.17521780E-08  1923451.2      1923442.2     1.33977641E-02  8.9273819    
 3.54394814E-06 1.18309064E-08  1961511.3      1961502.1     1.37496397E-02  9.1146681    
 3.56768921E-06 1.19101621E-08  2001929.5      2001920.2     1.41335836E-02  9.3117474    
 3.59158932E-06 1.19899488E-08  2041937.0      2041927.5     1.45104957E-02  9.5036426    
 3.61564954E-06 1.20702701E-08  2082828.2      2082818.5     1.48986122E-02  9.6980340    
 3.63987094E-06 1.21511293E-08  2125652.6      2125642.6     1.53133422E-02  9.9089752    
 3.66425460E-06 1.22325303E-08  2167712.5      2167702.3     1.57155772E-02  10.120731    
 3.68880161E-06 1.23144766E-08  2212066.4      2212056.0     1.61498564E-02  10.342535    
 3.71351306E-06 1.23969718E-08  2256583.9      2256573.3     1.65851899E-02  10.561604    
 3.73839005E-06 1.24800197E-08  2301448.8      2301438.0     1.70240116E-02  10.779518    
 3.76343369E-06 1.25636239E-08  2349090.1      2349079.1     1.75027939E-02  11.008229    
 3.78864510E-06 1.26477882E-08  2395569.7      2395558.4     1.79625951E-02  11.229151    
 3.81402541E-06 1.27325163E-08  2444239.8      2444228.3     1.84537613E-02  11.469612    
 3.83957574E-06 1.28178120E-08  2493772.6      2493760.8     1.89565097E-02  11.719842    
 3.86529723E-06 1.29036791E-08  2543104.5      2543092.5     1.94543118E-02  11.965293    
 3.89119103E-06 1.29901214E-08  2595880.6      2595868.3     2.00035595E-02  12.225501    
 3.91725829E-06 1.30771428E-08  2647354.3      2647341.8     2.05308793E-02  12.474937    
 3.94350018E-06 1.31647472E-08  2700758.0      2700745.2     2.10863296E-02  12.730834    
 3.96991787E-06 1.32529384E-08  2755867.2      2755854.1     2.16668628E-02  12.993325    
 3.99651253E-06 1.33417205E-08  2810381.9      2810368.6     2.22359088E-02  13.263752    
 4.02328535E-06 1.34310972E-08  2868297.9      2868284.3     2.28572254E-02  13.556645    
 4.05023752E-06 1.35210728E-08  2925575.7      2925561.9     2.34663608E-02  13.841347    
 4.07737024E-06 1.36116511E-08  2984170.1      2984155.9     2.40944454E-02  14.129199    
 4.10468473E-06 1.37028361E-08  3045479.4      3045465.0     2.47647195E-02  14.426601    
 4.13218219E-06 1.37946320E-08  3105720.7      3105706.0     2.54152050E-02  14.714661    
