 OPTXAGNF AGN Spectrum Model Parameters: BLS, Astar 0.0                          
 M_BH:  2.0000E+06 M_0            L  :  0.5000     L/Ledd 
 D   :  1.5000E+18 cm             z  :   0.000     redshift 
 Rcor:   60.00     Rg             Ro :   4.000     Rg 
 C_T :  0.2000     keV            Tau:   15.00     Optical Depth 
 gam :   1.800     (-slope)       fpl:  0.5000     Fraction 
 E              0.5DeltaE      E.FE total     E.FE Disk      E.FE Compton   E.FE NonThermal
 (keV)          (keV)          E.E/cm2/s/E    E.E/cm2/s/E    E.E/cm2/s/E    E.E/cm2/s/E    
 1.00334952E-06 3.34952256E-09  66146.370      66141.101     1.59542123E-04  5.2689846    
 1.01007101E-06 3.37196116E-09  67457.816      67452.543     1.63733810E-04  5.2731049    
 1.01683752E-06 3.39455008E-09  68824.560      68819.287     1.68178286E-04  5.2726608    
 1.02364936E-06 3.41729032E-09  70229.066      70223.795     1.72793699E-04  5.2707614    
 1.03050683E-06 3.44018290E-09  71621.229      71615.954     1.77331834E-04  5.2748615    
 1.03741024E-06 3.46322884E-09  73103.802      73098.531     1.82302911E-04  5.2698893    
 1.04435990E-06 3.48642917E-09  74563.633      74558.361     1.87145173E-04  5.2725296    
 1.05135611E-06 3.50978492E-09  76063.649      76058.376     1.92171021E-04  5.2735659    
 1.05839920E-06 3.53329712E-09  77626.726      77621.456     1.97500125E-04  5.2701823    
 1.06548946E-06 3.55696684E-09  79165.601      79160.327     2.02687772E-04  5.2742890    
 1.07262722E-06 3.58079512E-09  80792.957      80787.686     2.08310787E-04  5.2707941    
 1.07981280E-06 3.60478303E-09  82417.871      82412.599     2.13903890E-04  5.2719533    
 1.08704652E-06 3.62893164E-09  84064.077      84058.802     2.19586581E-04  5.2744710    
 1.09432869E-06 3.65324201E-09  85803.534      85798.264     2.25739022E-04  5.2696022    
 1.10165965E-06 3.67771524E-09  87504.578      87499.304     2.31669136E-04  5.2737155    
 1.10903971E-06 3.70235243E-09  89290.776      89285.504     2.38028979E-04  5.2716990    
 1.11646922E-06 3.72715465E-09  91099.336      91094.064     2.44488548E-04  5.2713760    
 1.12394850E-06 3.75212303E-09  92905.893      92900.618     2.50913259E-04  5.2753762    
 1.13147788E-06 3.77725867E-09  94841.530      94836.260     2.58015438E-04  5.2690211    
 1.13905770E-06 3.80256270E-09  96721.827      96716.554     2.64794278E-04  5.2731411    
 1.14668830E-06 3.82803623E-09  98682.281      98677.008     2.71986800E-04  5.2726039    
 1.15437002E-06 3.85368042E-09  100695.13      100689.86     2.79446162E-04  5.2707978    
 1.16210319E-06 3.87949640E-09  102691.15      102685.87     2.86785279E-04  5.2748975    
 1.16988818E-06 3.90548532E-09  104817.71      104812.44     2.94829853E-04  5.2698324    
 1.17772531E-06 3.93164835E-09  106909.83      106904.55     3.02655661E-04  5.2725658    
 1.18561494E-06 3.95798663E-09  109061.43      109056.16     3.10789072E-04  5.2735090    
 1.19355743E-06 3.98450137E-09  111301.53      111296.26     3.19401952E-04  5.2702187    
 1.20155313E-06 4.01119372E-09  113507.88      113502.60     3.27791463E-04  5.2743250    
 1.20960239E-06 4.03806489E-09  115842.10      115836.83     3.36891105E-04  5.2707372    
 1.21770557E-06 4.06511607E-09  118170.78      118165.51     3.45930450E-04  5.2719895    
 1.22586303E-06 4.09234846E-09  120532.08      120526.80     3.55126899E-04  5.2744141    
 1.23407514E-06 4.11976329E-09  123024.93      123019.66     3.65070524E-04  5.2696387    
 1.24234227E-06 4.14736177E-09  125463.76      125458.49     3.74660758E-04  5.2737516    
 1.25066478E-06 4.17514513E-09  128025.82      128020.54     3.84952860E-04  5.2716421    
 1.25904304E-06 4.20311462E-09  130617.67      130612.40     3.95392630E-04  5.2714123    
 1.26747742E-06 4.23127147E-09  133208.95      133203.68     4.05789976E-04  5.2753193    
 1.27596831E-06 4.25961695E-09  135982.94      135977.67     4.17268652E-04  5.2690577    
 1.28451608E-06 4.28815232E-09  138678.75      138673.48     4.28231452E-04  5.2731772    
 1.29312111E-06 4.31687884E-09  141490.73      141485.46     4.39871143E-04  5.2725470    
 1.30178379E-06 4.34579781E-09  144375.33      144370.06     4.51926838E-04  5.2708342    
 1.31050450E-06 4.37491051E-09  147237.04      147231.77     4.63795721E-04  5.2749334    
 1.31928362E-06 4.40421823E-09  150287.24      150281.97     4.76814045E-04  5.2697755    
 1.32812156E-06 4.43372228E-09  153285.39      153280.12     4.89461684E-04  5.2726020    
 1.33701871E-06 4.46342399E-09  156371.54      156366.27     5.02624100E-04  5.2734521    
 1.34597546E-06 4.49332467E-09  159581.78      159576.51     5.16544190E-04  5.2702552    
 1.35499221E-06 4.52342565E-09  162745.01      162739.74     5.30111777E-04  5.2743610    
 1.36406936E-06 4.55372829E-09  166093.04      166087.77     5.44837576E-04  5.2706803    
 1.37320733E-06 4.58423392E-09  169430.19      169424.92     5.59446579E-04  5.2720258    
 1.38240650E-06 4.61494391E-09  172817.08      172811.80     5.74329415E-04  5.2743572    
 1.39166731E-06 4.64585962E-09  176389.52      176384.25     5.90400360E-04  5.2696752    
 1.40099015E-06 4.67698245E-09  179886.04      179880.76     6.05909764E-04  5.2737877    
 1.41037545E-06 4.70831376E-09  183560.82      183555.55     6.22565397E-04  5.2715852    
 1.41982361E-06 4.73985497E-09  187275.08      187269.81     6.39437832E-04  5.2714486    
 1.42933508E-06 4.77160747E-09  190991.84      190986.56     6.56264218E-04  5.2752623    
 1.43891026E-06 4.80357269E-09  194967.13      194961.86     6.74816248E-04  5.2690943    
 1.44854958E-06 4.83575204E-09  198832.03      198826.76     6.92545372E-04  5.2732134    
 1.45825348E-06 4.86814696E-09  202865.27      202859.99     7.11381911E-04  5.2724901    
 1.46802239E-06 4.90075889E-09  206999.03      206993.75     7.30866096E-04  5.2708706    
 1.47785673E-06 4.93358930E-09  211101.74      211096.47     7.50060539E-04  5.2749694    
 1.48775696E-06 4.96663964E-09  215476.57      215471.30     7.71127729E-04  5.2697186    
 1.49772351E-06 4.99991138E-09  219772.99      219767.72     7.91568117E-04  5.2726382    
 1.50775683E-06 5.03340601E-09  224199.44      224194.16     8.12869016E-04  5.2733952    
 1.51785736E-06 5.06712502E-09  228799.81      228794.54     8.35366560E-04  5.2702916    
 1.52802556E-06 5.10106992E-09  233334.76      233329.49     8.57308155E-04  5.2743970    
 1.53826187E-06 5.13524222E-09  238136.74      238131.47     8.81138639E-04  5.2706234    
 1.54856676E-06 5.16964344E-09  242918.92      242913.64     9.04749050E-04  5.2720620    
 1.55894067E-06 5.20427512E-09  247776.67      247771.40     9.28834276E-04  5.2743002    
 1.56938409E-06 5.23913879E-09  252896.05      252890.78     9.54808196E-04  5.2697117    
 1.57989746E-06 5.27423602E-09  257908.76      257903.49     9.79890104E-04  5.2738237    
 1.59048127E-06 5.30956836E-09  263179.34      263174.07     1.00684376E-03  5.2715283    
 1.60113597E-06 5.34513740E-09  268501.89      268496.61     1.03411243E-03  5.2714850    
 1.61186206E-06 5.38094472E-09  273832.72      273827.45     1.06134312E-03  5.2752054    
 1.62265999E-06 5.41699191E-09  279529.35      279524.08     1.09132718E-03  5.2691308    
 1.63353026E-06 5.45328058E-09  285070.12      285064.85     1.11999883E-03  5.2732495    
 1.64447336E-06 5.48981235E-09  290854.78      290849.50     1.15048200E-03  5.2724332    
 1.65548976E-06 5.52658885E-09  296778.40      296773.13     1.18197193E-03  5.2709070    
 1.66657996E-06 5.56361172E-09  302660.07      302654.79     1.21301329E-03  5.2750053    
 1.67774445E-06 5.60088261E-09  308934.54      308929.27     1.24710569E-03  5.2696617    
 1.68898374E-06 5.63840317E-09  315091.17      315085.90     1.28014022E-03  5.2726744    
 1.70029832E-06 5.67617509E-09  321439.73      321434.46     1.31461167E-03  5.2733382    
 1.71168869E-06 5.71420004E-09  328031.95      328026.68     1.35097198E-03  5.2703280    
 1.72315537E-06 5.75247973E-09  334533.20      334527.92     1.38645604E-03  5.2744330    
 1.73469887E-06 5.79101585E-09  341420.23      341414.96     1.42502042E-03  5.2705665    
 1.74631969E-06 5.82981012E-09  348272.87      348267.59     1.46317844E-03  5.2720983    
 1.75801837E-06 5.86886429E-09  355239.98      355234.70     1.50215604E-03  5.2742433    
 1.76979541E-06 5.90818007E-09  362575.84      362570.57     1.54413512E-03  5.2697482    
 1.78165135E-06 5.94775924E-09  369761.91      369756.63     1.58469771E-03  5.2738598    
 1.79358672E-06 5.98760354E-09  377320.96      377315.68     1.62831649E-03  5.2714714    
 1.80560203E-06 6.02771477E-09  384947.83      384942.56     1.67238715E-03  5.2715213    
 1.81769784E-06 6.06809470E-09  392593.39      392588.11     1.71645539E-03  5.2751485    
 1.82987468E-06 6.10874514E-09  400756.32      400751.05     1.76491599E-03  5.2691674    
 1.84213310E-06 6.14966790E-09  408699.32      408694.04     1.81128391E-03  5.2732857    
 1.85447363E-06 6.19086481E-09  416995.57      416990.30     1.86061476E-03  5.2723763    
 1.86689683E-06 6.23233769E-09  425483.67      425478.40     1.91150802E-03  5.2709433    
 1.87940326E-06 6.27408840E-09  433915.29      433910.01     1.96170823E-03  5.2750413    
 1.89199346E-06 6.31611880E-09  442913.85      442908.57     2.01687885E-03  5.2696048    
 1.90466801E-06 6.35843077E-09  451735.70      451730.43     2.07026720E-03  5.2727106    
 1.91742747E-06 6.40102618E-09  460840.62      460835.35     2.12605262E-03  5.2732813    
 1.93027240E-06 6.44390694E-09  470286.66      470281.39     2.18481770E-03  5.2703645    
 1.94320339E-06 6.48707497E-09  479606.34      479601.07     2.24220264E-03  5.2744691    
 1.95622099E-06 6.53053217E-09  489483.32      489478.04     2.30461046E-03  5.2705096    
 1.96932581E-06 6.57428050E-09  499302.37      499297.09     2.36627954E-03  5.2721345    
 1.98251841E-06 6.61832191E-09  509294.30      509289.02     2.42935767E-03  5.2741864    
 1.99579939E-06 6.66265834E-09  519805.78      519800.51     2.49720421E-03  5.2697847    
 2.00916934E-06 6.70729179E-09  530107.03      530101.76     2.56280213E-03  5.2738959    
 2.02262885E-06 6.75222424E-09  540947.67      540942.39     2.63338979E-03  5.2714145    
 2.03617854E-06 6.79745770E-09  551875.99      551870.71     2.70461510E-03  5.2715576    
 2.04981899E-06 6.84299417E-09  562840.81      562835.53     2.77593194E-03  5.2750916    
 2.06355082E-06 6.88883570E-09  574537.26      574531.99     2.85425444E-03  5.2692039    
 2.07737464E-06 6.93498432E-09  585923.40      585918.13     2.92924073E-03  5.2733218    
 2.09129106E-06 6.98144209E-09  597821.16      597815.88     3.00907262E-03  5.2723194    
 2.10530072E-06 7.02821109E-09  609983.35      609978.08     3.09132496E-03  5.2709797    
 2.11940422E-06 7.07529339E-09  622069.82      622064.54     3.17250882E-03  5.2750772    
 2.13360221E-06 7.12269110E-09  634974.48      634969.21     3.26178950E-03  5.2695480    
 2.14789530E-06 7.17040633E-09  647614.71      647609.43     3.34807227E-03  5.2727468    
 2.16228415E-06 7.21844121E-09  660672.05      660666.77     3.43835008E-03  5.2732244    
 2.17676939E-06 7.26679787E-09  674206.64      674201.37     3.53332530E-03  5.2704009    
 2.19135167E-06 7.31547848E-09  687565.93      687560.65     3.62612830E-03  5.2745051    
 2.20603163E-06 7.36448520E-09  701730.15      701724.88     3.72712124E-03  5.2704527    
 2.22080994E-06 7.41382021E-09  715799.01      715793.73     3.82678754E-03  5.2721708    
 2.23568724E-06 7.46348573E-09  730128.25      730122.97     3.92886780E-03  5.2741295    
 2.25066421E-06 7.51348396E-09  745189.24      745183.97     4.03852109E-03  5.2698211    
 2.26574151E-06 7.56381713E-09  759955.33      759950.05     4.14460610E-03  5.2739320    
 2.28091982E-06 7.61448748E-09  775501.32      775496.05     4.25883691E-03  5.2713576    
 2.29619980E-06 7.66549727E-09  791159.34      791154.06     4.37394832E-03  5.2715939    
 2.31158215E-06 7.71684879E-09  806883.61      806878.33     4.48936212E-03  5.2750347    
 2.32706754E-06 7.76854430E-09  823642.19      823636.92     4.61594745E-03  5.2692405    
 2.34265667E-06 7.82058613E-09  839963.14      839957.86     4.73721530E-03  5.2733579    
 2.35835023E-06 7.87297659E-09  857024.89      857019.62     4.86640664E-03  5.2722625    
 2.37414893E-06 7.92571802E-09  874450.53      874445.26     4.99934043E-03  5.2710161    
 2.39005346E-06 7.97881276E-09  891775.16      891769.88     5.13063094E-03  5.2751132    
 2.40606454E-06 8.03226319E-09  910280.41      910275.14     5.27511045E-03  5.2694911    
 2.42218287E-06 8.08607168E-09  928390.69      928385.42     5.41455477E-03  5.2727829    
 2.43840918E-06 8.14024064E-09  947115.10      947109.82     5.56065152E-03  5.2731675    
 2.45474420E-06 8.19477248E-09  966506.78      966501.50     5.71414873E-03  5.2704373    
 2.47118864E-06 8.24966963E-09  985655.54      985650.26     5.86422965E-03  5.2745411    
 2.48774324E-06 8.30493454E-09  1005966.7      1005961.5     6.02766357E-03  5.2703958    
 2.50440875E-06 8.36056967E-09  1026123.6      1026118.3     6.18873865E-03  5.2722070    
 2.52118589E-06 8.41657750E-09  1046671.7      1046666.4     6.35393632E-03  5.2882040    
 2.53807543E-06 8.47296053E-09  1068250.1      1068244.7     6.53115716E-03  5.3937684    
 2.55507811E-06 8.52972128E-09  1089415.0      1089409.5     6.70271766E-03  5.5403611    
 2.57219470E-06 8.58686227E-09  1111707.5      1111701.8     6.88757508E-03  5.6967429    
 2.58942595E-06 8.64438604E-09  1134141.0      1134135.1     7.07361304E-03  5.8507620    
 2.60677263E-06 8.70229518E-09  1156689.4      1156683.4     7.26038968E-03  6.0026279    
 2.62423551E-06 8.76059224E-09  1180699.6      1180693.5     7.46497731E-03  6.1652087    
 2.64181539E-06 8.81927985E-09  1204092.8      1204086.5     7.66109140E-03  6.3207109    
 2.65951303E-06 8.87836060E-09  1228558.6      1228552.1     7.87016034E-03  6.4920450    
 2.67732922E-06 8.93783714E-09  1253524.1      1253517.4     8.08500355E-03  6.6688854    
 2.69526477E-06 8.99771211E-09  1278355.7      1278348.8     8.29732619E-03  6.8405104    
 2.71332047E-06 9.05798819E-09  1304890.6      1304883.6     8.53113142E-03  7.0252336    
 2.73149713E-06 9.11866806E-09  1330836.6      1330829.4     8.75649133E-03  7.2001350    
 2.74979555E-06 9.17975443E-09  1357686.1      1357678.7     8.99291950E-03  7.3800232    
 2.76821656E-06 9.24125002E-09  1385467.9      1385460.3     9.24099835E-03  7.5681356    
 2.78676096E-06 9.30315757E-09  1412913.5      1412905.7     9.48370868E-03  7.7594750    
 2.80542960E-06 9.36547984E-09  1442037.5      1442029.6     9.74818849E-03  7.9672836    
 2.82422330E-06 9.42821962E-09  1470915.1      1470906.9     1.00085084E-02  8.1679511    
 2.84314290E-06 9.49137968E-09  1500379.2      1500370.8     1.02758492E-02  8.3702989    
 2.86218924E-06 9.55496287E-09  1531293.0      1531284.5     1.05622716E-02  8.5817529    
 2.88136318E-06 9.61897199E-09  1561627.6      1561618.9     1.08397185E-02  8.7839244    
 2.90066556E-06 9.68340992E-09  1593592.0      1593583.0     1.11388689E-02  9.0009908    
 2.92009725E-06 9.74827952E-09  1625730.3      1625721.0     1.14395345E-02  9.2283925    
 2.93965911E-06 9.81358368E-09  1658061.9      1658052.5     1.17417985E-02  9.4558968    
 2.95935202E-06 9.87932532E-09  1692459.0      1692449.3     1.20724530E-02  9.6983113    
 2.97917685E-06 9.94550737E-09  1725986.6      1725976.6     1.23896077E-02  9.9276942    
 2.99913449E-06 1.00121328E-08  1761066.4      1761056.2     1.27279410E-02  10.166734    
 3.01922583E-06 1.00792045E-08  1796831.5      1796821.1     1.30751628E-02  10.407082    
 3.03945176E-06 1.01467255E-08  1832420.1      1832409.4     1.34185297E-02  10.647376    
 3.05981319E-06 1.02146989E-08  1870465.8      1870454.9     1.37968862E-02  10.920608    
 3.08031101E-06 1.02831276E-08  1907634.9      1907623.7     1.41610959E-02  11.182036    
 3.10094616E-06 1.03520148E-08  1946132.1      1946120.6     1.45437065E-02  11.450979    
 3.12171953E-06 1.04213634E-08  1985930.9      1985919.1     1.49446452E-02  11.726154    
 3.14263207E-06 1.04911766E-08  2025265.0      2025253.0     1.53371547E-02  11.992339    
 3.16368471E-06 1.05614574E-08  2067022.3      2067010.0     1.57651529E-02  12.273955    
 3.18487837E-06 1.06322091E-08  2108390.1      2108377.5     1.61858654E-02  12.556934    
 3.20621402E-06 1.07034348E-08  2150635.4      2150622.5     1.66185042E-02  12.857529    
 3.22769259E-06 1.07751376E-08  2194920.1      2194907.0     1.70814159E-02  13.172800    
 3.24931505E-06 1.08473207E-08  2238393.8      2238380.3     1.75301010E-02  13.474796    
 3.27108236E-06 1.09199874E-08  2284222.6      2284208.7     1.80142080E-02  13.791880    
 3.29299549E-06 1.09931409E-08  2330260.5      2330246.4     1.85001282E-02  14.104740    
 3.31505541E-06 1.10667844E-08  2376616.5      2376602.1     1.89892863E-02  14.415161    
 3.33726312E-06 1.11409213E-08  2425889.9      2425875.1     1.95236888E-02  14.757487    
 3.35961959E-06 1.12155548E-08  2473938.3      2473923.2     2.00365888E-02  15.098951    
 3.38212584E-06 1.12906884E-08  2524233.1      2524217.6     2.05841074E-02  15.455807    
 3.40478285E-06 1.13663252E-08  2575465.3      2575449.4     2.11452731E-02  15.813992    
 3.42759164E-06 1.14424687E-08  2626466.6      2626450.4     2.17005630E-02  16.164251    
 3.45055323E-06 1.15191223E-08  2681012.0      2680995.4     2.23128390E-02  16.537240    
 3.47366865E-06 1.15962894E-08  2734254.4      2734237.5     2.29014457E-02  16.894710    
 3.49693891E-06 1.16739735E-08  2789447.7      2789430.4     2.35206209E-02  17.277844    
 3.52036506E-06 1.17521780E-08  2846456.6      2846438.9     2.41686063E-02  17.686690    
 3.54394814E-06 1.18309064E-08  2902824.3      2902806.2     2.48033688E-02  18.083896    
 3.56768921E-06 1.19101621E-08  2962689.7      2962671.2     2.54959811E-02  18.504018    
 3.59158932E-06 1.19899488E-08  3021945.2      3021926.2     2.61759083E-02  18.911518    
 3.61564954E-06 1.20702701E-08  3082510.9      3082491.5     2.68760478E-02  19.323221    
 3.63987094E-06 1.21511293E-08  3145944.0      3145924.3     2.76241970E-02  19.752549    
 3.66425460E-06 1.22325303E-08  3208242.3      3208222.1     2.83498056E-02  20.186546    
 3.68880161E-06 1.23144766E-08  3273943.5      3273922.8     2.91332208E-02  20.658155    
 3.71351306E-06 1.23969718E-08  3339886.8      3339865.7     2.99185378E-02  21.124391    
 3.73839005E-06 1.24800197E-08  3406344.6      3406323.0     3.07101473E-02  21.587535    
 3.76343369E-06 1.25636239E-08  3476921.7      3476899.6     3.15738441E-02  22.075856    
 3.78864510E-06 1.26477882E-08  3545774.0      3545751.4     3.24032999E-02  22.542722    
 3.81402541E-06 1.27325163E-08  3617876.2      3617853.1     3.32893370E-02  23.030946    
 3.83957574E-06 1.28178120E-08  3691257.6      3691234.0     3.41962679E-02  23.547674    
 3.86529723E-06 1.29036791E-08  3764340.2      3764316.1     3.50942757E-02  24.068833    
 3.89119103E-06 1.29901214E-08  3842533.5      3842508.8     3.60850894E-02  24.625067    
 3.91725829E-06 1.30771428E-08  3918793.0      3918767.8     3.70363462E-02  25.155717    
 3.94350018E-06 1.31647472E-08  3997915.9      3997890.1     3.80383493E-02  25.701129    
 3.96991787E-06 1.32529384E-08  4079569.3      4079543.1     3.90856012E-02  26.256782    
 3.99651253E-06 1.33417205E-08  4160339.5      4160312.6     4.01121305E-02  26.803641    
 4.02328535E-06 1.34310972E-08  4246157.3      4246129.9     4.12329540E-02  27.411886    
 4.05023752E-06 1.35210728E-08  4331027.0      4330998.9     4.23318032E-02  28.018669    
 4.07737024E-06 1.36116511E-08  4417849.8      4417821.1     4.34648362E-02  28.632372    
 4.10468473E-06 1.37028361E-08  4508702.2      4508672.8     4.46739774E-02  29.267979    
 4.13218219E-06 1.37946320E-08  4597967.7      4597937.8     4.58474210E-02  29.881373    
