 OPTXAGNF AGN Spectrum Model Parameters: BLS, Astar 0.0                          
 M_BH:  2.0000E+06 M_0            L  :  0.3000     L/Ledd 
 D   :  1.5000E+18 cm             z  :   0.000     redshift 
 Rcor:   60.00     Rg             Ro :   4.000     Rg 
 C_T :  0.2000     keV            Tau:   15.00     Optical Depth 
 gam :   1.800     (-slope)       fpl:  0.5000     Fraction 
 E              0.5DeltaE      E.FE total     E.FE Disk      E.FE Compton   E.FE NonThermal
 (keV)          (keV)          E.E/cm2/s/E    E.E/cm2/s/E    E.E/cm2/s/E    E.E/cm2/s/E    
 1.00334952E-06 3.34952256E-09  58310.623      58307.596     1.84518298E-04  3.0269519    
 1.01007101E-06 3.37196116E-09  59466.675      59463.645     1.89366182E-04  3.0293190    
 1.01683752E-06 3.39455008E-09  60671.469      60668.439     1.94506427E-04  3.0290638    
 1.02364936E-06 3.41729032E-09  61909.547      61906.519     1.99844369E-04  3.0279727    
 1.03050683E-06 3.44018290E-09  63136.746      63133.715     2.05092935E-04  3.0303281    
 1.03741024E-06 3.46322884E-09  64443.634      64440.607     2.10842218E-04  3.0274716    
 1.04435990E-06 3.48642917E-09  65730.478      65727.449     2.16442521E-04  3.0289884    
 1.05135611E-06 3.50978492E-09  67052.742      67049.712     2.22255149E-04  3.0295838    
 1.05839920E-06 3.53329712E-09  68430.589      68427.561     2.28418506E-04  3.0276399    
 1.06548946E-06 3.55696684E-09  69787.103      69784.073     2.34418261E-04  3.0299992    
 1.07262722E-06 3.58079512E-09  71221.607      71218.579     2.40921538E-04  3.0279914    
 1.07981280E-06 3.60478303E-09  72653.957      72650.928     2.47390221E-04  3.0286573    
 1.08704652E-06 3.62893164E-09  74105.075      74102.045     2.53962517E-04  3.0301037    
 1.09432869E-06 3.65324201E-09  75638.386      75635.358     2.61078100E-04  3.0273067    
 1.10165965E-06 3.67771524E-09  77137.839      77134.809     2.67936550E-04  3.0296697    
 1.10903971E-06 3.70235243E-09  78712.347      78709.318     2.75292002E-04  3.0285113    
 1.11646922E-06 3.72715465E-09  80306.565      80303.537     2.82762791E-04  3.0283257    
 1.12394850E-06 3.75212303E-09  81899.019      81895.988     2.90193265E-04  3.0306238    
 1.13147788E-06 3.77725867E-09  83605.242      83602.215     2.98407260E-04  3.0269729    
 1.13905770E-06 3.80256270E-09  85262.690      85259.661     3.06247299E-04  3.0293397    
 1.14668830E-06 3.82803623E-09  86990.787      86987.758     3.14565780E-04  3.0290312    
 1.15437002E-06 3.85368042E-09  88765.066      88762.038     3.23192873E-04  3.0279936    
 1.16210319E-06 3.87949640E-09  90524.509      90521.479     3.31680896E-04  3.0303487    
 1.16988818E-06 3.90548532E-09  92399.016      92395.988     3.40984811E-04  3.0274389    
 1.17772531E-06 3.93164835E-09  94243.156      94240.127     3.50035713E-04  3.0290092    
 1.18561494E-06 3.95798663E-09  96139.735      96136.705     3.59442373E-04  3.0295511    
 1.19355743E-06 3.98450137E-09  98114.302      98111.274     3.69403557E-04  3.0276609    
 1.20155313E-06 4.01119372E-09  100059.13      100056.10     3.79106407E-04  3.0300199    
 1.20960239E-06 4.03806489E-09  102116.66      102113.64     3.89630553E-04  3.0279587    
 1.21770557E-06 4.06511607E-09  104169.31      104166.28     4.00084963E-04  3.0286782    
 1.22586303E-06 4.09234846E-09  106250.70      106247.67     4.10721069E-04  3.0300710    
 1.23407514E-06 4.11976329E-09  108448.04      108445.02     4.22221317E-04  3.0273277    
 1.24234227E-06 4.14736177E-09  110597.78      110594.75     4.33312853E-04  3.0296905    
 1.25066478E-06 4.17514513E-09  112856.11      112853.08     4.45216128E-04  3.0284786    
 1.25904304E-06 4.20311462E-09  115140.71      115137.68     4.57290188E-04  3.0283466    
 1.26747742E-06 4.23127147E-09  117424.81      117421.78     4.69315182E-04  3.0305911    
 1.27596831E-06 4.25961695E-09  119869.93      119866.90     4.82590780E-04  3.0269939    
 1.28451608E-06 4.28815232E-09  122246.15      122243.12     4.95269746E-04  3.0293605    
 1.29312111E-06 4.31687884E-09  124724.76      124721.74     5.08731563E-04  3.0289985    
 1.30178379E-06 4.34579781E-09  127267.38      127264.35     5.22674507E-04  3.0280145    
 1.31050450E-06 4.37491051E-09  129789.82      129786.79     5.36401395E-04  3.0303694    
 1.31928362E-06 4.40421823E-09  132478.38      132475.35     5.51457659E-04  3.0274063    
 1.32812156E-06 4.43372228E-09  135121.07      135118.04     5.66085209E-04  3.0290300    
 1.33701871E-06 4.46342399E-09  137841.32      137838.29     5.81308121E-04  3.0295184    
 1.34597546E-06 4.49332467E-09  140670.93      140667.90     5.97407313E-04  3.0276818    
 1.35499221E-06 4.52342565E-09  143459.11      143456.08     6.13098821E-04  3.0300406    
 1.36406936E-06 4.55372829E-09  146410.17      146407.14     6.30129848E-04  3.0279261    
 1.37320733E-06 4.58423392E-09  149351.63      149348.60     6.47025796E-04  3.0286990    
 1.38240650E-06 4.61494391E-09  152336.93      152333.90     6.64238443E-04  3.0300384    
 1.39166731E-06 4.64585962E-09  155485.76      155482.73     6.82825185E-04  3.0273486    
 1.40099015E-06 4.67698245E-09  158567.67      158564.64     7.00762482E-04  3.0297112    
 1.41037545E-06 4.70831376E-09  161806.70      161803.67     7.20025439E-04  3.0284459    
 1.41982361E-06 4.73985497E-09  165080.52      165077.49     7.39539137E-04  3.0283675    
 1.42933508E-06 4.77160747E-09  168356.54      168353.51     7.58999575E-04  3.0305584    
 1.43891026E-06 4.80357269E-09  171860.41      171857.38     7.80455790E-04  3.0270149    
 1.44854958E-06 4.83575204E-09  175266.99      175263.96     8.00960282E-04  3.0293813    
 1.45825348E-06 4.86814696E-09  178821.92      178818.89     8.22745542E-04  3.0289658    
 1.46802239E-06 4.90075889E-09  182465.45      182462.42     8.45279831E-04  3.0280354    
 1.47785673E-06 4.93358930E-09  186081.62      186078.59     8.67479020E-04  3.0303901    
 1.48775696E-06 4.96663964E-09  189937.60      189934.57     8.91844116E-04  3.0273736    
 1.49772351E-06 4.99991138E-09  193724.48      193721.45     9.15484290E-04  3.0290508    
 1.50775683E-06 5.03340601E-09  197625.95      197622.92     9.40119677E-04  3.0294857    
 1.51785736E-06 5.06712502E-09  201680.70      201677.67     9.66139032E-04  3.0277027    
 1.52802556E-06 5.10106992E-09  205677.80      205674.77     9.91515409E-04  3.0300613    
 1.53826187E-06 5.13524222E-09  209910.21      209907.18     1.01907636E-03  3.0278934    
 1.54856676E-06 5.16964344E-09  214125.18      214122.15     1.04638279E-03  3.0287198    
 1.55894067E-06 5.20427512E-09  218406.76      218403.73     1.07423835E-03  3.0300057    
 1.56938409E-06 5.23913879E-09  222918.90      222915.87     1.10427827E-03  3.0273696    
 1.57989746E-06 5.27423602E-09  227337.03      227334.00     1.13328654E-03  3.0297319    
 1.59048127E-06 5.30956836E-09  231982.42      231979.39     1.16445955E-03  3.0284132    
 1.60113597E-06 5.34513740E-09  236673.60      236670.57     1.19599690E-03  3.0283883    
 1.61186206E-06 5.38094472E-09  241372.09      241369.06     1.22749031E-03  3.0305257    
 1.62265999E-06 5.41699191E-09  246392.92      246389.90     1.26216810E-03  3.0270359    
 1.63353026E-06 5.45328058E-09  251276.43      251273.40     1.29532804E-03  3.0294020    
 1.64447336E-06 5.48981235E-09  256374.85      256371.81     1.33058307E-03  3.0289331    
 1.65548976E-06 5.52658885E-09  261595.73      261592.70     1.36700245E-03  3.0280563    
 1.66657996E-06 5.56361172E-09  266779.65      266776.61     1.40290305E-03  3.0304107    
 1.67774445E-06 5.60088261E-09  272309.70      272306.67     1.44233228E-03  3.0273409    
 1.68898374E-06 5.63840317E-09  277735.93      277732.90     1.48053805E-03  3.0290716    
 1.70029832E-06 5.67617509E-09  283331.29      283328.26     1.52040568E-03  3.0294530    
 1.71168869E-06 5.71420004E-09  289141.35      289138.33     1.56245784E-03  3.0277237    
 1.72315537E-06 5.75247973E-09  294871.27      294868.24     1.60349658E-03  3.0300819    
 1.73469887E-06 5.79101585E-09  300941.14      300938.11     1.64809781E-03  3.0278607    
 1.74631969E-06 5.82981012E-09  306980.70      306977.67     1.69222908E-03  3.0287407    
 1.75801837E-06 5.86886429E-09  313121.14      313118.11     1.73730823E-03  3.0299730    
 1.76979541E-06 5.90818007E-09  319586.52      319583.49     1.78585870E-03  3.0273906    
 1.78165135E-06 5.94775924E-09  325919.91      325916.88     1.83277093E-03  3.0297526    
 1.79358672E-06 5.98760354E-09  332581.97      332578.94     1.88321776E-03  3.0283805    
 1.80560203E-06 6.02771477E-09  339303.80      339300.77     1.93418721E-03  3.0284092    
 1.81769784E-06 6.06809470E-09  346042.10      346039.07     1.98515385E-03  3.0304930    
 1.82987468E-06 6.10874514E-09  353236.30      353233.27     2.04120043E-03  3.0270569    
 1.84213310E-06 6.14966790E-09  360236.70      360233.67     2.09482672E-03  3.0294228    
 1.85447363E-06 6.19086481E-09  367548.38      367545.35     2.15187977E-03  3.0289004    
 1.86689683E-06 6.23233769E-09  375029.12      375026.09     2.21073979E-03  3.0280772    
 1.87940326E-06 6.27408840E-09  382460.09      382457.06     2.26879827E-03  3.0304314    
 1.89199346E-06 6.31611880E-09  390390.62      390387.59     2.33260520E-03  3.0273082    
 1.90466801E-06 6.35843077E-09  398165.46      398162.43     2.39435087E-03  3.0290924    
 1.91742747E-06 6.40102618E-09  406189.73      406186.70     2.45886883E-03  3.0294203    
 1.93027240E-06 6.44390694E-09  414514.56      414511.53     2.52683287E-03  3.0277446    
 1.94320339E-06 6.48707497E-09  422728.08      422725.05     2.59320074E-03  3.0301026    
 1.95622099E-06 6.53053217E-09  431432.64      431429.61     2.66537772E-03  3.0278280    
 1.96932581E-06 6.57428050E-09  440086.18      440083.15     2.73670034E-03  3.0287615    
 1.98251841E-06 6.61832191E-09  448892.05      448889.02     2.80965257E-03  3.0299403    
 1.99579939E-06 6.66265834E-09  458155.71      458152.68     2.88811961E-03  3.0274115    
 2.00916934E-06 6.70729179E-09  467234.14      467231.11     2.96398606E-03  3.0297734    
 2.02262885E-06 6.75222424E-09  476787.83      476784.80     3.04562330E-03  3.0283478    
 2.03617854E-06 6.79745770E-09  486418.79      486415.76     3.12799800E-03  3.0284300    
 2.04981899E-06 6.84299417E-09  496081.93      496078.89     3.21047856E-03  3.0304603    
 2.06355082E-06 6.88883570E-09  506389.69      506386.66     3.30106138E-03  3.0270779    
 2.07737464E-06 6.93498432E-09  516424.06      516421.03     3.38778578E-03  3.0294435    
 2.09129106E-06 6.98144209E-09  526909.22      526906.18     3.48011427E-03  3.0288677    
 2.10530072E-06 7.02821109E-09  537627.37      537624.34     3.57524207E-03  3.0280981    
 2.11940422E-06 7.07529339E-09  548278.83      548275.79     3.66913416E-03  3.0382869    
 2.13360221E-06 7.12269110E-09  559651.22      559648.12     3.77239045E-03  3.0978504    
 2.14789530E-06 7.17040633E-09  570790.67      570787.49     3.87217957E-03  3.1832858    
 2.16228415E-06 7.21844121E-09  582297.64      582294.36     3.97658909E-03  3.2711186    
 2.17676939E-06 7.26679787E-09  594225.10      594221.74     4.08643129E-03  3.3615950    
 2.19135167E-06 7.31547848E-09  605998.13      605994.68     4.19376127E-03  3.4483468    
 2.20603163E-06 7.36448520E-09  618480.35      618476.80     4.31056315E-03  3.5407452    
 2.22080994E-06 7.41382021E-09  630878.56      630874.93     4.42583073E-03  3.6315504    
 2.23568724E-06 7.46348573E-09  643506.21      643502.47     4.54389013E-03  3.7277980    
 2.25066421E-06 7.51348396E-09  656778.56      656774.72     4.67070796E-03  3.8316529    
 2.26574151E-06 7.56381713E-09  669791.10      669787.17     4.79339896E-03  3.9302068    
 2.28091982E-06 7.61448748E-09  683490.78      683486.74     4.92551083E-03  4.0341535    
 2.29619980E-06 7.66549727E-09  697289.16      697285.02     5.05864113E-03  4.1367922    
 2.31158215E-06 7.71684879E-09  711145.94      711141.69     5.19212116E-03  4.2380079    
 2.32706754E-06 7.76854430E-09  725913.96      725909.60     5.33852138E-03  4.3480339    
 2.34265667E-06 7.82058613E-09  740296.45      740291.98     5.47877178E-03  4.4582034    
 2.35835023E-06 7.87297659E-09  755331.60      755327.02     5.62818591E-03  4.5751089    
 2.37414893E-06 7.92571802E-09  770687.36      770682.66     5.78192830E-03  4.6928513    
 2.39005346E-06 7.97881276E-09  785954.15      785949.34     5.93377019E-03  4.8072995    
 2.40606454E-06 8.03226319E-09  802261.05      802256.11     6.10086553E-03  4.9299275    
 2.42218287E-06 8.08607168E-09  818220.02      818214.97     6.26213751E-03  5.0466366    
 2.43840918E-06 8.14024064E-09  834720.04      834714.86     6.43110323E-03  5.1686779    
 2.45474420E-06 8.19477248E-09  851807.92      851802.61     6.60862776E-03  5.3021363    
 2.47118864E-06 8.24966963E-09  868681.84      868676.40     6.78220127E-03  5.4320564    
 2.48774324E-06 8.30493454E-09  886579.82      886574.24     6.97121789E-03  5.5700698    
 2.50440875E-06 8.36056967E-09  904341.84      904336.13     7.15750643E-03  5.7038017    
 2.52118589E-06 8.41657750E-09  922448.56      922442.71     7.34856286E-03  5.8384874    
 2.53807543E-06 8.47296053E-09  941462.83      941456.84     7.55352439E-03  5.9790906    
 2.55507811E-06 8.52972128E-09  960112.93      960106.80     7.75193960E-03  6.1173632    
 2.57219470E-06 8.58686227E-09  979756.29      979750.01     7.96573304E-03  6.2712181    
 2.58942595E-06 8.64438604E-09  999523.87      999517.43     8.18089179E-03  6.4244861    
 2.60677263E-06 8.70229518E-09  1019392.7      1019386.2     8.39690484E-03  6.5759576    
 2.62423551E-06 8.76059224E-09  1040549.3      1040542.6     8.63351677E-03  6.7370529    
 2.64181539E-06 8.81927985E-09  1061162.5      1061155.6     8.86032882E-03  6.8899089    
 2.65951303E-06 8.87836060E-09  1082720.4      1082713.3     9.10212347E-03  7.0488167    
 2.67732922E-06 8.93783714E-09  1104718.6      1104711.4     9.35059621E-03  7.2145929    
 2.69526477E-06 8.99771211E-09  1126598.9      1126591.5     9.59615383E-03  7.3844402    
 2.71332047E-06 9.05798819E-09  1149979.6      1149972.0     9.86655660E-03  7.5674218    
 2.73149713E-06 9.11866806E-09  1172841.6      1172833.9     1.01271921E-02  7.7416494    
 2.74979555E-06 9.17975443E-09  1196499.5      1196491.6     1.04006284E-02  7.9204910    
 2.76821656E-06 9.24125002E-09  1220978.6      1220970.5     1.06875389E-02  8.1035178    
 2.78676096E-06 9.30315757E-09  1245161.7      1245153.4     1.09682406E-02  8.2810508    
 2.80542960E-06 9.36547984E-09  1270823.2      1270814.7     1.12741192E-02  8.4761205    
 2.82422330E-06 9.42821962E-09  1296267.7      1296259.0     1.15751868E-02  8.6748144    
 2.84314290E-06 9.49137968E-09  1322228.8      1322219.9     1.18843742E-02  8.8759822    
 2.86218924E-06 9.55496287E-09  1349467.0      1349457.9     1.22156299E-02  9.0855661    
 2.88136318E-06 9.61897199E-09  1376195.1      1376185.8     1.25365052E-02  9.2867027    
 2.90066556E-06 9.68340992E-09  1404358.6      1404349.1     1.28824811E-02  9.4973439    
 2.92009725E-06 9.74827952E-09  1432675.4      1432665.7     1.32302094E-02  9.7064823    
 2.93965911E-06 9.81358368E-09  1461162.6      1461152.7     1.35797863E-02  9.9224363    
 2.95935202E-06 9.87932532E-09  1491469.0      1491458.9     1.39621973E-02  10.161536    
 2.97917685E-06 9.94550737E-09  1521009.7      1520999.3     1.43289955E-02  10.389631    
 2.99913449E-06 1.00121328E-08  1551917.6      1551907.0     1.47202872E-02  10.626763    
 3.01922583E-06 1.00792045E-08  1583429.1      1583418.2     1.51218586E-02  10.865055    
 3.03945176E-06 1.01467255E-08  1614785.2      1614774.1     1.55189718E-02  11.098281    
 3.05981319E-06 1.02146989E-08  1648305.5      1648294.1     1.59565512E-02  11.347339    
 3.08031101E-06 1.02831276E-08  1681053.8      1681042.2     1.63777695E-02  11.597737    
 3.10094616E-06 1.03520148E-08  1714971.9      1714960.0     1.68202687E-02  11.863738    
 3.12171953E-06 1.04213634E-08  1750036.4      1750024.2     1.72839648E-02  12.136462    
 3.14263207E-06 1.04911766E-08  1784691.7      1784679.3     1.77379123E-02  12.400902    
 3.16368471E-06 1.05614574E-08  1821481.3      1821468.6     1.82329032E-02  12.679843    
 3.18487837E-06 1.06322091E-08  1857927.8      1857914.9     1.87194680E-02  12.951125    
 3.20621402E-06 1.07034348E-08  1895147.3      1895134.1     1.92198258E-02  13.226827    
 3.22769259E-06 1.07751376E-08  1934163.0      1934149.4     1.97551947E-02  13.528551    
 3.24931505E-06 1.08473207E-08  1972464.4      1972450.6     2.02741103E-02  13.828055    
 3.27108236E-06 1.09199874E-08  2012840.1      2012826.0     2.08339919E-02  14.142177    
 3.29299549E-06 1.09931409E-08  2053400.1      2053385.6     2.13959706E-02  14.452409    
 3.31505541E-06 1.10667844E-08  2094240.3      2094225.5     2.19616939E-02  14.760459    
 3.33726312E-06 1.11409213E-08  2137649.7      2137634.6     2.25797431E-02  15.084909    
 3.35961959E-06 1.12155548E-08  2179980.5      2179965.1     2.31729243E-02  15.399215    
 3.38212584E-06 1.12906884E-08  2224289.7      2224273.9     2.38061424E-02  15.742442    
 3.40478285E-06 1.13663252E-08  2269424.4      2269408.3     2.44551437E-02  16.097326    
 3.42759164E-06 1.14424687E-08  2314356.1      2314339.6     2.50973495E-02  16.444764    
 3.45055323E-06 1.15191223E-08  2362408.7      2362391.9     2.58054605E-02  16.813921    
 3.47366865E-06 1.15962894E-08  2409314.1      2409296.9     2.64861977E-02  17.167229    
 3.49693891E-06 1.16739735E-08  2457937.5      2457920.0     2.72022878E-02  17.529699    
 3.52036506E-06 1.17521780E-08  2508159.9      2508141.9     2.79516972E-02  17.904745    
 3.54394814E-06 1.18309064E-08  2557817.8      2557799.5     2.86858142E-02  18.290257    
 3.56768921E-06 1.19101621E-08  2610555.8      2610537.1     2.94868352E-02  18.706116    
 3.59158932E-06 1.19899488E-08  2662756.9      2662737.7     3.02731857E-02  19.109936    
 3.61564954E-06 1.20702701E-08  2716111.9      2716092.3     3.10829121E-02  19.517884    
 3.63987094E-06 1.21511293E-08  2771991.9      2771971.9     3.19481623E-02  19.940310    
 3.66425460E-06 1.22325303E-08  2826872.8      2826852.4     3.27873439E-02  20.348566    
 3.68880161E-06 1.23144766E-08  2884750.2      2884729.4     3.36933796E-02  20.781438    
 3.71351306E-06 1.23969718E-08  2942841.0      2942819.7     3.46016147E-02  21.236805    
 3.73839005E-06 1.24800197E-08  3001385.0      3001363.3     3.55171272E-02  21.695621    
 3.76343369E-06 1.25636239E-08  3063556.2      3063534.0     3.65160095E-02  22.178856    
 3.78864510E-06 1.26477882E-08  3124208.9      3124186.2     3.74752916E-02  22.641421    
 3.81402541E-06 1.27325163E-08  3187723.3      3187700.1     3.85000106E-02  23.121029    
 3.83957574E-06 1.28178120E-08  3252364.3      3252340.6     3.95488934E-02  23.602158    
 3.86529723E-06 1.29036791E-08  3316742.3      3316718.2     4.05874566E-02  24.084223    
 3.89119103E-06 1.29901214E-08  3385620.3      3385595.6     4.17333508E-02  24.628477    
 3.91725829E-06 1.30771428E-08  3452795.9      3452770.7     4.28334970E-02  25.153968    
 3.94350018E-06 1.31647472E-08  3522492.8      3522467.0     4.39923316E-02  25.693897    
 3.96991787E-06 1.32529384E-08  3594417.9      3594391.6     4.52034970E-02  26.243852    
 3.99651253E-06 1.33417205E-08  3665565.6      3665538.7     4.63906964E-02  26.779756    
 4.02328535E-06 1.34310972E-08  3741157.5      3741130.1     4.76869479E-02  27.342720    
 4.05023752E-06 1.35210728E-08  3815914.9      3815887.0     4.89577858E-02  27.908300    
 4.07737024E-06 1.36116511E-08  3892392.2      3892363.6     5.02681576E-02  28.509902    
 4.10468473E-06 1.37028361E-08  3972417.3      3972388.1     5.16665491E-02  29.138822    
 4.13218219E-06 1.37946320E-08  4051045.7      4051015.9     5.30236559E-02  29.746020    
