 OPTXAGNF AGN Spectrum Model Parameters: NLS, Astar 0.0                          
 M_BH:  2.0000E+06 M_0            L  :   1.000     L/Ledd 
 D   :  1.5000E+18 cm             z  :   0.000     redshift 
 Rcor:   40.00     Rg             Ro :   4.000     Rg 
 C_T :  0.2000     keV            Tau:   15.00     Optical Depth 
 gam :   2.200     (-slope)       fpl:  0.2000     Fraction 
 E              0.5DeltaE      E.FE total     E.FE Disk      E.FE Compton   E.FE NonThermal
 (keV)          (keV)          E.E/cm2/s/E    E.E/cm2/s/E    E.E/cm2/s/E    E.E/cm2/s/E    
 1.00334952E-06 3.34952256E-09  79076.710      79061.652     1.00380748E-04  15.057682    
 1.01007101E-06 3.37196116E-09  80644.462      80629.393     1.03018083E-04  15.069457    
 1.01683752E-06 3.39455008E-09  82278.320      82263.251     1.05814467E-04  15.068188    
 1.02364936E-06 3.41729032E-09  83957.322      83942.259     1.08718403E-04  15.062760    
 1.03050683E-06 3.44018290E-09  85621.575      85606.501     1.11573717E-04  15.074477    
 1.03741024E-06 3.46322884E-09  87393.908      87378.848     1.14701431E-04  15.060268    
 1.04435990E-06 3.48642917E-09  89139.062      89123.994     1.17748097E-04  15.067813    
 1.05135611E-06 3.50978492E-09  90932.256      90917.186     1.20910273E-04  15.070775    
 1.05839920E-06 3.53329712E-09  92800.840      92785.779     1.24263252E-04  15.061105    
 1.06548946E-06 3.55696684E-09  94640.497      94625.424     1.27527229E-04  15.072841    
 1.07262722E-06 3.58079512E-09  96585.931      96570.868     1.31065133E-04  15.062854    
 1.07981280E-06 3.60478303E-09  98528.450      98513.384     1.34584216E-04  15.066166    
 1.08704652E-06 3.62893164E-09  100496.43      100481.35     1.38159667E-04  15.073361    
 1.09432869E-06 3.65324201E-09  102575.89      102560.83     1.42030679E-04  15.059447    
 1.10165965E-06 3.67771524E-09  104609.43      104594.36     1.45761805E-04  15.071202    
 1.10903971E-06 3.70235243E-09  106744.78      106729.71     1.49763310E-04  15.065440    
 1.11646922E-06 3.72715465E-09  108906.86      108891.80     1.53827562E-04  15.064517    
 1.12394850E-06 3.75212303E-09  111066.56      111051.48     1.57869881E-04  15.075948    
 1.13147788E-06 3.77725867E-09  113380.57      113365.51     1.62338454E-04  15.057787    
 1.13905770E-06 3.80256270E-09  115628.42      115613.36     1.66603586E-04  15.069561    
 1.14668830E-06 3.82803623E-09  117972.11      117957.05     1.71129001E-04  15.068026    
 1.15437002E-06 3.85368042E-09  120378.45      120363.38     1.75822308E-04  15.062864    
 1.16210319E-06 3.87949640E-09  122764.66      122749.59     1.80439959E-04  15.074580    
 1.16988818E-06 3.90548532E-09  125306.95      125291.89     1.85501473E-04  15.060105    
 1.17772531E-06 3.93164835E-09  127808.06      127792.99     1.90425343E-04  15.067917    
 1.18561494E-06 3.95798663E-09  130380.30      130365.23     1.95542752E-04  15.070612    
 1.19355743E-06 3.98450137E-09  133058.33      133043.27     2.00961837E-04  15.061209    
 1.20155313E-06 4.01119372E-09  135696.02      135680.95     2.06240381E-04  15.072944    
 1.20960239E-06 4.03806489E-09  138486.60      138471.54     2.11965730E-04  15.062691    
 1.21770557E-06 4.06511607E-09  141270.56      141255.49     2.17653141E-04  15.066270    
 1.22586303E-06 4.09234846E-09  144093.50      144078.43     2.23439400E-04  15.073199    
 1.23407514E-06 4.11976329E-09  147073.75      147058.69     2.29695772E-04  15.059552    
 1.24234227E-06 4.14736177E-09  149989.41      149974.34     2.35729795E-04  15.071305    
 1.25066478E-06 4.17514513E-09  153052.39      153037.33     2.42205424E-04  15.065277    
 1.25904304E-06 4.20311462E-09  156151.01      156135.94     2.48773965E-04  15.064620    
 1.26747742E-06 4.23127147E-09  159248.95      159233.87     2.55315812E-04  15.075786    
 1.27596831E-06 4.25961695E-09  162565.33      162550.27     2.62538019E-04  15.057891    
 1.28451608E-06 4.28815232E-09  165788.25      165773.18     2.69435643E-04  15.069664    
 1.29312111E-06 4.31687884E-09  169150.07      169135.00     2.76759158E-04  15.067863    
 1.30178379E-06 4.34579781E-09  172598.72      172583.66     2.84344418E-04  15.062968    
 1.31050450E-06 4.37491051E-09  176020.00      176004.92     2.91812139E-04  15.074683    
 1.31928362E-06 4.40421823E-09  179666.65      179651.59     3.00003073E-04  15.059943    
 1.32812156E-06 4.43372228E-09  183251.07      183236.00     3.07960777E-04  15.068020    
 1.33701871E-06 4.46342399E-09  186940.71      186925.64     3.16242373E-04  15.070449    
 1.34597546E-06 4.49332467E-09  190778.72      190763.66     3.25000688E-04  15.061313    
 1.35499221E-06 4.52342565E-09  194560.53      194545.46     3.33537213E-04  15.073047    
 1.36406936E-06 4.55372829E-09  198563.30      198548.24     3.42802470E-04  15.062528    
 1.37320733E-06 4.58423392E-09  202553.07      202538.00     3.51994241E-04  15.066373    
 1.38240650E-06 4.61494391E-09  206602.30      206587.23     3.61358306E-04  15.073036    
 1.39166731E-06 4.64585962E-09  210873.41      210858.35     3.71469914E-04  15.059656    
 1.40099015E-06 4.67698245E-09  215053.73      215038.66     3.81228208E-04  15.071409    
 1.41037545E-06 4.70831376E-09  219447.21      219432.14     3.91707695E-04  15.065114    
 1.41982361E-06 4.73985497E-09  223887.90      223872.83     4.02323593E-04  15.064724    
 1.42933508E-06 4.77160747E-09  228331.56      228316.49     4.12910517E-04  15.075623    
 1.43891026E-06 4.80357269E-09  233084.38      233069.32     4.24583197E-04  15.057996    
 1.44854958E-06 4.83575204E-09  237705.19      237690.12     4.35738114E-04  15.069767    
 1.45825348E-06 4.86814696E-09  242527.29      242512.22     4.47589805E-04  15.067700    
 1.46802239E-06 4.90075889E-09  247469.59      247454.53     4.59848987E-04  15.063072    
 1.47785673E-06 4.93358930E-09  252374.77      252359.70     4.71925867E-04  15.074786    
 1.48775696E-06 4.96663964E-09  257605.34      257590.28     4.85181061E-04  15.059780    
 1.49772351E-06 4.99991138E-09  262742.15      262727.08     4.98041877E-04  15.068124    
 1.50775683E-06 5.03340601E-09  268034.43      268019.36     5.11444117E-04  15.070287    
 1.51785736E-06 5.06712502E-09  273534.71      273519.64     5.25599276E-04  15.061418    
 1.52802556E-06 5.10106992E-09  278956.74      278941.67     5.39404636E-04  15.073150    
 1.53826187E-06 5.13524222E-09  284698.08      284683.02     5.54398467E-04  15.062366    
 1.54856676E-06 5.16964344E-09  290415.75      290400.68     5.69253831E-04  15.066477    
 1.55894067E-06 5.20427512E-09  296223.79      296208.72     5.84407943E-04  15.072873    
 1.56938409E-06 5.23913879E-09  302344.69      302329.63     6.00750405E-04  15.059760    
 1.57989746E-06 5.27423602E-09  308338.03      308322.95     6.16531621E-04  15.071512    
 1.59048127E-06 5.30956836E-09  314639.74      314624.67     6.33490522E-04  15.064952    
 1.60113597E-06 5.34513740E-09  321003.58      320988.51     6.50647630E-04  15.064828    
 1.61186206E-06 5.38094472E-09  327377.34      327362.26     6.67780837E-04  15.075460    
 1.62265999E-06 5.41699191E-09  334188.52      334173.46     6.86646445E-04  15.058100    
 1.63353026E-06 5.45328058E-09  340813.33      340798.26     7.04686293E-04  15.069871    
 1.64447336E-06 5.48981235E-09  347729.78      347714.71     7.23865938E-04  15.067538    
 1.65548976E-06 5.52658885E-09  354812.42      354797.36     7.43679022E-04  15.063176    
 1.66657996E-06 5.56361172E-09  361844.88      361829.81     7.63209873E-04  15.074888    
 1.67774445E-06 5.60088261E-09  369347.09      369332.03     7.84660413E-04  15.059617    
 1.68898374E-06 5.63840317E-09  376708.37      376693.30     8.05445352E-04  15.068227    
 1.70029832E-06 5.67617509E-09  384299.17      384284.10     8.27134393E-04  15.070124    
 1.71168869E-06 5.71420004E-09  392181.36      392166.30     8.50011884E-04  15.061522    
 1.72315537E-06 5.75247973E-09  399954.75      399939.67     8.72338048E-04  15.073253    
 1.73469887E-06 5.79101585E-09  408189.50      408174.44     8.96602319E-04  15.062203    
 1.74631969E-06 5.82981012E-09  416383.12      416368.05     9.20610921E-04  15.066581    
 1.75801837E-06 5.86886429E-09  424713.63      424698.55     9.45135195E-04  15.072711    
 1.76979541E-06 5.90818007E-09  433485.14      433470.08     9.71547978E-04  15.059864    
 1.78165135E-06 5.94775924E-09  442077.49      442062.42     9.97069511E-04  15.071615    
 1.79358672E-06 5.98760354E-09  451115.91      451100.85     1.02451398E-03  15.064789    
 1.80560203E-06 6.02771477E-09  460235.45      460220.38     1.05224277E-03  15.064932    
 1.81769784E-06 6.06809470E-09  469377.31      469362.23     1.07997004E-03  15.075298    
 1.82987468E-06 6.10874514E-09  479137.94      479122.88     1.11046096E-03  15.058205    
 1.84213310E-06 6.14966790E-09  488635.52      488620.44     1.13963517E-03  15.069974    
 1.85447363E-06 6.19086481E-09  498555.58      498540.51     1.17067364E-03  15.067375    
 1.86689683E-06 6.23233769E-09  508705.08      508690.02     1.20269517E-03  15.063280    
 1.87940326E-06 6.27408840E-09  518787.01      518771.94     1.23428064E-03  15.074991    
 1.89199346E-06 6.31611880E-09  529547.01      529531.95     1.26899346E-03  15.059455    
 1.90466801E-06 6.35843077E-09  540095.65      540080.59     1.30258488E-03  15.068330    
 1.91742747E-06 6.40102618E-09  550982.84      550967.77     1.33768453E-03  15.069962    
 1.93027240E-06 6.44390694E-09  562278.01      562262.94     1.37465897E-03  15.061626    
 1.94320339E-06 6.48707497E-09  573422.03      573406.96     1.41076503E-03  15.073356    
 1.95622099E-06 6.53053217E-09  585232.59      585217.53     1.45003146E-03  15.062041    
 1.96932581E-06 6.57428050E-09  596973.86      596958.79     1.48883308E-03  15.066684    
 1.98251841E-06 6.61832191E-09  608921.89      608906.82     1.52852127E-03  15.072548    
 1.99579939E-06 6.66265834E-09  621491.33      621476.27     1.57120971E-03  15.059969    
 2.00916934E-06 6.70729179E-09  633809.30      633794.22     1.61248335E-03  15.071718    
 2.02262885E-06 6.75222424E-09  646772.40      646757.33     1.65689649E-03  15.064626    
 2.03617854E-06 6.79745770E-09  659840.37      659825.30     1.70171085E-03  15.065035    
 2.04981899E-06 6.84299417E-09  672951.98      672936.90     1.74658281E-03  15.075135    
 2.06355082E-06 6.88883570E-09  686938.68      686923.62     1.79586268E-03  15.058309    
 2.07737464E-06 6.93498432E-09  700554.20      700539.12     1.84304344E-03  15.070077    
 2.09129106E-06 6.98144209E-09  714781.65      714766.58     1.89327303E-03  15.067213    
 2.10530072E-06 7.02821109E-09  729325.39      729310.32     1.94502556E-03  15.063384    
 2.11940422E-06 7.07529339E-09  743778.52      743763.45     1.99610581E-03  15.075094    
 2.13360221E-06 7.12269110E-09  759210.32      759195.26     2.05228054E-03  15.059292    
 2.14789530E-06 7.17040633E-09  774325.80      774310.72     2.10656900E-03  15.068434    
 2.16228415E-06 7.21844121E-09  789940.18      789925.11     2.16337114E-03  15.069799    
 2.17676939E-06 7.26679787E-09  806125.42      806110.36     2.22312887E-03  15.061730    
 2.19135167E-06 7.31547848E-09  822100.94      822085.86     2.28151985E-03  15.073459    
 2.20603163E-06 7.36448520E-09  839039.29      839024.22     2.34506391E-03  15.061878    
 2.22080994E-06 7.41382021E-09  855863.53      855848.46     2.40777327E-03  15.066788    
 2.23568724E-06 7.46348573E-09  872999.22      872984.15     2.47200148E-03  15.072385    
 2.25066421E-06 7.51348396E-09  891010.22      890995.16     2.54099462E-03  15.060073    
 2.26574151E-06 7.56381713E-09  908668.41      908653.34     2.60774262E-03  15.071821    
 2.28091982E-06 7.61448748E-09  927259.52      927244.46     2.67961593E-03  15.064464    
 2.29619980E-06 7.66549727E-09  945984.61      945969.54     2.75204333E-03  15.065139    
 2.31158215E-06 7.71684879E-09  964788.92      964773.84     2.82466099E-03  15.074972    
 2.32706754E-06 7.76854430E-09  984830.51      984815.44     2.90430776E-03  15.058414    
 2.34265667E-06 7.82058613E-09  1004348.5      1004333.4     2.98060879E-03  15.070180    
 2.35835023E-06 7.87297659E-09  1024752.7      1024737.6     3.06189526E-03  15.067050    
 2.37414893E-06 7.92571802E-09  1045592.2      1045577.1     3.14553648E-03  15.063488    
 2.39005346E-06 7.97881276E-09  1066310.8      1066295.7     3.22814377E-03  15.075197    
 2.40606454E-06 8.03226319E-09  1088441.7      1088426.6     3.31904956E-03  15.059130    
 2.42218287E-06 8.08607168E-09  1110100.1      1110085.0     3.40678722E-03  15.068537    
 2.43840918E-06 8.14024064E-09  1132493.1      1132478.0     3.49871058E-03  15.069636    
 2.45474420E-06 8.19477248E-09  1155684.4      1155669.3     3.59529032E-03  15.061834    
 2.47118864E-06 8.24966963E-09  1178585.0      1178569.9     3.68972054E-03  15.073562    
 2.48774324E-06 8.30493454E-09  1202876.2      1202861.1     3.79255247E-03  15.061715    
 2.50440875E-06 8.36056967E-09  1226982.7      1226967.6     3.89390022E-03  15.066891    
 2.52118589E-06 8.41657750E-09  1251557.2      1251542.2     3.99784191E-03  15.072223    
 2.53807543E-06 8.47296053E-09  1277364.2      1277349.2     4.10934859E-03  15.060177    
 2.55507811E-06 8.52972128E-09  1302676.5      1302661.5     4.21729379E-03  15.071924    
 2.57219470E-06 8.58686227E-09  1329337.7      1329322.6     4.33360543E-03  15.064301    
 2.58942595E-06 8.64438604E-09  1356167.5      1356152.4     4.45065987E-03  15.065243    
 2.60677263E-06 8.70229518E-09  1383134.7      1383119.6     4.56817909E-03  15.074810    
 2.62423551E-06 8.76059224E-09  1411850.8      1411835.8     4.69690503E-03  15.058518    
 2.64181539E-06 8.81927985E-09  1439828.7      1439813.6     4.82029941E-03  15.070284    
 2.65951303E-06 8.87836060E-09  1469089.6      1469074.6     4.95184501E-03  15.066887    
 2.67732922E-06 8.93783714E-09  1498948.6      1498933.5     5.08702380E-03  15.063592    
 2.69526477E-06 8.99771211E-09  1528647.1      1528632.0     5.22061664E-03  15.075299    
 2.71332047E-06 9.05798819E-09  1560383.6      1560368.5     5.36772640E-03  15.058967    
 2.73149713E-06 9.11866806E-09  1591415.4      1591400.3     5.50952234E-03  15.068641    
 2.74979555E-06 9.17975443E-09  1623528.1      1623513.0     5.65828248E-03  15.069474    
 2.76821656E-06 9.24125002E-09  1656756.2      1656741.1     5.81437327E-03  15.061938    
 2.78676096E-06 9.30315757E-09  1689581.9      1689566.8     5.96708617E-03  15.073665    
 2.80542960E-06 9.36547984E-09  1724415.9      1724400.9     6.13349652E-03  15.061553    
 2.82422330E-06 9.42821962E-09  1758954.9      1758939.8     6.29728947E-03  15.066995    
 2.84314290E-06 9.49137968E-09  1794195.5      1794180.4     6.46549995E-03  15.072060    
 2.86218924E-06 9.55496287E-09  1831170.9      1831155.8     6.64571669E-03  15.060282    
 2.88136318E-06 9.61897199E-09  1867453.0      1867437.9     6.82028603E-03  15.072027    
 2.90066556E-06 9.68340992E-09  1905685.0      1905669.9     7.00851133E-03  15.064139    
 2.92009725E-06 9.74827952E-09  1944125.2      1944110.1     7.19769001E-03  15.065347    
 2.93965911E-06 9.81358368E-09  1982796.6      1982781.5     7.38787441E-03  15.074647    
 2.95935202E-06 9.87932532E-09  2023939.3      2023924.3     7.59592227E-03  15.058622    
 2.97917685E-06 9.94550737E-09  2064041.5      2064026.4     7.79547601E-03  15.070387    
 2.99913449E-06 1.00121328E-08  2106001.1      2105986.0     8.00835542E-03  15.066725    
 3.01922583E-06 1.00792045E-08  2148780.5      2148765.5     8.22682753E-03  15.063696    
 3.03945176E-06 1.01467255E-08  2191348.6      2191333.5     8.44287418E-03  15.075402    
 3.05981319E-06 1.02146989E-08  2236856.9      2236841.9     8.68093652E-03  15.058805    
 3.08031101E-06 1.02831276E-08  2281316.1      2281301.0     8.91009760E-03  15.068744    
 3.10094616E-06 1.03520148E-08  2327364.4      2327349.3     9.15083662E-03  15.069311    
 3.12171953E-06 1.04213634E-08  2374970.2      2374955.1     9.40310788E-03  15.062042    
 3.14263207E-06 1.04911766E-08  2422019.8      2422004.7     9.65007545E-03  15.073767    
 3.16368471E-06 1.05614574E-08  2471969.1      2471954.0     9.91937273E-03  15.061390    
 3.18487837E-06 1.06322091E-08  2521452.1      2521437.0     1.01840859E-02  15.067099    
 3.20621402E-06 1.07034348E-08  2571985.1      2571970.0     1.04563031E-02  15.071898    
 3.22769259E-06 1.07751376E-08  2624958.6      2624943.5     1.07475683E-02  15.060386    
 3.24931505E-06 1.08473207E-08  2676961.2      2676946.1     1.10298821E-02  15.072130    
 3.27108236E-06 1.09199874E-08  2731782.3      2731767.2     1.13344836E-02  15.063976    
 3.29299549E-06 1.09931409E-08  2786853.5      2786838.4     1.16402261E-02  15.065450    
 3.31505541E-06 1.10667844E-08  2842305.2      2842290.1     1.19480059E-02  15.074484    
 3.33726312E-06 1.11409213E-08  2901248.1      2901233.1     1.22842538E-02  15.058727    
 3.35961959E-06 1.12155548E-08  2958724.9      2958709.8     1.26069723E-02  15.070490    
 3.38212584E-06 1.12906884E-08  3018890.0      3018874.9     1.29514731E-02  15.066562    
 3.40478285E-06 1.13663252E-08  3080176.8      3080161.7     1.33045608E-02  15.063800    
 3.42759164E-06 1.14424687E-08  3141187.1      3141172.0     1.36539515E-02  15.075505    
 3.45055323E-06 1.15191223E-08  3206438.9      3206423.8     1.40391984E-02  15.058642    
 3.47366865E-06 1.15962894E-08  3270131.1      3270116.0     1.44095524E-02  15.068847    
 3.49693891E-06 1.16739735E-08  3336157.9      3336142.8     1.47991405E-02  15.069148    
 3.52036506E-06 1.17521780E-08  3404357.6      3404342.6     1.52068562E-02  15.062146    
 3.54394814E-06 1.18309064E-08  3471789.7      3471774.6     1.56062521E-02  15.073870    
 3.56768921E-06 1.19101621E-08  3543408.0      3543393.0     1.60420476E-02  15.061228    
 3.59158932E-06 1.19899488E-08  3614296.0      3614280.9     1.64698616E-02  15.067202    
 3.61564954E-06 1.20702701E-08  3686752.1      3686737.0     1.69103935E-02  15.071735    
 3.63987094E-06 1.21511293E-08  3762640.1      3762625.0     1.73811338E-02  15.060490    
 3.66425460E-06 1.22325303E-08  3837169.4      3837154.3     1.78376912E-02  15.072233    
 3.68880161E-06 1.23144766E-08  3915771.6      3915756.5     1.83306214E-02  15.063813    
 3.71351306E-06 1.23969718E-08  3994663.4      3994648.3     1.88247482E-02  15.079058    
 3.73839005E-06 1.24800197E-08  4074171.0      4074155.7     1.93228344E-02  15.253952    
 3.76343369E-06 1.25636239E-08  4158609.4      4158593.7     1.98662789E-02  15.676783    
 3.78864510E-06 1.26477882E-08  4240982.7      4240966.6     2.03881786E-02  16.100754    
 3.81402541E-06 1.27325163E-08  4327246.1      4327229.6     2.09456801E-02  16.545606    
 3.83957574E-06 1.28178120E-08  4415040.6      4415023.6     2.15163283E-02  16.991320    
 3.86529723E-06 1.29036791E-08  4502477.0      4502459.5     2.20813620E-02  17.424901    
 3.89119103E-06 1.29901214E-08  4596030.9      4596013.0     2.27047907E-02  17.893921    
 3.91725829E-06 1.30771428E-08  4687269.6      4687251.2     2.33033296E-02  18.355434    
 3.94350018E-06 1.31647472E-08  4781935.8      4781916.9     2.39337989E-02  18.851443    
 3.96991787E-06 1.32529384E-08  4879631.2      4879611.8     2.45927395E-02  19.360861    
 3.99651253E-06 1.33417205E-08  4976268.6      4976248.7     2.52386412E-02  19.851382    
 4.02328535E-06 1.34310972E-08  5078948.5      5078928.1     2.59438745E-02  20.374784    
 4.05023752E-06 1.35210728E-08  5180492.9      5180472.0     2.66352812E-02  20.878732    
 4.07737024E-06 1.36116511E-08  5284375.1      5284353.7     2.73481970E-02  21.390824    
 4.10468473E-06 1.37028361E-08  5393081.3      5393059.3     2.81090015E-02  21.950636    
 4.13218219E-06 1.37946320E-08  5499887.2      5499864.7     2.88473445E-02  22.504955    
