 OPTXAGNF AGN Spectrum Model Parameters: NLS, Astar 0.0                          
 M_BH:  2.0000E+06 M_0            L  :  1.0000E-02 L/Ledd 
 D   :  1.5000E+18 cm             z  :   0.000     redshift 
 Rcor:   40.00     Rg             Ro :   4.000     Rg 
 C_T :  0.2000     keV            Tau:   15.00     Optical Depth 
 gam :   2.200     (-slope)       fpl:  0.2000     Fraction 
 E              0.5DeltaE      E.FE total     E.FE Disk      E.FE Compton   E.FE NonThermal
 (keV)          (keV)          E.E/cm2/s/E    E.E/cm2/s/E    E.E/cm2/s/E    E.E/cm2/s/E    
 1.00334952E-06 3.34952256E-09  25205.702      25205.270     5.02541547E-04 0.43126120    
 1.01007101E-06 3.37196116E-09  25705.110      25704.669     5.15744649E-04 0.44053094    
 1.01683752E-06 3.39455008E-09  26225.550      26225.099     5.29743969E-04 0.45061327    
 1.02364936E-06 3.41729032E-09  26760.353      26759.892     5.44281699E-04 0.46106563    
 1.03050683E-06 3.44018290E-09  27290.467      27289.996     5.58576022E-04 0.47123216    
 1.03741024E-06 3.46322884E-09  27854.962      27854.479     5.74233997E-04 0.48200187    
 1.04435990E-06 3.48642917E-09  28410.813      28410.320     5.89486239E-04 0.49239606    
 1.05135611E-06 3.50978492E-09  28981.948      28981.444     6.05316725E-04 0.50295949    
 1.05839920E-06 3.53329712E-09  29577.062      29576.547     6.22102385E-04 0.51409068    
 1.06548946E-06 3.55696684E-09  30162.980      30162.454     6.38442490E-04 0.52543035    
 1.07262722E-06 3.58079512E-09  30782.541      30782.003     6.56153885E-04 0.53753906    
 1.07981280E-06 3.60478303E-09  31401.177      31400.627     6.73771064E-04 0.54940862    
 1.08704652E-06 3.62893164E-09  32027.914      32027.352     6.91670417E-04 0.56127668    
 1.09432869E-06 3.65324201E-09  32690.102      32689.528     7.11049352E-04 0.57369972    
 1.10165965E-06 3.67771524E-09  33337.695      33337.108     7.29728013E-04 0.58564016    
 1.10903971E-06 3.70235243E-09  34017.660      34017.061     7.49760198E-04 0.59836052    
 1.11646922E-06 3.72715465E-09  34706.131      34705.519     7.70106487E-04 0.61178513    
 1.12394850E-06 3.75212303E-09  35393.848      35393.222     7.90342981E-04 0.62511295    
 1.13147788E-06 3.77725867E-09  36130.628      36129.988     8.12713298E-04 0.63930981    
 1.13905770E-06 3.80256270E-09  36846.383      36845.729     8.34065186E-04 0.65281499    
 1.14668830E-06 3.82803623E-09  37592.607      37591.939     8.56720048E-04 0.66676174    
 1.15437002E-06 3.85368042E-09  38358.749      38358.067     8.80215371E-04 0.68090559    
 1.16210319E-06 3.87949640E-09  39118.502      39117.806     9.03331956E-04 0.69511567    
 1.16988818E-06 3.90548532E-09  39927.870      39927.158     9.28670506E-04 0.71098467    
 1.17772531E-06 3.93164835E-09  40724.153      40723.426     9.53320008E-04 0.72639550    
 1.18561494E-06 3.95798663E-09  41543.052      41542.309     9.78938361E-04 0.74207455    
 1.19355743E-06 3.98450137E-09  42395.576      42394.817     1.00606688E-03 0.75820602    
 1.20155313E-06 4.01119372E-09  43235.289      43234.514     1.03249186E-03 0.77383827    
 1.20960239E-06 4.03806489E-09  44123.594      44122.803     1.06115351E-03 0.79021470    
 1.21770557E-06 4.06511607E-09  45009.801      45008.993     1.08962525E-03 0.80692916    
 1.22586303E-06 4.09234846E-09  45908.407      45907.581     1.11859180E-03 0.82446671    
 1.23407514E-06 4.11976329E-09  46856.998      46856.154     1.14991170E-03 0.84290133    
 1.24234227E-06 4.14736177E-09  47785.080      47784.219     1.18011854E-03 0.86059899    
 1.25066478E-06 4.17514513E-09  48759.976      48759.095     1.21253601E-03 0.87901346    
 1.25904304E-06 4.20311462E-09  49746.200      49745.301     1.24541858E-03 0.89736619    
 1.26747742E-06 4.23127147E-09  50732.219      50731.303     1.27816753E-03 0.91547717    
 1.27596831E-06 4.25961695E-09  51787.639      51786.702     1.31432227E-03 0.93554358    
 1.28451608E-06 4.28815232E-09  52813.383      52812.426     1.34885219E-03 0.95556126    
 1.29312111E-06 4.31687884E-09  53883.257      53882.279     1.38551406E-03 0.97627480    
 1.30178379E-06 4.34579781E-09  54980.719      54979.721     1.42348618E-03 0.99723410    
 1.31050450E-06 4.37491051E-09  56069.501      56068.482     1.46086991E-03  1.0177202    
 1.31928362E-06 4.40421823E-09  57229.868      57228.827     1.50187395E-03  1.0393154    
 1.32812156E-06 4.43372228E-09  58370.486      58369.424     1.54171046E-03  1.0603089    
 1.33701871E-06 4.46342399E-09  59544.531      59543.447     1.58316831E-03  1.0826570    
 1.34597546E-06 4.49332467E-09  60765.705      60764.596     1.62701254E-03  1.1065611    
 1.35499221E-06 4.52342565E-09  61969.046      61967.914     1.66974651E-03  1.1297550    
 1.36406936E-06 4.55372829E-09  63242.560      63241.404     1.71612839E-03  1.1540722    
 1.37320733E-06 4.58423392E-09  64511.957      64510.777     1.76214240E-03  1.1779283    
 1.38240650E-06 4.61494391E-09  65800.252      65799.048     1.80901887E-03  1.2018448    
 1.39166731E-06 4.64585962E-09  67158.997      67157.768     1.85963740E-03  1.2269103    
 1.40099015E-06 4.67698245E-09  68488.940      68487.686     1.90848728E-03  1.2523571    
 1.41037545E-06 4.70831376E-09  69886.565      69885.283     1.96094731E-03  1.2796690    
 1.41982361E-06 4.73985497E-09  71299.192      71297.883     2.01409017E-03  1.3069091    
 1.42933508E-06 4.77160747E-09  72712.783      72711.447     2.06708798E-03  1.3337964    
 1.43891026E-06 4.80357269E-09  74224.509      74223.145     2.12552083E-03  1.3622294    
 1.44854958E-06 4.83575204E-09  75694.363      75692.971     2.18136187E-03  1.3894498    
 1.45825348E-06 4.86814696E-09  77228.115      77226.695     2.24069078E-03  1.4177786    
 1.46802239E-06 4.90075889E-09  78800.034      78798.583     2.30205947E-03  1.4480500    
 1.47785673E-06 4.93358930E-09  80360.196      80358.715     2.36251560E-03  1.4784139    
 1.48775696E-06 4.96663964E-09  82023.625      82022.112     2.42887004E-03  1.5105330    
 1.49772351E-06 4.99991138E-09  83657.328      83655.784     2.49325032E-03  1.5415468    
 1.50775683E-06 5.03340601E-09  85340.384      85338.808     2.56034081E-03  1.5731309    
 1.51785736E-06 5.06712502E-09  87089.447      87087.839     2.63120017E-03  1.6055035    
 1.52802556E-06 5.10106992E-09  88813.716      88812.076     2.70030853E-03  1.6374356    
 1.53826187E-06 5.13524222E-09  90639.304      90637.628     2.77536601E-03  1.6726984    
 1.54856676E-06 5.16964344E-09  92457.407      92455.696     2.84973033E-03  1.7081048    
 1.55894067E-06 5.20427512E-09  94304.206      94302.459     2.92559009E-03  1.7436273    
 1.56938409E-06 5.23913879E-09  96250.258      96248.474     3.00739832E-03  1.7806107    
 1.57989746E-06 5.27423602E-09  98155.883      98154.063     3.08639712E-03  1.8162884    
 1.59048127E-06 5.30956836E-09  100159.33      100157.48     3.17129101E-03  1.8533397    
 1.60113597E-06 5.34513740E-09  102182.52      102180.62     3.25717701E-03  1.8909666    
 1.61186206E-06 5.38094472E-09  104208.88      104206.95     3.34294337E-03  1.9301180    
 1.62265999E-06 5.41699191E-09  106373.98      106372.00     3.43738147E-03  1.9723951    
 1.63353026E-06 5.45328058E-09  108480.02      108478.00     3.52768610E-03  2.0127915    
 1.64447336E-06 5.48981235E-09  110678.55      110676.50     3.62369611E-03  2.0545071    
 1.65548976E-06 5.52658885E-09  112929.81      112927.71     3.72287683E-03  2.0966236    
 1.66657996E-06 5.56361172E-09  115165.20      115163.06     3.82064479E-03  2.1379341    
 1.67774445E-06 5.60088261E-09  117549.53      117547.34     3.92802191E-03  2.1823583    
 1.68898374E-06 5.63840317E-09  119889.23      119887.00     4.03206728E-03  2.2278349    
 1.70029832E-06 5.67617509E-09  122301.73      122299.45     4.14063818E-03  2.2747711    
 1.71168869E-06 5.71420004E-09  124806.61      124804.28     4.25515792E-03  2.3228796    
 1.72315537E-06 5.75247973E-09  127277.06      127274.68     4.36691792E-03  2.3696444    
 1.73469887E-06 5.79101585E-09  129893.76      129891.33     4.48837921E-03  2.4185704    
 1.74631969E-06 5.82981012E-09  132497.46      132494.99     4.60856069E-03  2.4666256    
 1.75801837E-06 5.86886429E-09  135144.59      135142.07     4.73132335E-03  2.5160442    
 1.76979541E-06 5.90818007E-09  137931.50      137928.92     4.86353898E-03  2.5705196    
 1.78165135E-06 5.94775924E-09  140661.70      140659.07     4.99129338E-03  2.6234703    
 1.79358672E-06 5.98760354E-09  143533.26      143530.58     5.12867307E-03  2.6785776    
 1.80560203E-06 6.02771477E-09  146430.57      146427.83     5.26747585E-03  2.7333687    
 1.81769784E-06 6.06809470E-09  149335.01      149332.22     5.40627098E-03  2.7876241    
 1.82987468E-06 6.10874514E-09  152435.50      152432.65     5.55889948E-03  2.8447412    
 1.84213310E-06 6.14966790E-09  155452.72      155449.82     5.70493716E-03  2.9014488    
 1.85447363E-06 6.19086481E-09  158603.82      158600.85     5.86030634E-03  2.9630788    
 1.86689683E-06 6.23233769E-09  161827.63      161824.60     6.02059611E-03  3.0256549    
 1.87940326E-06 6.27408840E-09  165030.12      165027.02     6.17870314E-03  3.0869543    
 1.89199346E-06 6.31611880E-09  168447.37      168444.21     6.35246389E-03  3.1515759    
 1.90466801E-06 6.35843077E-09  171797.76      171794.54     6.52061153E-03  3.2140312    
 1.91742747E-06 6.40102618E-09  175255.41      175252.13     6.69630842E-03  3.2776992    
 1.93027240E-06 6.44390694E-09  178842.29      178838.93     6.88138932E-03  3.3455687    
 1.94320339E-06 6.48707497E-09  182381.40      182377.98     7.06212361E-03  3.4147514    
 1.95622099E-06 6.53053217E-09  186131.57      186128.07     7.25867672E-03  3.4875647    
 1.96932581E-06 6.57428050E-09  189859.88      189856.31     7.45290322E-03  3.5588347    
 1.98251841E-06 6.61832191E-09  193653.71      193650.08     7.65156727E-03  3.6304867    
 1.99579939E-06 6.66265834E-09  197644.29      197640.57     7.86524862E-03  3.7047986    
 2.00916934E-06 6.70729179E-09  201555.36      201551.57     8.07184826E-03  3.7769105    
 2.02262885E-06 6.75222424E-09  205670.67      205666.81     8.29416220E-03  3.8551366    
 2.03617854E-06 6.79745770E-09  209819.25      209815.30     8.51848424E-03  3.9363331    
 2.04981899E-06 6.84299417E-09  213981.73      213977.71     8.74309449E-03  4.0169106    
 2.06355082E-06 6.88883570E-09  218421.15      218417.04     8.98976770E-03  4.1018343    
 2.07737464E-06 6.93498432E-09  222743.24      222739.05     9.22593409E-03  4.1832980    
 2.09129106E-06 6.98144209E-09  227259.01      227254.73     9.47736070E-03  4.2673677    
 2.10530072E-06 7.02821109E-09  231874.91      231870.55     9.73640993E-03  4.3525678    
 2.11940422E-06 7.07529339E-09  236462.28      236457.83     9.99209417E-03  4.4401494    
 2.13360221E-06 7.12269110E-09  241359.25      241354.71     1.02732775E-02  4.5361348    
 2.14789530E-06 7.17040633E-09  246156.30      246151.66     1.05450195E-02  4.6288193    
 2.16228415E-06 7.21844121E-09  251111.24      251106.50     1.08293429E-02  4.7234636    
 2.17676939E-06 7.26679787E-09  256246.78      256241.94     1.11284597E-02  4.8202002    
 2.19135167E-06 7.31547848E-09  261316.13      261311.21     1.14207355E-02  4.9145081    
 2.20603163E-06 7.36448520E-09  266690.00      266684.98     1.17388034E-02  5.0138125    
 2.22080994E-06 7.41382021E-09  272027.92      272022.80     1.20526933E-02  5.1164531    
 2.23568724E-06 7.46348573E-09  277464.44      277459.21     1.23741852E-02  5.2227155    
 2.25066421E-06 7.51348396E-09  283177.74      283172.39     1.27195264E-02  5.3332490    
 2.26574151E-06 7.56381713E-09  288779.67      288774.22     1.30536300E-02  5.4400362    
 2.28091982E-06 7.61448748E-09  294676.57      294671.01     1.34133866E-02  5.5510690    
 2.29619980E-06 7.66549727E-09  300615.94      300610.27     1.37759162E-02  5.6613471    
 2.31158215E-06 7.71684879E-09  306580.51      306574.73     1.41393981E-02  5.7718645    
 2.32706754E-06 7.76854430E-09  312936.15      312930.24     1.45380613E-02  5.8946569    
 2.34265667E-06 7.82058613E-09  319126.53      319120.49     1.49199785E-02  6.0155485    
 2.35835023E-06 7.87297659E-09  325597.02      325590.87     1.53268482E-02  6.1405892    
 2.37414893E-06 7.92571802E-09  332205.17      332198.88     1.57455034E-02  6.2664913    
 2.39005346E-06 7.97881276E-09  338775.31      338768.91     1.61589836E-02  6.3901166    
 2.40606454E-06 8.03226319E-09  345791.68      345785.14     1.66139981E-02  6.5202283    
 2.42218287E-06 8.08607168E-09  352658.99      352652.32     1.70531557E-02  6.6480606    
 2.43840918E-06 8.14024064E-09  359758.48      359751.68     1.75132628E-02  6.7854460    
 2.45474420E-06 8.19477248E-09  367110.20      367103.26     1.79966749E-02  6.9292800    
 2.47118864E-06 8.24966963E-09  374370.36      374363.27     1.84693285E-02  7.0692644    
 2.48774324E-06 8.30493454E-09  382069.73      382062.49     1.89840324E-02  7.2159417    
 2.50440875E-06 8.36056967E-09  389710.98      389703.60     1.94913078E-02  7.3594578    
 2.52118589E-06 8.41657750E-09  397500.19      397492.67     2.00115656E-02  7.5040076    
 2.53807543E-06 8.47296053E-09  405678.59      405670.92     2.05696856E-02  7.6564886    
 2.55507811E-06 8.52972128E-09  413701.11      413693.27     2.11099803E-02  7.8124908    
 2.57219470E-06 8.58686227E-09  422149.52      422141.52     2.16921483E-02  7.9777268    
 2.58942595E-06 8.64438604E-09  430651.34      430643.18     2.22780337E-02  8.1415450    
 2.60677263E-06 8.70229518E-09  439196.80      439188.48     2.28662451E-02  8.3041756    
 2.62423551E-06 8.76059224E-09  448294.24      448285.74     2.35105446E-02  8.4748936    
 2.64181539E-06 8.81927985E-09  457159.03      457150.37     2.41281599E-02  8.6392963    
 2.65951303E-06 8.87836060E-09  466428.83      466420.00     2.47865708E-02  8.8125167    
 2.67732922E-06 8.93783714E-09  475887.49      475878.46     2.54631650E-02  8.9975389    
 2.69526477E-06 8.99771211E-09  485295.86      485286.66     2.61318215E-02  9.1810420    
 2.71332047E-06 9.05798819E-09  495347.16      495337.75     2.68681275E-02  9.3748519    
 2.73149713E-06 9.11866806E-09  505176.53      505166.94     2.75778384E-02  9.5615697    
 2.74979555E-06 9.17975443E-09  515347.03      515337.25     2.83224035E-02  9.7524460    
 2.76821656E-06 9.24125002E-09  525869.44      525859.47     2.91036566E-02  9.9471737    
 2.78676096E-06 9.30315757E-09  536265.37      536255.19     2.98680037E-02  10.142369    
 2.80542960E-06 9.36547984E-09  547294.61      547284.22     3.07009030E-02  10.358977    
 2.82422330E-06 9.42821962E-09  558231.18      558220.58     3.15207023E-02  10.572066    
 2.84314290E-06 9.49137968E-09  569389.27      569378.45     3.23626099E-02  10.786885    
 2.86218924E-06 9.55496287E-09  581094.28      581083.23     3.32646050E-02  11.009188    
 2.88136318E-06 9.61897199E-09  592581.24      592569.98     3.41383360E-02  11.224563    
 2.90066556E-06 9.68340992E-09  604682.91      604671.42     3.50804105E-02  11.448336    
 2.92009725E-06 9.74827952E-09  616850.49      616838.78     3.60272558E-02  11.678601    
 2.93965911E-06 9.81358368E-09  629091.36      629079.41     3.69791340E-02  11.918834    
 2.95935202E-06 9.87932532E-09  642110.97      642098.76     3.80204119E-02  12.172926    
 2.97917685E-06 9.94550737E-09  654803.28      654790.83     3.90191794E-02  12.416803    
 2.99913449E-06 1.00121328E-08  668080.93      668068.22     4.00846363E-02  12.668911    
 3.01922583E-06 1.00792045E-08  681617.11      681604.15     4.11780817E-02  12.922310    
 3.03945176E-06 1.01467255E-08  695087.24      695074.03     4.22593883E-02  13.171738    
 3.05981319E-06 1.02146989E-08  709483.40      709469.91     4.34508733E-02  13.445689    
 3.08031101E-06 1.02831276E-08  723549.78      723536.01     4.45978107E-02  13.722042    
 3.10094616E-06 1.03520148E-08  738116.85      738102.80     4.58026900E-02  14.005862    
 3.12171953E-06 1.04213634E-08  753174.50      753160.16     4.70652819E-02  14.295256    
 3.14263207E-06 1.04911766E-08  768057.69      768043.07     4.83013308E-02  14.577590    
 3.16368471E-06 1.05614574E-08  783853.74      783838.82     4.96491279E-02  14.873126    
 3.18487837E-06 1.06322091E-08  799503.61      799488.40     5.09739829E-02  15.163371    
 3.20621402E-06 1.07034348E-08  815484.39      815468.87     5.23363913E-02  15.468836    
 3.22769259E-06 1.07751376E-08  832233.31      832217.46     5.37941235E-02  15.798525    
 3.24931505E-06 1.08473207E-08  848677.52      848661.35     5.52070577E-02  16.118220    
 3.27108236E-06 1.09199874E-08  866008.62      865992.12     5.67315286E-02  16.451279    
 3.29299549E-06 1.09931409E-08  883418.96      883402.12     5.82617080E-02  16.781113    
 3.31505541E-06 1.10667844E-08  900949.63      900932.46     5.98020825E-02  17.109341    
 3.33726312E-06 1.11409213E-08  919578.41      919560.89     6.14849210E-02  17.454884    
 3.35961959E-06 1.12155548E-08  937747.01      937729.14     6.31000519E-02  17.804683    
 3.38212584E-06 1.12906884E-08  956761.26      956743.01     6.48241884E-02  18.178737    
 3.40478285E-06 1.13663252E-08  976128.65      976110.03     6.65912954E-02  18.555352    
 3.42759164E-06 1.14424687E-08  995409.99      995391.00     6.83399002E-02  18.925463    
 3.45055323E-06 1.15191223E-08  1016024.6      1016005.2     7.02679384E-02  19.315869    
 3.47366865E-06 1.15962894E-08  1036150.0      1036130.2     7.21214475E-02  19.692069    
 3.49693891E-06 1.16739735E-08  1057009.6      1056989.5     7.40712075E-02  20.080146    
 3.52036506E-06 1.17521780E-08  1078552.4      1078531.9     7.61116812E-02  20.497153    
 3.54394814E-06 1.18309064E-08  1099855.1      1099834.1     7.81105192E-02  20.915716    
 3.56768921E-06 1.19101621E-08  1122473.0      1122451.6     8.02915072E-02  21.355821    
 3.59158932E-06 1.19899488E-08  1144862.5      1144840.6     8.24325526E-02  21.785004    
 3.61564954E-06 1.20702701E-08  1167745.2      1167722.9     8.46372392E-02  22.218426    
 3.63987094E-06 1.21511293E-08  1191706.0      1191683.3     8.69930908E-02  22.665639    
 3.66425460E-06 1.22325303E-08  1215241.4      1215218.2     8.92779687E-02  23.105209    
 3.68880161E-06 1.23144766E-08  1240055.9      1240032.2     9.17448579E-02  23.587208    
 3.71351306E-06 1.23969718E-08  1264962.2      1264938.0     9.42177333E-02  24.077169    
 3.73839005E-06 1.24800197E-08  1290062.7      1290038.1     9.67104208E-02  24.564763    
 3.76343369E-06 1.25636239E-08  1316710.9      1316685.8     9.94300815E-02  25.075764    
 3.78864510E-06 1.26477882E-08  1342712.5      1342686.9     0.10204193      25.567643    
 3.81402541E-06 1.27325163E-08  1369935.3      1369909.1     0.10483193      26.075959    
 3.83957574E-06 1.28178120E-08  1397639.2      1397612.5     0.10768771      26.594803    
 3.86529723E-06 1.29036791E-08  1425232.1      1425204.9     0.11051539      27.132663    
 3.89119103E-06 1.29901214E-08  1454743.9      1454716.1     0.11363528      27.714355    
 3.91725829E-06 1.30771428E-08  1483531.3      1483502.9     0.11663062      28.272619    
 3.94350018E-06 1.31647472E-08  1513394.2      1513365.3     0.11978574      28.845082    
 3.96991787E-06 1.32529384E-08  1544207.6      1544178.0     0.12308332      29.427453    
 3.99651253E-06 1.33417205E-08  1574690.9      1574660.8     0.12631565      29.997027    
 4.02328535E-06 1.34310972E-08  1607068.6      1607037.8     0.12984487      30.604175    
 4.05023752E-06 1.35210728E-08  1639092.0      1639060.6     0.13330490      31.233007    
 4.07737024E-06 1.36116511E-08  1671849.1      1671817.1     0.13687255      31.877217    
 4.10468473E-06 1.37028361E-08  1706118.3      1706085.6     0.14067983      32.542534    
 4.13218219E-06 1.37946320E-08  1739794.1      1739760.8     0.14437471      33.187336    
