 OPTXAGNF AGN Spectrum Model Parameters: BLS, Astar 0.0                          
 M_BH:  2.0000E+07 M_0            L  :  2.0000E-02 L/Ledd 
 D   :  1.5000E+18 cm             z  :   0.000     redshift 
 Rcor:   60.00     Rg             Ro :   4.000     Rg 
 C_T :  0.2000     keV            Tau:   15.00     Optical Depth 
 gam :   1.800     (-slope)       fpl:  0.5000     Fraction 
 E              0.5DeltaE      E.FE total     E.FE Disk      E.FE Compton   E.FE NonThermal
 (keV)          (keV)          E.E/cm2/s/E    E.E/cm2/s/E    E.E/cm2/s/E    E.E/cm2/s/E    
 1.00334952E-06 3.34952256E-09  1669304.5      1669174.9     0.65130931      128.97692    
 1.01007101E-06 3.37196116E-09  1702359.4      1702227.2     0.66841982      131.51971    
 1.01683752E-06 3.39455008E-09  1736804.8      1736670.0     0.68656210      134.13645    
 1.02364936E-06 3.41729032E-09  1772199.9      1772062.4     0.70540208      136.80725    
 1.03050683E-06 3.44018290E-09  1807285.5      1807145.2     0.72392663      139.56910    
 1.03741024E-06 3.46322884E-09  1844643.9      1844500.6     0.74421825      142.56219    
 1.04435990E-06 3.48642917E-09  1881431.4      1881285.1     0.76398410      145.46357    
 1.05135611E-06 3.50978492E-09  1919229.3      1919080.1     0.78449925      148.40963    
 1.05839920E-06 3.53329712E-09  1958612.4      1958460.2     0.80625213      151.43609    
 1.06548946E-06 3.55696684E-09  1997388.0      1997232.8     0.82742764      154.38004    
 1.07262722E-06 3.58079512E-09  2038387.4      2038229.1     0.85038010      157.48116    
 1.07981280E-06 3.60478303E-09  2079326.3      2079164.7     0.87321046      160.72455    
 1.08704652E-06 3.62893164E-09  2120800.9      2120635.9     0.89640646      164.03638    
 1.09432869E-06 3.65324201E-09  2164618.6      2164450.2     0.92151970      167.49499    
 1.10165965E-06 3.67771524E-09  2207472.2      2207300.4     0.94572552      170.82873    
 1.10903971E-06 3.70235243E-09  2252465.5      2252290.2     0.97168523      174.28510    
 1.11646922E-06 3.72715465E-09  2298021.0      2297842.3     0.99805194      177.73602    
 1.12394850E-06 3.75212303E-09  2343527.3      2343345.1      1.0242764      181.19313    
 1.13147788E-06 3.77725867E-09  2392276.0      2392089.9      1.0532658      185.07034    
 1.13905770E-06 3.80256270E-09  2439636.0      2439446.0      1.0809355      188.84535    
 1.14668830E-06 3.82803623E-09  2489009.6      2488815.7      1.1102936      192.73784    
 1.15437002E-06 3.85368042E-09  2539699.6      2539501.8      1.1407407      196.67816    
 1.16210319E-06 3.87949640E-09  2589968.0      2589766.3      1.1706971      200.53779    
 1.16988818E-06 3.90548532E-09  2643514.7      2643308.9      1.2035326      204.58835    
 1.17772531E-06 3.93164835E-09  2696197.5      2695987.6      1.2354753      208.61805    
 1.18561494E-06 3.95798663E-09  2750375.1      2750160.9      1.2686733      212.92636    
 1.19355743E-06 3.98450137E-09  2806774.6      2806555.9      1.3038282      217.42844    
 1.20155313E-06 4.01119372E-09  2862328.3      2862105.2      1.3380714      221.79903    
 1.20960239E-06 4.03806489E-09  2921092.5      2920864.8      1.3752127      226.36535    
 1.21770557E-06 4.06511607E-09  2979718.5      2979486.2      1.4121080      230.85768    
 1.22586303E-06 4.09234846E-09  3039164.1      3038927.3      1.4496444      235.35923    
 1.23407514E-06 4.11976329E-09  3101912.0      3101670.3      1.4902301      240.17335    
 1.24234227E-06 4.14736177E-09  3163306.0      3163059.4      1.5293736      245.07052    
 1.25066478E-06 4.17514513E-09  3227792.8      3227541.0      1.5713814      250.21451    
 1.25904304E-06 4.20311462E-09  3293028.2      3292771.3      1.6139919      255.34288    
 1.26747742E-06 4.23127147E-09  3358251.0      3357988.9      1.6564292      260.40729    
 1.27596831E-06 4.25961695E-09  3428057.6      3427790.1      1.7032794      265.74931    
 1.28451608E-06 4.28815232E-09  3495905.0      3495632.3      1.7480243      270.88761    
 1.29312111E-06 4.31687884E-09  3566667.5      3566389.4      1.7955316      276.33427    
 1.30178379E-06 4.34579781E-09  3639252.9      3638968.9      1.8447365      282.14656    
 1.31050450E-06 4.37491051E-09  3711265.8      3710976.0      1.8931791      287.87633    
 1.31928362E-06 4.40421823E-09  3788006.4      3787710.6      1.9463124      293.91028    
 1.32812156E-06 4.43372228E-09  3863443.7      3863141.9      1.9979330      299.75622    
 1.33701871E-06 4.46342399E-09  3941088.9      3940781.2      2.0516543      305.70047    
 1.34597546E-06 4.49332467E-09  4021846.5      4021532.6      2.1084675      311.80725    
 1.35499221E-06 4.52342565E-09  4101427.8      4101107.7      2.1638422      317.96618    
 1.36406936E-06 4.55372829E-09  4185643.2      4185316.2      2.2239434      324.72474    
 1.37320733E-06 4.58423392E-09  4269587.6      4269253.9      2.2835679      331.39698    
 1.38240650E-06 4.61494391E-09  4354780.6      4354440.2      2.3443098      338.08644    
 1.39166731E-06 4.64585962E-09  4444625.3      4444277.8      2.4099001      345.04432    
 1.40099015E-06 4.67698245E-09  4532569.5      4532215.2      2.4731988      351.76943    
 1.41037545E-06 4.70831376E-09  4624982.3      4624621.0      2.5411750      358.75646    
 1.41982361E-06 4.73985497E-09  4718386.7      4718018.0      2.6100359      366.03342    
 1.42933508E-06 4.77160747E-09  4811856.1      4811479.9      2.6787087      373.53074    
 1.43891026E-06 4.80357269E-09  4911803.9      4911419.6      2.7544234      381.48445    
 1.44854958E-06 4.83575204E-09  5008988.9      5008597.0      2.8267800      389.09972    
 1.45825348E-06 4.86814696E-09  5110392.5      5109992.7      2.9036556      396.95074    
 1.46802239E-06 4.90075889E-09  5214315.9      5213908.0      2.9831739      404.88264    
 1.47785673E-06 4.93358930E-09  5317464.6      5317048.9      3.0615098      412.68620    
 1.48775696E-06 4.96663964E-09  5427429.8      5427005.3      3.1474876      421.29683    
 1.49772351E-06 4.99991138E-09  5535434.7      5535001.5      3.2309075      429.97449    
 1.50775683E-06 5.03340601E-09  5646697.7      5646255.6      3.3178388      438.81235    
 1.51785736E-06 5.06712502E-09  5762317.4      5761866.2      3.4096530      447.87184    
 1.52802556E-06 5.10106992E-09  5876302.6      5875842.4      3.4991986      456.68811    
 1.53826187E-06 5.13524222E-09  5996974.0      5996504.5      3.5964517      465.89210    
 1.54856676E-06 5.16964344E-09  6117152.8      6116674.1      3.6928067      474.99279    
 1.55894067E-06 5.20427512E-09  6239227.0      6238738.6      3.7910990      484.59926    
 1.56938409E-06 5.23913879E-09  6367850.9      6367352.1      3.8970980      494.94878    
 1.57989746E-06 5.27423602E-09  6493809.4      6493300.4      3.9994571      504.93187    
 1.59048127E-06 5.30956836E-09  6626222.9      6625703.5      4.1094536      515.30358    
 1.60113597E-06 5.34513740E-09  6759939.4      6759409.6      4.2207354      525.62971    
 1.61186206E-06 5.38094472E-09  6893867.7      6893327.5      4.3318621      535.85332    
 1.62265999E-06 5.41699191E-09  7036948.0      7036396.9      4.4542233      546.69617    
 1.63353026E-06 5.45328058E-09  7176135.3      7175573.0      4.5712294      557.73061    
 1.64447336E-06 5.48981235E-09  7321425.7      7320851.6      4.6956269      569.39741    
 1.65548976E-06 5.52658885E-09  7470194.9      7469608.8      4.8241320      581.18920    
 1.66657996E-06 5.56361172E-09  7617919.6      7617321.9      4.9508069      592.74666    
 1.67774445E-06 5.60088261E-09  7775468.3      7774858.3      5.0899304      604.90495    
 1.68898374E-06 5.63840317E-09  7930075.6      7929453.7      5.2247375      616.68321    
 1.70029832E-06 5.67617509E-09  8089485.5      8088851.3      5.3654074      628.81862    
 1.71168869E-06 5.71420004E-09  8254990.0      8254342.5      5.5137839      641.99601    
 1.72315537E-06 5.75247973E-09  8418226.6      8417565.8      5.6585851      655.07542    
 1.73469887E-06 5.79101585E-09  8591108.1      8590433.5      5.8159541      668.78014    
 1.74631969E-06 5.82981012E-09  8763134.9      8762446.7      5.9716649      682.21843    
 1.75801837E-06 5.86886429E-09  8938027.6      8937325.8      6.1307196      695.71780    
 1.76979541E-06 5.90818007E-09  9122136.9      9121420.9      6.3020201      709.71573    
 1.78165135E-06 5.94775924E-09  9302510.5      9301780.5      6.4675411      723.52782    
 1.79358672E-06 5.98760354E-09  9492206.4      9491461.1      6.6455312      738.65944    
 1.80560203E-06 6.02771477E-09  9683601.9      9682841.0      6.8253647      754.00208    
 1.81769784E-06 6.06809470E-09  9875470.5      9874694.4      7.0051882      769.18694    
 1.82987468E-06 6.10874514E-09  10080263.      10079471.      7.2029317      785.18280    
 1.84213310E-06 6.14966790E-09  10279571.      10278763.      7.3921372      800.54283    
 1.85447363E-06 6.19086481E-09  10487704.      10486880.      7.5934308      816.37564    
 1.86689683E-06 6.23233769E-09  10700633.      10699792.      7.8010985      832.74972    
 1.87940326E-06 6.27408840E-09  10912160.      10911302.      8.0059384      849.65339    
 1.89199346E-06 6.31611880E-09  11137843.      11136967.      8.2310562      867.76616    
 1.90466801E-06 6.35843077E-09  11359123.      11358229.      8.4489025      885.24816    
 1.91742747E-06 6.40102618E-09  11587474.      11586563.      8.6765279      903.07697    
 1.93027240E-06 6.44390694E-09  11824343.      11823413.      8.9163090      921.30752    
 1.94320339E-06 6.48707497E-09  12058068.      12057120.      9.1504595      939.10197    
 1.95622099E-06 6.53053217E-09  12305702.      12304734.      9.4051010      958.19380    
 1.96932581E-06 6.57428050E-09  12551900.      12550912.      9.6567285      977.96463    
 1.98251841E-06 6.61832191E-09  12802419.      12801411.      9.9141041      998.02543    
 1.99579939E-06 6.66265834E-09  13065901.      13064872.      10.190932      1018.8542    
 2.00916934E-06 6.70729179E-09  13324150.      13323101.      10.458587      1038.9895    
 2.02262885E-06 6.75222424E-09  13595856.      13594785.      10.746596      1059.8989    
 2.03617854E-06 6.79745770E-09  13869756.      13868665.      11.037207      1080.7325    
 2.04981899E-06 6.84299417E-09  14144578.      14143465.      11.328191      1102.0024    
 2.06355082E-06 6.88883570E-09  14437643.      14436505.      11.647753      1125.6402    
 2.07737464E-06 6.93498432E-09  14722985.      14721825.      11.953705      1148.4398    
 2.09129106E-06 6.98144209E-09  15021087.      15019902.      12.279423      1171.9919    
 2.10530072E-06 7.02821109E-09  15325786.      15324577.      12.615015      1195.7268    
 2.11940422E-06 7.07529339E-09  15628611.      15627379.      12.946248      1219.0368    
 2.13360221E-06 7.12269110E-09  15951825.      15950568.      13.310509      1243.5849    
 2.14789530E-06 7.17040633E-09  16268466.      16267184.      13.662540      1268.2855    
 2.16228415E-06 7.21844121E-09  16595508.      16594200.      14.030868      1294.6631    
 2.17676939E-06 7.26679787E-09  16934445.      16933109.      14.418357      1321.7755    
 2.19135167E-06 7.31547848E-09  17269031.      17267668.      14.796984      1348.1702    
 2.20603163E-06 7.36448520E-09  17623666.      17622275.      15.209018      1375.7902    
 2.22080994E-06 7.41382021E-09  17975940.      17974521.      15.615640      1402.8555    
 2.23568724E-06 7.46348573E-09  18334710.      18333263.      16.032109      1430.1263    
 2.25066421E-06 7.51348396E-09  18711701.      18710225.      16.479467      1459.7015    
 2.26574151E-06 7.56381713E-09  19081373.      19079866.      16.912269      1489.5506    
 2.28091982E-06 7.61448748E-09  19470461.      19468923.      17.378297      1520.6704    
 2.29619980E-06 7.66549727E-09  19862349.      19860780.      17.847916      1551.5604    
 2.31158215E-06 7.71684879E-09  20255904.      20254304.      18.318769      1582.2091    
 2.32706754E-06 7.76854430E-09  20675194.      20673560.      18.835187      1614.3796    
 2.34265667E-06 7.82058613E-09  21083619.      21081954.      19.329915      1645.4689    
 2.35835023E-06 7.87297659E-09  21510481.      21508782.      19.856961      1679.1292    
 2.37414893E-06 7.92571802E-09  21946406.      21944672.      20.399270      1714.3891    
 2.39005346E-06 7.97881276E-09  22379841.      22378071.      20.934876      1748.9887    
 2.40606454E-06 8.03226319E-09  22842633.      22840826.      21.524275      1785.4811    
 2.42218287E-06 8.08607168E-09  23295629.      23293787.      22.093136      1820.6999    
 2.43840918E-06 8.14024064E-09  23763905.      23762026.      22.689129      1856.6610    
 2.45474420E-06 8.19477248E-09  24248775.      24246858.      23.315304      1893.6179    
 2.47118864E-06 8.24966963E-09  24727636.      24725681.      23.927545      1931.6101    
 2.48774324E-06 8.30493454E-09  25235388.      25233390.      24.594245      1972.6841    
 2.50440875E-06 8.36056967E-09  25739327.      25737289.      25.251323      2012.8717    
 2.52118589E-06 8.41657750E-09  26253006.      26250926.      25.925215      2053.3483    
 2.53807543E-06 8.47296053E-09  26792279.      26790157.      26.648139      2095.2488    
 2.55507811E-06 8.52972128E-09  27321315.      27319152.      27.347979      2135.8567    
 2.57219470E-06 8.58686227E-09  27878357.      27876151.      28.102045      2178.4328    
 2.58942595E-06 8.64438604E-09  28438924.      28436672.      28.860925      2223.1970    
 2.60677263E-06 8.70229518E-09  29002373.      29000074.      29.622817      2268.6685    
 2.62423551E-06 8.76059224E-09  29602108.      29599761.      30.457344      2316.5559    
 2.64181539E-06 8.81927985E-09  30186567.      30184173.      31.257313      2362.5370    
 2.65951303E-06 8.87836060E-09  30797653.      30795210.      32.110112      2410.0268    
 2.67732922E-06 8.93783714E-09  31421158.      31418668.      32.986458      2457.8014    
 2.69526477E-06 8.99771211E-09  32041376.      32038837.      33.852523      2505.4221    
 2.71332047E-06 9.05798819E-09  32703848.      32701255.      34.806193      2558.5418    
 2.73149713E-06 9.11866806E-09  33351756.      33349110.      35.725421      2610.8056    
 2.74979555E-06 9.17975443E-09  34022088.      34019387.      36.689784      2664.2740    
 2.76821656E-06 9.24125002E-09  34715549.      34712793.      37.701654      2718.8285    
 2.78676096E-06 9.30315757E-09  35400718.      35397908.      38.691632      2772.0587    
 2.80542960E-06 9.36547984E-09  36127496.      36124629.      39.770379      2827.7160    
 2.82422330E-06 9.42821962E-09  36848204.      36845280.      40.832161      2883.3816    
 2.84314290E-06 9.49137968E-09  37583479.      37580495.      41.922571      2942.4127    
 2.86218924E-06 9.55496287E-09  38354684.      38351636.      43.090787      3004.7505    
 2.88136318E-06 9.61897199E-09  39111589.      39108480.      44.222402      3065.0234    
 2.90066556E-06 9.68340992E-09  39908871.      39905698.      45.442514      3127.7524    
 2.92009725E-06 9.74827952E-09  40710496.      40707260.      46.668801      3189.9449    
 2.93965911E-06 9.81358368E-09  41516953.      41513653.      47.901605      3251.7954    
 2.95935202E-06 9.87932532E-09  42374544.      42371177.      49.250167      3318.2011    
 2.97917685E-06 9.94550737E-09  43210677.      43207240.      50.543682      3385.6632    
 2.99913449E-06 1.00121328E-08  44085247.      44081739.      51.923548      3456.3098    
 3.01922583E-06 1.00792045E-08  44976804.      44973224.      53.339653      3527.3144    
 3.03945176E-06 1.01467255E-08  45864050.      45860398.      54.740038      3597.0894    
 3.05981319E-06 1.02146989E-08  46812077.      46808350.      56.283082      3670.6027    
 3.08031101E-06 1.02831276E-08  47738489.      47734690.      57.768443      3741.6492    
 3.10094616E-06 1.03520148E-08  48697776.      48693901.      59.328826      3816.2057    
 3.12171953E-06 1.04213634E-08  49689272.      49685314.      60.963931      3896.6013    
 3.14263207E-06 1.04911766E-08  50669351.      50665313.      62.564667      3975.6070    
 3.16368471E-06 1.05614574E-08  51709329.      51705206.      64.310088      4058.4839    
 3.18487837E-06 1.06322091E-08  52739745.      52735539.      66.025801      4139.4163    
 3.20621402E-06 1.07034348E-08  53791890.      53787601.      67.790135      4221.0733    
 3.22769259E-06 1.07751376E-08  54894430.      54890055.      69.677884      4305.5099    
 3.24931505E-06 1.08473207E-08  55977022.      55972560.      71.507630      4390.1901    
 3.27108236E-06 1.09199874E-08  57117797.      57113241.      73.481781      4482.9442    
 3.29299549E-06 1.09931409E-08  58263795.      58259145.      75.463319      4575.3255    
 3.31505541E-06 1.10667844E-08  59417715.      59412971.      77.458054      4667.1938    
 3.33726312E-06 1.11409213E-08  60643643.      60638800.      79.637230      4763.4954    
 3.35961959E-06 1.12155548E-08  61839441.      61834503.      81.728745      4856.2196    
 3.38212584E-06 1.12906884E-08  63090695.      63085659.      83.961380      4952.0634    
 3.40478285E-06 1.13663252E-08  64365127.      64359988.      86.249643      5052.4650    
 3.42759164E-06 1.14424687E-08  65633963.      65628719.      88.513950      5155.6881    
 3.45055323E-06 1.15191223E-08  66990191.      66984834.      91.010551      5265.2084    
 3.47366865E-06 1.15962894E-08  68314403.      68308939.      93.410661      5370.4879    
 3.49693891E-06 1.16739735E-08  69686754.      69681180.      95.935374      5478.3192    
 3.52036506E-06 1.17521780E-08  71103893.      71098206.      98.577518      5588.0914    
 3.54394814E-06 1.18309064E-08  72505343.      72499546.      101.16576      5695.5767    
 3.56768921E-06 1.19101621E-08  73992981.      73987063.      103.98980      5813.4721    
 3.59158932E-06 1.19899488E-08  75465702.      75459661.      106.76212      5933.5438    
 3.61564954E-06 1.20702701E-08  76970770.      76964606.      109.61683      6054.8949    
 3.63987094E-06 1.21511293E-08  78546466.      78540173.      112.66722      6180.2858    
 3.66425460E-06 1.22325303E-08  80094356.      80087939.      115.62573      6301.8267    
 3.68880161E-06 1.23144766E-08  81726029.      81719482.      118.81985      6428.2532    
 3.71351306E-06 1.23969718E-08  83363757.      83357081.      122.02171      6554.1616    
 3.73839005E-06 1.24800197E-08  85014261.      85007451.      125.24921      6685.6477    
 3.76343369E-06 1.25636239E-08  86766103.      86759145.      128.77051      6828.7420    
 3.78864510E-06 1.26477882E-08  88475684.      88468585.      132.15225      6966.3598    
 3.81402541E-06 1.27325163E-08  90265224.      90257980.      135.76459      7108.7878    
 3.83957574E-06 1.28178120E-08  92086296.      92078905.      139.46207      7251.6949    
 3.86529723E-06 1.29036791E-08  93900172.      93892636.      143.12318      7392.3931    
 3.89119103E-06 1.29901214E-08  95839625.      95831936.      147.16250      7541.7034    
 3.91725829E-06 1.30771428E-08  97731758.      97723913.      151.04061      7693.6803    
 3.94350018E-06 1.31647472E-08  99694307.      99686298.      155.12552      7853.7473    
 3.96991787E-06 1.32529384E-08 1.01719067E+08 1.01710891E+08  159.39481      8016.9560    
 3.99651253E-06 1.33417205E-08 1.03722318E+08 1.03713979E+08  163.57965      8176.2667    
 4.02328535E-06 1.34310972E-08 1.05849491E+08 1.05840979E+08  168.14875      8343.2466    
 4.05023752E-06 1.35210728E-08 1.07953564E+08 1.07944885E+08  172.62829      8506.2307    
 4.07737024E-06 1.36116511E-08 1.10105686E+08 1.10096836E+08  177.24711      8672.6810    
 4.10468473E-06 1.37028361E-08 1.12356710E+08 1.12347673E+08  182.17607      8854.4368    
 4.13218219E-06 1.37946320E-08 1.14569035E+08 1.14559814E+08  186.95955      9034.7065    
