 OPTXAGNF AGN Spectrum Model Parameters: BLS, Astar 0.0                          
 M_BH:  2.0000E+07 M_0            L  :   1.000     L/Ledd 
 D   :  1.5000E+18 cm             z  :   0.000     redshift 
 Rcor:   60.00     Rg             Ro :   4.000     Rg 
 C_T :  0.2000     keV            Tau:   15.00     Optical Depth 
 gam :   1.800     (-slope)       fpl:  0.5000     Fraction 
 E              0.5DeltaE      E.FE total     E.FE Disk      E.FE Compton   E.FE NonThermal
 (keV)          (keV)          E.E/cm2/s/E    E.E/cm2/s/E    E.E/cm2/s/E    E.E/cm2/s/E    
 1.00334952E-06 3.34952256E-09  4440587.3      4440498.1     4.16484014E-02  89.222673    
 1.01007101E-06 3.37196116E-09  4528613.9      4528524.6     4.27426301E-02  89.292446    
 1.01683752E-06 3.39455008E-09  4620351.0      4620261.7     4.39028478E-02  89.284926    
 1.02364936E-06 3.41729032E-09  4714621.9      4714532.6     4.51076879E-02  89.252762    
 1.03050683E-06 3.44018290E-09  4808064.7      4807975.3     4.62923549E-02  89.322190    
 1.03741024E-06 3.46322884E-09  4907573.7      4907484.4     4.75900388E-02  89.237994    
 1.04435990E-06 3.48642917E-09  5005556.9      5005467.6     4.88540965E-02  89.282703    
 1.05135611E-06 3.50978492E-09  5106236.5      5106147.1     5.01660781E-02  89.300251    
 1.05839920E-06 3.53329712E-09  5211147.1      5211057.8     5.15572228E-02  89.242955    
 1.06548946E-06 3.55696684E-09  5314434.1      5314344.7     5.29114408E-02  89.312495    
 1.07262722E-06 3.58079512E-09  5423657.6      5423568.3     5.43793090E-02  89.253315    
 1.07981280E-06 3.60478303E-09  5532717.3      5532628.0     5.58393689E-02  89.272944    
 1.08704652E-06 3.62893164E-09  5643205.8      5643116.4     5.73228150E-02  89.315578    
 1.09432869E-06 3.65324201E-09  5759950.6      5759861.3     5.89288866E-02  89.233132    
 1.10165965E-06 3.67771524E-09  5874118.4      5874029.1     6.04769208E-02  89.302785    
 1.10903971E-06 3.70235243E-09  5993999.3      5993910.0     6.21371330E-02  89.268638    
 1.11646922E-06 3.72715465E-09  6115380.6      6115291.2     6.38233780E-02  89.263169    
 1.12394850E-06 3.75212303E-09  6236627.7      6236538.3     6.55005234E-02  89.330906    
 1.13147788E-06 3.77725867E-09  6366534.4      6366445.1     6.73545171E-02  89.223293    
 1.13905770E-06 3.80256270E-09  6492728.9      6492639.6     6.91241052E-02  89.293058    
 1.14668830E-06 3.82803623E-09  6624300.9      6624211.5     7.10016822E-02  89.283962    
 1.15437002E-06 3.85368042E-09  6759388.1      6759298.7     7.29489157E-02  89.253378    
 1.16210319E-06 3.87949640E-09  6893346.3      6893256.9     7.48647600E-02  89.322800    
 1.16988818E-06 3.90548532E-09  7036062.2      7035972.9     7.69647585E-02  89.237030    
 1.17772531E-06 3.93164835E-09  7176467.2      7176377.8     7.90076497E-02  89.283316    
 1.18561494E-06 3.95798663E-09  7320863.6      7320774.2     8.11308383E-02  89.299288    
 1.19355743E-06 3.98450137E-09  7471195.7      7471106.3     8.33791885E-02  89.243572    
 1.20155313E-06 4.01119372E-09  7619264.6      7619175.2     8.55692299E-02  89.313105    
 1.20960239E-06 4.03806489E-09  7775911.7      7775822.4     8.79446453E-02  89.252352    
 1.21770557E-06 4.06511607E-09  7932187.1      7932097.7     9.03043205E-02  89.273558    
 1.22586303E-06 4.09234846E-09  8090650.3      8090560.9     9.27050060E-02  89.314614    
 1.23407514E-06 4.11976329E-09  8257938.4      8257849.0     9.53007359E-02  89.233750    
 1.24234227E-06 4.14736177E-09  8421603.7      8421514.3     9.78042159E-02  89.303396    
 1.25066478E-06 4.17514513E-09  8593534.0      8593444.6     0.10049091      89.267675    
 1.25904304E-06 4.20311462E-09  8767463.4      8767374.1     0.10321616      89.263784    
 1.26747742E-06 4.23127147E-09  8941355.3      8941265.8     0.10593033      89.329942    
 1.27596831E-06 4.25961695E-09  9127501.5      9127412.2     0.10892677      89.223912    
 1.28451608E-06 4.28815232E-09  9308405.4      9308315.9     0.11178854      89.409020    
 1.29312111E-06 4.31687884E-09  9497102.6      9497011.6     0.11482701      90.914364    
 1.30178379E-06 4.34579781E-09  9690671.9      9690578.3     0.11797408      93.524445    
 1.31050450E-06 4.37491051E-09  9882706.2      9882610.0     0.12107238      96.042522    
 1.31928362E-06 4.40421823E-09  10087383.      10087284.     0.12447073      98.751236    
 1.32812156E-06 4.43372228E-09  10288569.      10288468.     0.12777232      101.32852    
 1.33701871E-06 4.46342399E-09  10495658.      10495553.     0.13120828      103.96131    
 1.34597546E-06 4.49332467E-09  10711069.      10710962.     0.13484203      106.70592    
 1.35499221E-06 4.52342565E-09  10923329.      10923219.     0.13838376      109.48612    
 1.36406936E-06 4.55372829E-09  11147982.      11147870.     0.14222783      112.52976    
 1.37320733E-06 4.58423392E-09  11371907.      11371791.     0.14604141      115.48901    
 1.38240650E-06 4.61494391E-09  11599167.      11599049.     0.14992647      118.44996    
 1.39166731E-06 4.64585962E-09  11838872.      11838751.     0.15412167      121.57271    
 1.40099015E-06 4.67698245E-09  12073486.      12073361.     0.15817029      124.53874    
 1.41037545E-06 4.70831376E-09  12320055.      12319927.     0.16251813      127.68690    
 1.41982361E-06 4.73985497E-09  12569273.      12569142.     0.16692255      131.00678    
 1.42933508E-06 4.77160747E-09  12818658.      12818524.     0.17131495      134.33244    
 1.43891026E-06 4.80357269E-09  13085381.      13085243.     0.17615782      137.91404    
 1.44854958E-06 4.83575204E-09  13344703.      13344561.     0.18078587      141.28223    
 1.45825348E-06 4.86814696E-09  13615313.      13615168.     0.18570300      144.78493    
 1.46802239E-06 4.90075889E-09  13892664.      13892516.     0.19078919      148.32913    
 1.47785673E-06 4.93358930E-09  14167935.      14167783.     0.19579975      151.82593    
 1.48775696E-06 4.96663964E-09  14461453.      14461297.     0.20129917      155.78620    
 1.49772351E-06 4.99991138E-09  14749714.      14749554.     0.20663496      159.64147    
 1.50775683E-06 5.03340601E-09  15046694.      15046530.     0.21219538      163.58147    
 1.51785736E-06 5.06712502E-09  15355338.      15355170.     0.21806817      167.64403    
 1.52802556E-06 5.10106992E-09  15659596.      15659424.     0.22379584      171.55390    
 1.53826187E-06 5.13524222E-09  15981758.      15981582.     0.23001658      175.68506    
 1.54856676E-06 5.16964344E-09  16302594.      16302414.     0.23617987      179.81144    
 1.55894067E-06 5.20427512E-09  16628499.      16628314.     0.24246710      184.16615    
 1.56938409E-06 5.23913879E-09  16971945.      16971756.     0.24924736      188.82263    
 1.57989746E-06 5.27423602E-09  17308241.      17308047.     0.25579476      193.25971    
 1.59048127E-06 5.30956836E-09  17661827.      17661629.     0.26283076      197.90993    
 1.60113597E-06 5.34513740E-09  18018898.      18018695.     0.26994899      202.52591    
 1.61186206E-06 5.38094472E-09  18376526.      18376318.     0.27705730      207.07291    
 1.62265999E-06 5.41699191E-09  18758677.      18758465.     0.28488435      212.05441    
 1.63353026E-06 5.45328058E-09  19130383.      19130166.     0.29236880      217.03782    
 1.64447336E-06 5.48981235E-09  19518439.      19518217.     0.30032613      222.27002    
 1.65548976E-06 5.52658885E-09  19915813.      19915585.     0.30854626      227.55717    
 1.66657996E-06 5.56361172E-09  20310376.      20310143.     0.31664929      232.70469    
 1.67774445E-06 5.60088261E-09  20731272.      20731033.     0.32554876      238.17946    
 1.68898374E-06 5.63840317E-09  21144270.      21144026.     0.33417208      243.44170    
 1.70029832E-06 5.67617509E-09  21570136.      21569887.     0.34317049      248.97155    
 1.71168869E-06 5.71420004E-09  22012336.      22012081.     0.35266196      254.97892    
 1.72315537E-06 5.75247973E-09  22448441.      22448180.     0.36192469      260.81757    
 1.73469887E-06 5.79101585E-09  22910406.      22910139.     0.37199150      266.98249    
 1.74631969E-06 5.82981012E-09  23370068.      23369795.     0.38195223      272.99454    
 1.75801837E-06 5.86886429E-09  23837405.      23837126.     0.39212690      279.03016    
 1.76979541E-06 5.90818007E-09  24329459.      24329174.     0.40308505      285.34512    
 1.78165135E-06 5.94775924E-09  24811476.      24811184.     0.41367346      291.62765    
 1.79358672E-06 5.98760354E-09  25318495.      25318196.     0.42505963      298.52516    
 1.80560203E-06 6.02771477E-09  25830061.      25829755.     0.43656376      305.40669    
 1.81769784E-06 6.06809470E-09  26342882.      26342569.     0.44806725      312.19519    
 1.82987468E-06 6.10874514E-09  26890380.      26890060.     0.46071730      319.40724    
 1.84213310E-06 6.14966790E-09  27423140.      27422814.     0.47282109      326.27125    
 1.85447363E-06 6.19086481E-09  27979578.      27979244.     0.48569830      333.39223    
 1.86689683E-06 6.23233769E-09  28548876.      28548534.     0.49898335      340.90458    
 1.87940326E-06 6.27408840E-09  29114391.      29114042.     0.51208749      348.55917    
 1.89199346E-06 6.31611880E-09  29717902.      29717545.     0.52648907      356.72470    
 1.90466801E-06 6.35843077E-09  30309575.      30309210.     0.54042542      364.55379    
 1.91742747E-06 6.40102618E-09  30920220.      30919847.     0.55498748      372.55437    
 1.93027240E-06 6.44390694E-09  31553726.      31553345.     0.57032732      380.75707    
 1.94320339E-06 6.48707497E-09  32178769.      32178380.     0.58530690      388.73122    
 1.95622099E-06 6.53053217E-09  32841159.      32840761.     0.60159762      397.53667    
 1.96932581E-06 6.57428050E-09  33499671.      33499264.     0.61769550      406.49246    
 1.98251841E-06 6.61832191E-09  34169770.      34169354.     0.63416118      415.49297    
 1.99579939E-06 6.66265834E-09  34874686.      34874260.     0.65187157      424.87880    
 2.00916934E-06 6.70729179E-09  35565519.      35565084.     0.66899499      433.89992    
 2.02262885E-06 6.75222424E-09  36292495.      36292051.     0.68742089      443.31000    
 2.03617854E-06 6.79745770E-09  37025351.      37024897.     0.70601324      452.70910    
 2.04981899E-06 6.84299417E-09  37760657.      37760194.     0.72462947      462.48497    
 2.06355082E-06 6.88883570E-09  38544985.      38544511.     0.74507440      473.21755    
 2.07737464E-06 6.93498432E-09  39308528.      39308043.     0.76464847      483.44288    
 2.09129106E-06 6.98144209E-09  40106351.      40105856.     0.78548738      494.03853    
 2.10530072E-06 7.02821109E-09  40921895.      40921389.     0.80695811      504.71843    
 2.11940422E-06 7.07529339E-09  41732370.      41731854.     0.82814993      515.17341    
 2.13360221E-06 7.12269110E-09  42597662.      42597135.     0.85145525      526.32431    
 2.14789530E-06 7.17040633E-09  43445246.      43444707.     0.87397803      537.68788    
 2.16228415E-06 7.21844121E-09  44320777.      44320226.     0.89754363      549.59590    
 2.17676939E-06 7.26679787E-09  45228283.      45227720.     0.92233539      561.81122    
 2.19135167E-06 7.31547848E-09  46124052.      46123478.     0.94656013      573.66049    
 2.20603163E-06 7.36448520E-09  47073745.      47073158.     0.97292268      586.11182    
 2.22080994E-06 7.41382021E-09  48017056.      48016456.     0.99893893      598.27765    
 2.23568724E-06 7.46348573E-09  48977814.      48977203.      1.0255853      610.66440    
 2.25066421E-06 7.51348396E-09  49987593.      49986967.      1.0542084      624.31641    
 2.26574151E-06 7.56381713E-09  50977625.      50976986.      1.0819001      637.73841    
 2.28091982E-06 7.61448748E-09  52019900.      52019248.      1.1117181      651.76276    
 2.29619980E-06 7.66549727E-09  53069685.      53069018.      1.1417660      665.66625    
 2.31158215E-06 7.71684879E-09  54123915.      54123234.      1.1718927      679.44117    
 2.32706754E-06 7.76854430E-09  55247423.      55246728.      1.2049356      693.95851    
 2.34265667E-06 7.82058613E-09  56341629.      56340919.      1.2365904      708.14107    
 2.35835023E-06 7.87297659E-09  57485456.      57484731.      1.2703135      723.60671    
 2.37414893E-06 7.92571802E-09  58653661.      58652920.      1.3050134      739.50285    
 2.39005346E-06 7.97881276E-09  59815109.      59814352.      1.3392844      755.05995    
 2.40606454E-06 8.03226319E-09  61055627.      61054854.      1.3769981      771.52959    
 2.42218287E-06 8.08607168E-09  62269704.      62268915.      1.4133974      787.37055    
 2.43840918E-06 8.14024064E-09  63524914.      63524109.      1.4515332      803.56380    
 2.45474420E-06 8.19477248E-09  64824815.      64823993.      1.4916007      820.51980    
 2.47118864E-06 8.24966963E-09  66108460.      66107621.      1.5307765      837.89278    
 2.48774324E-06 8.30493454E-09  67469951.      67469093.      1.5734377      856.44910    
 2.50440875E-06 8.36056967E-09  68821115.      68820239.      1.6154832      874.54500    
 2.52118589E-06 8.41657750E-09  70198486.      70197591.      1.6586048      892.77080    
 2.53807543E-06 8.47296053E-09  71644843.      71643930.      1.7048647      911.67549    
 2.55507811E-06 8.52972128E-09  73063530.      73062598.      1.7496471      929.96357    
 2.57219470E-06 8.58686227E-09  74557715.      74556764.      1.7979004      949.50378    
 2.58942595E-06 8.64438604E-09  76061350.      76060378.      1.8464618      969.98773    
 2.60677263E-06 8.70229518E-09  77572693.      77571700.      1.8952159      990.48634    
 2.62423551E-06 8.76059224E-09  79181910.      79180896.      1.9486192      1012.1058    
 2.64181539E-06 8.81927985E-09  80749834.      80748799.      1.9998107      1032.8062    
 2.65951303E-06 8.87836060E-09  82389567.      82388510.      2.0543836      1054.2191    
 2.67732922E-06 8.93783714E-09  84062771.      84061693.      2.1104638      1075.7994    
 2.69526477E-06 8.99771211E-09  85727020.      85725921.      2.1658860      1097.6104    
 2.71332047E-06 9.05798819E-09  87505304.      87504180.      2.2269157      1121.9784    
 2.73149713E-06 9.11866806E-09  89244182.      89243034.      2.2857409      1145.5237    
 2.74979555E-06 9.17975443E-09  91043548.      91042376.      2.3474552      1169.6309    
 2.76821656E-06 9.24125002E-09  92905330.      92904133.      2.4122105      1194.2453    
 2.78676096E-06 9.30315757E-09  94744624.      94743404.      2.4755646      1218.2221    
 2.80542960E-06 9.36547984E-09  96696275.      96695029.      2.5446009      1243.3834    
 2.82422330E-06 9.42821962E-09  98631441.      98630170.      2.6125514      1268.9619    
 2.84314290E-06 9.49137968E-09 1.00605881E+08 1.00604583E+08  2.6823344      1295.9575    
 2.86218924E-06 9.55496287E-09 1.02677365E+08 1.02676038E+08  2.7570981      1324.0989    
 2.88136318E-06 9.61897199E-09 1.04710099E+08 1.04708745E+08  2.8295191      1351.2603    
 2.90066556E-06 9.68340992E-09 1.06851913E+08 1.06850530E+08  2.9076050      1379.5701    
 2.92009725E-06 9.74827952E-09 1.09005387E+08 1.09003976E+08  2.9860865      1407.6191    
 2.93965911E-06 9.81358368E-09 1.11171820E+08 1.11170381E+08  3.0649851      1435.5046    
 2.95935202E-06 9.87932532E-09 1.13476481E+08 1.13475012E+08  3.1512942      1466.1912    
 2.97917685E-06 9.94550737E-09 1.15722978E+08 1.15721478E+08  3.2340796      1496.9417    
 2.99913449E-06 1.00121328E-08 1.18073367E+08 1.18071835E+08  3.3223929      1528.8229    
 3.01922583E-06 1.00792045E-08 1.20469623E+08 1.20468058E+08  3.4130263      1560.8645    
 3.03945176E-06 1.01467255E-08 1.22854090E+08 1.22852494E+08  3.5026535      1592.3213    
 3.05981319E-06 1.02146989E-08 1.25402979E+08 1.25401350E+08  3.6014135      1625.5222    
 3.08031101E-06 1.02831276E-08 1.27893239E+08 1.27891578E+08  3.6964810      1657.6470    
 3.10094616E-06 1.03520148E-08 1.30472379E+08 1.30470683E+08  3.7963514      1692.1133    
 3.12171953E-06 1.04213634E-08 1.33138618E+08 1.33136885E+08  3.9010057      1728.6917    
 3.14263207E-06 1.04911766E-08 1.35773799E+08 1.35772031E+08  4.0034599      1764.3231    
 3.16368471E-06 1.05614574E-08 1.38571110E+08 1.38569305E+08  4.1151771      1801.7492    
 3.18487837E-06 1.06322091E-08 1.41342389E+08 1.41340546E+08  4.2249926      1838.2620    
 3.20621402E-06 1.07034348E-08 1.44172396E+08 1.44170516E+08  4.3379211      1875.1036    
 3.22769259E-06 1.07751376E-08 1.47138845E+08 1.47136927E+08  4.4587512      1913.4534    
 3.24931505E-06 1.08473207E-08 1.50051072E+08 1.50049115E+08  4.5758679      1952.5999    
 3.27108236E-06 1.09199874E-08 1.53120861E+08 1.53118862E+08  4.7022303      1994.6902    
 3.29299549E-06 1.09931409E-08 1.56204667E+08 1.56202626E+08  4.8290659      2036.3882    
 3.31505541E-06 1.10667844E-08 1.59309780E+08 1.59307698E+08  4.9567466      2077.8402    
 3.33726312E-06 1.11409213E-08 1.62610038E+08 1.62607912E+08  5.0962367      2121.3409    
 3.35961959E-06 1.12155548E-08 1.65828404E+08 1.65826236E+08  5.2301143      2163.1740    
 3.38212584E-06 1.12906884E-08 1.69197036E+08 1.69194824E+08  5.3730278      2206.8349    
 3.40478285E-06 1.13663252E-08 1.72628388E+08 1.72626129E+08  5.5195034      2253.2584    
 3.42759164E-06 1.14424687E-08 1.76044345E+08 1.76042039E+08  5.6644452      2299.9416    
 3.45055323E-06 1.15191223E-08 1.79697328E+08 1.79694972E+08  5.8242611      2349.4210    
 3.47366865E-06 1.15962894E-08 1.83263218E+08 1.83260816E+08  5.9778990      2396.9357    
 3.49693891E-06 1.16739735E-08 1.86959596E+08 1.86957144E+08  6.1395156      2445.6209    
 3.52036506E-06 1.17521780E-08 1.90777411E+08 1.90774910E+08  6.3086519      2495.1959    
 3.54394814E-06 1.18309064E-08 1.94552399E+08 1.94549848E+08  6.4743369      2544.3088    
 3.56768921E-06 1.19101621E-08 1.98561287E+08 1.98558682E+08  6.6551212      2598.7437    
 3.59158932E-06 1.19899488E-08 2.02529432E+08 2.02526772E+08  6.8325945      2652.9910    
 3.61564954E-06 1.20702701E-08 2.06585228E+08 2.06582513E+08  7.0153435      2707.7840    
 3.63987094E-06 1.21511293E-08 2.10832761E+08 2.10829990E+08  7.2106233      2764.4292    
 3.66425460E-06 1.22325303E-08 2.15004472E+08 2.15001645E+08  7.4000199      2819.2952    
 3.68880161E-06 1.23144766E-08 2.19403712E+08 2.19400828E+08  7.6045044      2876.4031    
 3.71351306E-06 1.23969718E-08 2.23819186E+08 2.23816244E+08  7.8094852      2934.1405    
 3.73839005E-06 1.24800197E-08 2.28269108E+08 2.28266106E+08  8.0161085      2994.6099    
 3.76343369E-06 1.25636239E-08 2.32994422E+08 2.32991354E+08  8.2415470      3059.3727    
 3.78864510E-06 1.26477882E-08 2.37604496E+08 2.37601366E+08  8.4580483      3121.5118    
 3.81402541E-06 1.27325163E-08 2.42431849E+08 2.42428654E+08  8.6893177      3185.8501    
 3.83957574E-06 1.28178120E-08 2.47344752E+08 2.47341493E+08  8.9260404      3250.4020    
 3.86529723E-06 1.29036791E-08 2.52237743E+08 2.52234420E+08  9.1604341      3313.9397    
 3.89119103E-06 1.29901214E-08 2.57472338E+08 2.57468946E+08  9.4190507      3382.5459    
 3.91725829E-06 1.30771428E-08 2.62577765E+08 2.62574303E+08  9.6673426      3452.3113    
 3.94350018E-06 1.31647472E-08 2.67874610E+08 2.67871075E+08  9.9288795      3524.7425    
 3.96991787E-06 1.32529384E-08 2.73340618E+08 2.73337009E+08  10.202227      3598.4834    
 3.99651253E-06 1.33417205E-08 2.78747666E+08 2.78743985E+08  10.470165      3670.4350    
 4.02328535E-06 1.34310972E-08 2.84492061E+08 2.84488304E+08  10.762714      3745.8891    
 4.05023752E-06 1.35210728E-08 2.90173166E+08 2.90169336E+08  11.049528      3819.6046    
 4.07737024E-06 1.36116511E-08 2.95984847E+08 2.95980940E+08  11.345264      3895.9984    
 4.10468473E-06 1.37028361E-08 3.02065823E+08 3.02061832E+08  11.660864      3979.5318    
 4.13218219E-06 1.37946320E-08 3.08040862E+08 3.08036789E+08  11.967148      4061.0174    
