 OPTXAGNF AGN Spectrum Model Parameters: BLS, Astar 0.0                          
 M_BH:  2.0000E+07 M_0            L  :  1.0000E-02 L/Ledd 
 D   :  1.5000E+18 cm             z  :   0.000     redshift 
 Rcor:   60.00     Rg             Ro :   4.000     Rg 
 C_T :  0.2000     keV            Tau:   15.00     Optical Depth 
 gam :   1.800     (-slope)       fpl:  0.5000     Fraction 
 E              0.5DeltaE      E.FE total     E.FE Disk      E.FE Compton   E.FE NonThermal
 (keV)          (keV)          E.E/cm2/s/E    E.E/cm2/s/E    E.E/cm2/s/E    E.E/cm2/s/E    
 1.00334952E-06 3.34952256E-09  1402251.5      1402146.5     0.64665622      104.39290    
 1.01007101E-06 3.37196116E-09  1430009.0      1429901.8     0.66364418      106.49158    
 1.01683752E-06 3.39455008E-09  1458933.4      1458824.1     0.68165650      108.65319    
 1.02364936E-06 3.41729032E-09  1488654.9      1488543.3     0.70036150      110.84290    
 1.03050683E-06 3.44018290E-09  1518116.7      1518003.0     0.71875334      112.98927    
 1.03741024E-06 3.46322884E-09  1549485.7      1549369.7     0.73889956      115.29417    
 1.04435990E-06 3.48642917E-09  1580375.9      1580257.5     0.75852377      117.66315    
 1.05135611E-06 3.50978492E-09  1612114.2      1611993.4     0.77889190      120.09606    
 1.05839920E-06 3.53329712E-09  1645182.7      1645059.3     0.80048886      122.59747    
 1.06548946E-06 3.55696684E-09  1677741.6      1677615.8     0.82151261      125.02719    
 1.07262722E-06 3.58079512E-09  1712166.6      1712038.2     0.84430052      127.56201    
 1.07981280E-06 3.60478303E-09  1746540.7      1746409.8     0.86696720      130.06278    
 1.08704652E-06 3.62893164E-09  1781364.5      1781231.0     0.88999690      132.63030    
 1.09432869E-06 3.65324201E-09  1818154.6      1818018.2     0.91493006      135.46477    
 1.10165965E-06 3.67771524E-09  1854135.9      1853996.7     0.93896230      138.21610    
 1.10903971E-06 3.70235243E-09  1891912.5      1891770.5     0.96473582      141.07206    
 1.11646922E-06 3.72715465E-09  1930161.1      1930016.2     0.99091342      143.92260    
 1.12394850E-06 3.75212303E-09  1968368.5      1968220.8      1.0169498      146.73672    
 1.13147788E-06 3.77725867E-09  2009296.2      2009145.4      1.0457312      149.70693    
 1.13905770E-06 3.80256270E-09  2049059.0      2048905.2      1.0732024      152.66029    
 1.14668830E-06 3.82803623E-09  2090511.5      2090354.5      1.1023498      155.85649    
 1.15437002E-06 3.85368042E-09  2133068.5      2132908.2      1.1325785      159.11217    
 1.16210319E-06 3.87949640E-09  2175272.1      2175108.6      1.1623199      162.29745    
 1.16988818E-06 3.90548532E-09  2220225.9      2220059.1      1.1949197      165.64625    
 1.17772531E-06 3.93164835E-09  2264455.3      2264285.2      1.2266331      168.89695    
 1.18561494E-06 3.95798663E-09  2309938.6      2309765.1      1.2595928      172.19863    
 1.19355743E-06 3.98450137E-09  2357286.1      2357109.0      1.2944952      175.73546    
 1.20155313E-06 4.01119372E-09  2403924.5      2403743.8      1.3284926      179.33442    
 1.20960239E-06 4.03806489E-09  2453256.1      2453071.6      1.3653672      183.10857    
 1.21770557E-06 4.06511607E-09  2502472.1      2502283.9      1.4019975      186.81806    
 1.22586303E-06 4.09234846E-09  2552375.8      2552183.9      1.4392643      190.53431    
 1.23407514E-06 4.11976329E-09  2605049.6      2604853.7      1.4795585      194.39937    
 1.24234227E-06 4.14736177E-09  2656587.9      2656388.2      1.5184208      198.14791    
 1.25066478E-06 4.17514513E-09  2710720.6      2710516.8      1.5601268      202.21161    
 1.25904304E-06 4.20311462E-09  2765481.7      2765273.7      1.6024311      206.44031    
 1.26747742E-06 4.23127147E-09  2820232.5      2820020.3      1.6445634      210.61986    
 1.27596831E-06 4.25961695E-09  2878828.1      2878611.3      1.6910769      215.03729    
 1.28451608E-06 4.28815232E-09  2935780.8      2935559.8      1.7355002      219.27072    
 1.29312111E-06 4.31687884E-09  2995178.6      2994953.1      1.7826660      223.63052    
 1.30178379E-06 4.34579781E-09  3056105.1      3055875.2      1.8315172      228.06567    
 1.31050450E-06 4.37491051E-09  3116552.2      3116317.7      1.8796114      232.62738    
 1.31928362E-06 4.40421823E-09  3180964.6      3180725.0      1.9323627      237.60527    
 1.32812156E-06 4.43372228E-09  3244284.3      3244039.8      1.9836120      242.43079    
 1.33701871E-06 4.46342399E-09  3309456.0      3309206.6      2.0369469      247.33943    
 1.34597546E-06 4.49332467E-09  3377237.9      3376983.4      2.0933514      252.37298    
 1.35499221E-06 4.52342565E-09  3444033.8      3443774.4      2.1483278      257.27401    
 1.36406936E-06 4.55372829E-09  3514715.7      3514451.0      2.2079965      262.42704    
 1.37320733E-06 4.58423392E-09  3585171.0      3584901.0      2.2671919      267.78043    
 1.38240650E-06 4.61494391E-09  3656674.0      3656398.4      2.3274967      273.29340    
 1.39166731E-06 4.64585962E-09  3732077.7      3731796.3      2.3926149      279.04525    
 1.40099015E-06 4.67698245E-09  3805888.4      3805601.4      2.4554580      284.59495    
 1.41037545E-06 4.70831376E-09  3883446.4      3883153.6      2.5229448      290.35326    
 1.41982361E-06 4.73985497E-09  3961835.9      3961537.2      2.5913098      296.09284    
 1.42933508E-06 4.77160747E-09  4040280.4      4039975.9      2.6594883      301.83172    
 1.43891026E-06 4.80357269E-09  4124157.1      4123846.1      2.7346576      308.23278    
 1.44854958E-06 4.83575204E-09  4205718.3      4205400.9      2.8064931      314.51636    
 1.45825348E-06 4.86814696E-09  4290816.7      4290492.8      2.8828148      321.00145    
 1.46802239E-06 4.90075889E-09  4378028.2      4377697.7      2.9617602      327.55449    
 1.47785673E-06 4.93358930E-09  4464590.9      4464253.9      3.0395317      333.97934    
 1.48775696E-06 4.96663964E-09  4556868.1      4556524.2      3.1248898      340.72701    
 1.49772351E-06 4.99991138E-09  4647502.5      4647151.9      3.2077086      347.39151    
 1.50775683E-06 5.03340601E-09  4740869.2      4740511.4      3.2940134      354.52828    
 1.51785736E-06 5.06712502E-09  4837888.7      4837523.3      3.3851656      362.01504    
 1.52802556E-06 5.10106992E-09  4933538.8      4933166.0      3.4740656      369.29016    
 1.53826187E-06 5.13524222E-09  5034794.1      5034413.7      3.5706173      376.89727    
 1.54856676E-06 5.16964344E-09  5135637.3      5135249.2      3.6662775      384.36833    
 1.55894067E-06 5.20427512E-09  5238069.5      5237673.9      3.7638609      391.86754    
 1.56938409E-06 5.23913879E-09  5345992.1      5345588.4      3.8690952      399.81610    
 1.57989746E-06 5.27423602E-09  5451681.8      5451269.9      3.9707159      407.93463    
 1.59048127E-06 5.30956836E-09  5562782.7      5562362.1      4.0799186      416.50436    
 1.60113597E-06 5.34513740E-09  5674976.5      5674547.3      4.1903973      425.03257    
 1.61186206E-06 5.38094472E-09  5787348.6      5786910.9      4.3007220      433.46963    
 1.62265999E-06 5.41699191E-09  5907391.7      5906944.9      4.4221998      442.35365    
 1.63353026E-06 5.45328058E-09  6024172.5      6023717.1      4.5383612      450.89948    
 1.64447336E-06 5.48981235E-09  6146068.9      6145604.4      4.6618605      459.90219    
 1.65548976E-06 5.52658885E-09  6270882.0      6270407.7      4.7894376      469.54163    
 1.66657996E-06 5.56361172E-09  6394821.0      6394337.0      4.9151976      479.07846    
 1.67774445E-06 5.60088261E-09  6526993.3      6526499.1      5.0533161      489.13020    
 1.68898374E-06 5.63840317E-09  6656701.8      6656197.7      5.1871493      498.85154    
 1.70029832E-06 5.67617509E-09  6790435.5      6789921.5      5.3268028      508.75364    
 1.71168869E-06 5.71420004E-09  6929276.5      6928752.2      5.4741070      518.89198    
 1.72315537E-06 5.75247973E-09  7066218.4      7065683.8      5.6178617      529.05996    
 1.73469887E-06 5.79101585E-09  7211243.4      7210697.3      5.7740929      540.29977    
 1.74631969E-06 5.82981012E-09  7355553.5      7354996.1      5.9286781      551.39443    
 1.75801837E-06 5.86886429E-09  7502266.0      7501697.3      6.0865827      562.53813    
 1.76979541E-06 5.90818007E-09  7656701.4      7656121.1      6.2566442      574.10871    
 1.78165135E-06 5.94775924E-09  7808008.2      7807416.5      6.4209682      585.30184    
 1.79358672E-06 5.98760354E-09  7967125.8      7966522.3      6.5976706      596.91043    
 1.80560203E-06 6.02771477E-09  8127668.6      8127052.9      6.7762029      608.91790    
 1.81769784E-06 6.06809470E-09  8288610.0      8287981.6      6.9547253      621.39438    
 1.82987468E-06 6.10874514E-09  8460379.2      8459737.5      7.1510374      634.62027    
 1.84213310E-06 6.14966790E-09  8627555.3      8626900.6      7.3388735      647.29456    
 1.85447363E-06 6.19086481E-09  8802125.9      8801458.0      7.5387098      660.37249    
 1.86689683E-06 6.23233769E-09  8980714.5      8980033.2      7.7448737      673.56259    
 1.87940326E-06 6.27408840E-09  9158130.2      9157435.7      7.9482304      686.52852    
 1.89199346E-06 6.31611880E-09  9347404.5      9346695.5      8.1717173      700.76556    
 1.90466801E-06 6.35843077E-09  9532993.7      9532270.1      8.3879856      715.16505    
 1.91742747E-06 6.40102618E-09  9724507.2      9723768.7      8.6139619      729.88710    
 1.93027240E-06 6.44390694E-09  9923155.7      9922401.9      8.8520052      744.95145    
 1.94320339E-06 6.48707497E-09  10119173.      10118405.      9.0844589      759.62414    
 1.95622099E-06 6.53053217E-09  10326841.      10326057.      9.3372543      774.95504    
 1.96932581E-06 6.57428050E-09  10533307.      10532508.      9.5870575      790.06983    
 1.98251841E-06 6.61832191E-09  10743395.      10742579.      9.8425669      805.94768    
 1.99579939E-06 6.66265834E-09  10964340.      10963507.      10.117387      823.11890    
 2.00916934E-06 6.70729179E-09  11180906.      11180056.      10.383100      839.73300    
 2.02262885E-06 6.75222424E-09  11408742.      11407875.      10.669020      857.00927    
 2.03617854E-06 6.79745770E-09  11638418.      11637533.      10.957522      874.17941    
 2.04981899E-06 6.84299417E-09  11868867.      11867965.      11.246394      891.20806    
 2.06355082E-06 6.88883570E-09  12114593.      12113672.      11.563636      909.20110    
 2.07737464E-06 6.93498432E-09  12353856.      12352916.      11.867367      927.42026    
 2.09129106E-06 6.98144209E-09  12603804.      12602845.      12.190721      946.82824    
 2.10530072E-06 7.02821109E-09  12859279.      12858300.      12.523875      966.43438    
 2.11940422E-06 7.07529339E-09  13113187.      13112189.      12.852702      985.66803    
 2.13360221E-06 7.12269110E-09  13384168.      13383148.      13.214316      1005.9194    
 2.14789530E-06 7.17040633E-09  13649647.      13648608.      13.563790      1025.5035    
 2.16228415E-06 7.21844121E-09  13923836.      13922776.      13.929441      1045.6522    
 2.17676939E-06 7.26679787E-09  14207985.      14206903.      14.314113      1067.3999    
 2.19135167E-06 7.31547848E-09  14488496.      14487392.      14.689988      1089.1555    
 2.20603163E-06 7.36448520E-09  14785792.      14784665.      15.099025      1111.9830    
 2.22080994E-06 7.41382021E-09  15081115.      15079966.      15.502690      1134.3261    
 2.23568724E-06 7.46348573E-09  15381879.      15380706.      15.916129      1156.8101    
 2.25066421E-06 7.51348396E-09  15697896.      15696699.      16.360232      1180.0862    
 2.26574151E-06 7.56381713E-09  16007788.      16006568.      16.789885      1202.9602    
 2.28091982E-06 7.61448748E-09  16333936.      16332690.      17.252521      1228.0019    
 2.29619980E-06 7.66549727E-09  16662431.      16661160.      17.718722      1253.5098    
 2.31158215E-06 7.71684879E-09  16992324.      16991027.      18.186146      1278.8015    
 2.32706754E-06 7.76854430E-09  17343758.      17342433.      18.698802      1305.3986    
 2.34265667E-06 7.82058613E-09  17686103.      17684753.      19.189927      1330.9589    
 2.35835023E-06 7.87297659E-09  18043879.      18042502.      19.713133      1357.3284    
 2.37414893E-06 7.92571802E-09  18409241.      18407837.      20.251490      1384.3768    
 2.39005346E-06 7.97881276E-09  18772526.      18771093.      20.783194      1412.3683    
 2.40606454E-06 8.03226319E-09  19160379.      19158915.      21.368295      1442.5375    
 2.42218287E-06 8.08607168E-09  19540040.      19538546.      21.933009      1471.6011    
 2.43840918E-06 8.14024064E-09  19932489.      19930966.      22.524655      1501.2953    
 2.45474420E-06 8.19477248E-09  20338826.      20337271.      23.146262      1531.6071    
 2.47118864E-06 8.24966963E-09  20740139.      20738554.      23.754037      1561.2070    
 2.48774324E-06 8.30493454E-09  21165625.      21164007.      24.415871      1592.7601    
 2.50440875E-06 8.36056967E-09  21587928.      21586278.      25.068154      1625.5255    
 2.52118589E-06 8.41657750E-09  22018384.      22016700.      25.737126      1658.9375    
 2.53807543E-06 8.47296053E-09  22470255.      22468535.      26.454771      1693.5676    
 2.55507811E-06 8.52972128E-09  22913568.      22911814.      27.149500      1727.0725    
 2.57219470E-06 8.58686227E-09  23380312.      23378522.      27.898058      1761.8961    
 2.58942595E-06 8.64438604E-09  23850006.      23848181.      28.651393      1796.4893    
 2.60677263E-06 8.70229518E-09  24322117.      24320256.      29.407718      1831.6306    
 2.62423551E-06 8.76059224E-09  24824583.      24822682.      30.236143      1870.8465    
 2.64181539E-06 8.81927985E-09  25314280.      25312340.      31.030264      1908.7836    
 2.65951303E-06 8.87836060E-09  25826250.      25824270.      31.876826      1948.0091    
 2.67732922E-06 8.93783714E-09  26348613.      26346593.      32.746761      1987.4693    
 2.69526477E-06 8.99771211E-09  26868233.      26866173.      33.606492      2026.2558    
 2.71332047E-06 9.05798819E-09  27423189.      27421087.      34.553181      2067.0512    
 2.73149713E-06 9.11866806E-09  27965974.      27963831.      35.465682      2107.7925    
 2.74979555E-06 9.17975443E-09  28527518.      28525330.      36.422984      2151.6600    
 2.76821656E-06 9.24125002E-09  29108407.      29106172.      37.427444      2196.7333    
 2.78676096E-06 9.30315757E-09  29682371.      29680092.      38.410172      2240.6513    
 2.80542960E-06 9.36547984E-09  30291128.      30288802.      39.481015      2286.6499    
 2.82422330E-06 9.42821962E-09  30894818.      30892446.      40.535017      2331.6453    
 2.84314290E-06 9.49137968E-09  31510691.      31508273.      41.617435      2377.0032    
 2.86218924E-06 9.55496287E-09  32156607.      32154138.      42.777084      2425.8173    
 2.88136318E-06 9.61897199E-09  32790582.      32788063.      43.900403      2475.3507    
 2.90066556E-06 9.68340992E-09  33458314.      33455742.      45.111564      2527.1784    
 2.92009725E-06 9.74827952E-09  34129685.      34127060.      46.328855      2578.5296    
 2.93965911E-06 9.81358368E-09  34805104.      34802427.      47.552613      2629.5686    
 2.95935202E-06 9.87932532E-09  35523266.      35520534.      48.891274      2683.0553    
 2.97917685E-06 9.94550737E-09  36223502.      36220717.      50.175294      2734.7414    
 2.99913449E-06 1.00121328E-08  36955872.      36953030.      51.545026      2790.3688    
 3.01922583E-06 1.00792045E-08  37702448.      37699546.      52.950728      2848.8290    
 3.03945176E-06 1.01467255E-08  38445433.      38442473.      54.340826      2906.3955    
 3.05981319E-06 1.02146989E-08  39239215.      39236192.      55.872526      2967.1688    
 3.08031101E-06 1.02831276E-08  40014949.      40011866.      57.346970      3025.7133    
 3.10094616E-06 1.03520148E-08  40818160.      40815015.      58.895879      3085.5969    
 3.12171953E-06 1.04213634E-08  41648287.      41645079.      60.518956      3146.9331    
 3.14263207E-06 1.04911766E-08  42468892.      42465620.      62.107918      3209.6435    
 3.16368471E-06 1.05614574E-08  43339550.      43336208.      63.840492      3277.9311    
 3.18487837E-06 1.06322091E-08  44202233.      44198822.      65.543578      3344.7316    
 3.20621402E-06 1.07034348E-08  45083081.      45079601.      67.294923      3412.1349    
 3.22769259E-06 1.07751376E-08  46006034.      46002483.      69.168766      3481.7920    
 3.24931505E-06 1.08473207E-08  46912339.      46908718.      70.985036      3549.3532    
 3.27108236E-06 1.09199874E-08  47867248.      47863555.      72.944638      3620.0607    
 3.29299549E-06 1.09931409E-08  48826537.      48822768.      74.911571      3693.9072    
 3.31505541E-06 1.10667844E-08  49792460.      49788614.      76.891603      3769.5626    
 3.33726312E-06 1.11409213E-08  50818530.      50814601.      79.054703      3849.1686    
 3.35961959E-06 1.12155548E-08  51819456.      51815449.      81.130793      3925.6669    
 3.38212584E-06 1.12906884E-08  52866704.      52862616.      83.346954      4004.7461    
 3.40478285E-06 1.13663252E-08  53933317.      53929147.      85.618326      4084.1648    
 3.42759164E-06 1.14424687E-08  54995275.      54991024.      87.865920      4163.0754    
 3.45055323E-06 1.15191223E-08  56130213.      56125872.      90.344077      4250.9034    
 3.47366865E-06 1.15962894E-08  57238444.      57234014.      92.726461      4337.7678    
 3.49693891E-06 1.16739735E-08  58386882.      58382360.      95.232519      4426.8028    
 3.52036506E-06 1.17521780E-08  59572723.      59568108.      97.855131      4517.4873    
 3.54394814E-06 1.18309064E-08  60745491.      60740785.      100.42424      4606.0431    
 3.56768921E-06 1.19101621E-08  61990211.      61985409.      103.22739      4698.7192    
 3.59158932E-06 1.19899488E-08  63222499.      63217602.      105.97921      4790.7139    
 3.61564954E-06 1.20702701E-08  64481812.      64476814.      108.81280      4888.4603    
 3.63987094E-06 1.21511293E-08  65800088.      65794984.      111.84060      4992.0774    
 3.66425460E-06 1.22325303E-08  67095184.      67089977.      114.77721      5092.3463    
 3.68880161E-06 1.23144766E-08  68460216.      68454901.      117.94766      5196.7977    
 3.71351306E-06 1.23969718E-08  69830323.      69824902.      121.12580      5300.1734    
 3.73839005E-06 1.24800197E-08  71211112.      71205584.      124.32939      5403.1529    
 3.76343369E-06 1.25636239E-08  72676468.      72670827.      127.82458      5512.7264    
 3.78864510E-06 1.26477882E-08  74106600.      74100844.      131.18125      5624.5193    
 3.81402541E-06 1.27325163E-08  75603466.      75597589.      134.76678      5742.1545    
 3.83957574E-06 1.28178120E-08  77126661.      77120662.      138.43683      5860.1710    
 3.86529723E-06 1.29036791E-08  78643884.      78637765.      142.07077      5976.2435    
 3.89119103E-06 1.29901214E-08  80265875.      80259631.      146.08009      6098.6475    
 3.91725829E-06 1.30771428E-08  81848422.      81842055.      149.92940      6216.6284    
 3.94350018E-06 1.31647472E-08  83489727.      83483233.      153.98395      6339.7900    
 3.96991787E-06 1.32529384E-08  85182950.      85176319.      158.22152      6473.0682    
 3.99651253E-06 1.33417205E-08  86858272.      86851505.      162.37525      6604.4916    
 4.02328535E-06 1.34310972E-08  88636958.      88630049.      166.91036      6742.4863    
 4.05023752E-06 1.35210728E-08  90396417.      90389368.      171.35657      6876.9959    
 4.07737024E-06 1.36116511E-08  92195972.      92188784.      175.94103      7012.9473    
 4.10468473E-06 1.37028361E-08  94078008.      94070674.      180.83328      7153.0572    
 4.13218219E-06 1.37946320E-08  95927822.      95920344.      185.58115      7292.7948    
