 OPTXAGNF AGN Spectrum Model Parameters: NLS, Astar 0.0                          
 M_BH:  2.0000E+07 M_0            L  :  0.2000     L/Ledd 
 D   :  1.5000E+18 cm             z  :   0.000     redshift 
 Rcor:   40.00     Rg             Ro :   4.000     Rg 
 C_T :  0.2000     keV            Tau:   15.00     Optical Depth 
 gam :   2.200     (-slope)       fpl:  0.2000     Fraction 
 E              0.5DeltaE      E.FE total     E.FE Disk      E.FE Compton   E.FE NonThermal
 (keV)          (keV)          E.E/cm2/s/E    E.E/cm2/s/E    E.E/cm2/s/E    E.E/cm2/s/E    
 1.00334952E-06 3.34952256E-09  2997598.0      2997570.0     2.94617972E-02  28.011824    
 1.01007101E-06 3.37196116E-09  3057001.6      3056972.9     3.02358433E-02  28.663490    
 1.01683752E-06 3.39455008E-09  3118907.8      3118878.3     3.10565691E-02  29.472925    
 1.02364936E-06 3.41729032E-09  3182522.9      3182492.6     3.19088601E-02  30.295947    
 1.03050683E-06 3.44018290E-09  3245579.9      3245548.8     3.27468810E-02  31.089791    
 1.03741024E-06 3.46322884E-09  3312728.0      3312696.0     3.36648483E-02  31.941185    
 1.04435990E-06 3.48642917E-09  3378847.3      3378814.6     3.45590289E-02  32.754887    
 1.05135611E-06 3.50978492E-09  3446785.3      3446751.6     3.54871101E-02  33.599524    
 1.05839920E-06 3.53329712E-09  3517576.6      3517542.1     3.64711901E-02  34.530210    
 1.06548946E-06 3.55696684E-09  3587273.4      3587237.9     3.74291486E-02  35.428307    
 1.07262722E-06 3.58079512E-09  3660973.6      3660937.1     3.84675016E-02  36.381824    
 1.07981280E-06 3.60478303E-09  3734563.5      3734526.2     3.95003310E-02  37.311484    
 1.08704652E-06 3.62893164E-09  3809117.2      3809079.0     4.05497035E-02  38.239536    
 1.09432869E-06 3.65324201E-09  3887889.7      3887850.5     4.16858192E-02  39.219212    
 1.10165965E-06 3.67771524E-09  3964925.0      3964884.8     4.27808802E-02  40.175621    
 1.10903971E-06 3.70235243E-09  4045812.8      4045771.5     4.39552941E-02  41.235130    
 1.11646922E-06 3.72715465E-09  4127712.5      4127670.1     4.51481231E-02  42.297782    
 1.12394850E-06 3.75212303E-09  4209522.2      4209478.8     4.63345151E-02  43.337586    
 1.13147788E-06 3.77725867E-09  4297170.7      4297126.2     4.76460067E-02  44.456526    
 1.13905770E-06 3.80256270E-09  4382316.8      4382271.2     4.88977911E-02  45.510097    
 1.14668830E-06 3.82803623E-09  4471088.8      4471042.1     5.02259650E-02  46.603232    
 1.15437002E-06 3.85368042E-09  4562231.1      4562183.3     5.16034126E-02  47.752728    
 1.16210319E-06 3.87949640E-09  4652612.8      4652563.8     5.29586561E-02  48.921402    
 1.16988818E-06 3.90548532E-09  4748899.2      4748848.9     5.44441669E-02  50.178007    
 1.17772531E-06 3.93164835E-09  4843628.0      4843576.5     5.58892810E-02  51.381203    
 1.18561494E-06 3.95798663E-09  4941048.1      4940995.4     5.73911961E-02  52.607246    
 1.19355743E-06 3.98450137E-09  5042470.1      5042416.2     5.89816481E-02  53.873083    
 1.20155313E-06 4.01119372E-09  5142366.9      5142311.8     6.05308535E-02  55.093992    
 1.20960239E-06 4.03806489E-09  5248047.1      5247990.6     6.22111890E-02  56.432997    
 1.21770557E-06 4.06511607E-09  5353477.1      5353419.3     6.38803901E-02  57.802947    
 1.22586303E-06 4.09234846E-09  5460382.5      5460323.3     6.55786011E-02  59.178028    
 1.23407514E-06 4.11976329E-09  5573237.2      5573176.5     6.74147828E-02  60.624217    
 1.24234227E-06 4.14736177E-09  5683650.4      5683588.3     6.91857085E-02  62.003874    
 1.25066478E-06 4.17514513E-09  5799635.2      5799571.7     7.10862379E-02  63.445816    
 1.25904304E-06 4.20311462E-09  5916968.2      5916903.2     7.30140351E-02  64.887447    
 1.26747742E-06 4.23127147E-09  6034276.5      6034210.1     7.49339981E-02  66.363458    
 1.27596831E-06 4.25961695E-09  6159845.3      6159777.2     7.70536346E-02  68.010432    
 1.28451608E-06 4.28815232E-09  6281881.1      6281811.5     7.90780115E-02  69.571905    
 1.29312111E-06 4.31687884E-09  6409169.4      6409098.2     8.12273796E-02  71.190878    
 1.30178379E-06 4.34579781E-09  6539741.4      6539668.5     8.34535648E-02  72.830095    
 1.31050450E-06 4.37491051E-09  6669279.6      6669205.1     8.56452540E-02  74.426733    
 1.31928362E-06 4.40421823E-09  6807338.7      6807262.5     8.80491930E-02  76.129442    
 1.32812156E-06 4.43372228E-09  6943046.6      6942968.6     9.03846827E-02  77.850612    
 1.33701871E-06 4.46342399E-09  7082733.1      7082653.3     9.28152282E-02  79.663083    
 1.34597546E-06 4.49332467E-09  7228029.2      7227947.5     9.53856813E-02  81.536019    
 1.35499221E-06 4.52342565E-09  7371202.0      7371118.6     9.78910430E-02  83.343203    
 1.36406936E-06 4.55372829E-09  7522727.9      7522642.6     0.10061027      85.245274    
 1.37320733E-06 4.58423392E-09  7673763.3      7673676.1     0.10330794      87.106713    
 1.38240650E-06 4.61494391E-09  7827047.7      7826958.7     0.10605616      88.985456    
 1.39166731E-06 4.64585962E-09  7988718.8      7988627.6     0.10902378      91.057318    
 1.40099015E-06 4.67698245E-09  8146960.3      8146867.1     0.11188770      93.101578    
 1.41037545E-06 4.70831376E-09  8313258.6      8313163.3     0.11496328      95.239146    
 1.41982361E-06 4.73985497E-09  8481342.4      8481244.9     0.11807889      97.364965    
 1.42933508E-06 4.77160747E-09  8649540.2      8649440.7     0.12118600      99.459783    
 1.43891026E-06 4.80357269E-09  8829421.0      8829319.2     0.12461176      101.68397    
 1.44854958E-06 4.83575204E-09  9004315.9      9004211.9     0.12788556      103.83026    
 1.45825348E-06 4.86814696E-09  9186817.8      9186711.5     0.13136385      106.16536    
 1.46802239E-06 4.90075889E-09  9373862.9      9373754.2     0.13496172      108.59418    
 1.47785673E-06 4.93358930E-09  9559507.5      9559396.4     0.13850610      110.96187    
 1.48775696E-06 4.96663964E-09  9757446.5      9757332.9     0.14239628      113.47140    
 1.49772351E-06 4.99991138E-09  9951845.4      9951729.4     0.14617072      115.88798    
 1.50775683E-06 5.03340601E-09  10152120.      10152001.     0.15010406      118.35084    
 1.51785736E-06 5.06712502E-09  10360252.      10360131.     0.15425835      120.91829    
 1.52802556E-06 5.10106992E-09  10565432.      10565309.     0.15830999      123.54642    
 1.53826187E-06 5.13524222E-09  10782675.      10782548.     0.16271042      126.36894    
 1.54856676E-06 5.16964344E-09  10999026.      10998896.     0.16707021      129.12828    
 1.55894067E-06 5.20427512E-09  11218792.      11218660.     0.17151767      131.89606    
 1.56938409E-06 5.23913879E-09  11450376.      11450241.     0.17631389      134.78297    
 1.57989746E-06 5.27423602E-09  11677145.      11677007.     0.18094539      137.56207    
 1.59048127E-06 5.30956836E-09  11915562.      11915422.     0.18592251      140.50247    
 1.60113597E-06 5.34513740E-09  12156328.      12156184.     0.19095779      143.61341    
 1.61186206E-06 5.38094472E-09  12397472.      12397325.     0.19598607      146.72233    
 1.62265999E-06 5.41699191E-09  12655134.      12654984.     0.20152275      150.02151    
 1.63353026E-06 5.45328058E-09  12905762.      12905609.     0.20681709      153.16695    
 1.64447336E-06 5.48981235E-09  13167405.      13167248.     0.21244594      156.41869    
 1.65548976E-06 5.52658885E-09  13435325.      13435165.     0.21826067      159.70216    
 1.66657996E-06 5.56361172E-09  13701353.      13701190.     0.22399258      162.98428    
 1.67774445E-06 5.60088261E-09  13985118.      13984951.     0.23028787      166.67341    
 1.68898374E-06 5.63840317E-09  14263567.      14263396.     0.23638781      170.25685    
 1.70029832E-06 5.67617509E-09  14550683.      14550509.     0.24275308      173.91332    
 1.71168869E-06 5.71420004E-09  14848800.      14848623.     0.24946713      177.66342    
 1.72315537E-06 5.75247973E-09  15142816.      15142634.     0.25601938      181.30437    
 1.73469887E-06 5.79101585E-09  15454247.      15454062.     0.26314040      185.11871    
 1.74631969E-06 5.82981012E-09  15764130.      15763941.     0.27018639      188.97787    
 1.75801837E-06 5.86886429E-09  16079184.      16078991.     0.27738371      193.05099    
 1.76979541E-06 5.90818007E-09  16410883.      16410685.     0.28513525      197.33647    
 1.78165135E-06 5.94775924E-09  16735826.      16735625.     0.29262523      201.45859    
 1.79358672E-06 5.98760354E-09  17077606.      17077400.     0.30067953      205.75224    
 1.80560203E-06 6.02771477E-09  17422450.      17422239.     0.30881727      210.01993    
 1.81769784E-06 6.06809470E-09  17768141.      17767927.     0.31695456      214.24394    
 1.82987468E-06 6.10874514E-09  18137182.      18136963.     0.32590289      218.87162    
 1.84213310E-06 6.14966790E-09  18496304.      18496080.     0.33446480      223.51624    
 1.85447363E-06 6.19086481E-09  18871369.      18871141.     0.34357381      228.34692    
 1.86689683E-06 6.23233769E-09  19255095.      19254861.     0.35297132      233.22053    
 1.87940326E-06 6.27408840E-09  19636277.      19636039.     0.36224085      237.99221    
 1.89199346E-06 6.31611880E-09  20043040.      20042797.     0.37242815      243.02694    
 1.90466801E-06 6.35843077E-09  20441837.      20441589.     0.38228636      247.90417    
 1.91742747E-06 6.40102618E-09  20853409.      20853156.     0.39258717      253.07248    
 1.93027240E-06 6.44390694E-09  21280373.      21280114.     0.40343817      258.61644    
 1.94320339E-06 6.48707497E-09  21701644.      21701379.     0.41403433      264.01895    
 1.95622099E-06 6.53053217E-09  22148055.      22147785.     0.42555793      269.68937    
 1.96932581E-06 6.57428050E-09  22591860.      22591585.     0.43694513      275.23767    
 1.98251841E-06 6.61832191E-09  23043469.      23043188.     0.44859250      280.81556    
 1.99579939E-06 6.66265834E-09  23518513.      23518226.     0.46112033      286.63242    
 2.00916934E-06 6.70729179E-09  23984084.      23983791.     0.47323297      292.50840    
 2.02262885E-06 6.75222424E-09  24473984.      24473684.     0.48626692      298.86779    
 2.03617854E-06 6.79745770E-09  24967844.      24967538.     0.49941862      305.20278    
 2.04981899E-06 6.84299417E-09  25463358.      25463046.     0.51258721      311.47441    
 2.06355082E-06 6.88883570E-09  25991865.      25991546.     0.52704935      318.08653    
 2.07737464E-06 6.93498432E-09  26506389.      26506064.     0.54089548      324.42701    
 2.09129106E-06 6.98144209E-09  27043986.      27043655.     0.55563631      331.01228    
 2.10530072E-06 7.02821109E-09  27593512.      27593173.     0.57082406      337.99500    
 2.11940422E-06 7.07529339E-09  28139633.      28139288.     0.58581452      345.06261    
 2.13360221E-06 7.12269110E-09  28722642.      28722289.     0.60229999      352.55298    
 2.14789530E-06 7.17040633E-09  29293741.      29293381.     0.61823192      359.76650    
 2.16228415E-06 7.21844121E-09  29883649.      29883282.     0.63490150      367.13281    
 2.17676939E-06 7.26679787E-09  30495075.      30494699.     0.65243842      374.66229    
 2.19135167E-06 7.31547848E-09  31098610.      31098228.     0.66957425      382.06408    
 2.20603163E-06 7.36448520E-09  31738429.      31738038.     0.68822228      390.22757    
 2.22080994E-06 7.41382021E-09  32373960.      32373561.     0.70662535      398.46232    
 2.23568724E-06 7.46348573E-09  33021235.      33020828.     0.72547414      406.74817    
 2.25066421E-06 7.51348396E-09  33701490.      33701074.     0.74572121      415.34987    
 2.26574151E-06 7.56381713E-09  34368470.      34368046.     0.76530943      423.66051    
 2.28091982E-06 7.61448748E-09  35070598.      35070165.     0.78640168      432.30117    
 2.29619980E-06 7.66549727E-09  35777783.      35777341.     0.80765653      440.99469    
 2.31158215E-06 7.71684879E-09  36487966.      36487515.     0.82896721      450.07547    
 2.32706754E-06 7.76854430E-09  37244751.      37244290.     0.85234059      459.90821    
 2.34265667E-06 7.82058613E-09  37981836.      37981366.     0.87473215      469.31810    
 2.35835023E-06 7.87297659E-09  38752302.      38751822.     0.89858669      479.04771    
 2.37414893E-06 7.92571802E-09  39539168.      39538678.     0.92313223      488.84432    
 2.39005346E-06 7.97881276E-09  40321500.      40321000.     0.94737435      498.46545    
 2.40606454E-06 8.03226319E-09  41157011.      41156502.     0.97405166      508.73946    
 2.42218287E-06 8.08607168E-09  41974752.      41974232.     0.99979928      519.27832    
 2.43840918E-06 8.14024064E-09  42820162.      42819631.      1.0267752      530.22677    
 2.45474420E-06 8.19477248E-09  43695630.      43695088.      1.0551175      541.41678    
 2.47118864E-06 8.24966963E-09  44560178.      44559625.      1.0828290      552.31023    
 2.48774324E-06 8.30493454E-09  45477074.      45476510.      1.1130060      563.72085    
 2.50440875E-06 8.36056967E-09  46387038.      46386462.      1.1427474      574.88809    
 2.52118589E-06 8.41657750E-09  47314632.      47314044.      1.1732500      586.32323    
 2.53807543E-06 8.47296053E-09  48288615.      48288014.      1.2059726      598.95242    
 2.55507811E-06 8.52972128E-09  49244007.      49243395.      1.2376500      611.28640    
 2.57219470E-06 8.58686227E-09  50250164.      50249538.      1.2717825      624.14002    
 2.58942595E-06 8.64438604E-09  51262683.      51262044.      1.3061329      636.88529    
 2.60677263E-06 8.70229518E-09  52280396.      52279745.      1.3406197      649.54018    
 2.62423551E-06 8.76059224E-09  53363908.      53363243.      1.3783951      662.81829    
 2.64181539E-06 8.81927985E-09  54419677.      54419000.      1.4146060      675.93871    
 2.65951303E-06 8.87836060E-09  55523725.      55523034.      1.4532087      690.24395    
 2.67732922E-06 8.93783714E-09  56650281.      56649575.      1.4928776      704.79958    
 2.69526477E-06 8.99771211E-09  57770835.      57770114.      1.5320810      719.07891    
 2.71332047E-06 9.05798819E-09  58968035.      58967300.      1.5752509      734.15107    
 2.73149713E-06 9.11866806E-09  60138768.      60138018.      1.6168615      748.67983    
 2.74979555E-06 9.17975443E-09  61350166.      61349400.      1.6605156      763.52927    
 2.76821656E-06 9.24125002E-09  62603518.      62602737.      1.7063209      779.20144    
 2.78676096E-06 9.30315757E-09  63841778.      63840981.      1.7511349      795.24074    
 2.80542960E-06 9.36547984E-09  65155547.      65154733.      1.7999682      812.22516    
 2.82422330E-06 9.42821962E-09  66458256.      66457425.      1.8480335      828.80370    
 2.84314290E-06 9.49137968E-09  67787369.      67786522.      1.8973951      845.51669    
 2.86218924E-06 9.55496287E-09  69181696.      69180831.      1.9502797      862.80471    
 2.88136318E-06 9.61897199E-09  70550008.      70549127.      2.0015071      879.59127    
 2.90066556E-06 9.68340992E-09  71991618.      71990719.      2.0567417      897.68604    
 2.92009725E-06 9.74827952E-09  73441080.      73440161.      2.1122560      916.51543    
 2.93965911E-06 9.81358368E-09  74899267.      74898330.      2.1680654      935.31183    
 2.95935202E-06 9.87932532E-09  76450321.      76449364.      2.2291165      955.06809    
 2.97917685E-06 9.94550737E-09  77962327.      77961351.      2.2876752      974.04475    
 2.99913449E-06 1.00121328E-08  79544133.      79543137.      2.3501440      993.65328    
 3.01922583E-06 1.00792045E-08  81156765.      81155749.      2.4142538      1013.4418    
 3.03945176E-06 1.01467255E-08  82761505.      82760469.      2.4776520      1033.6655    
 3.05981319E-06 1.02146989E-08  84476687.      84475629.      2.5475102      1056.0108    
 3.08031101E-06 1.02831276E-08  86152520.      86151440.      2.6147565      1077.5703    
 3.10094616E-06 1.03520148E-08  87888062.      87886959.      2.6854001      1099.6470    
 3.12171953E-06 1.04213634E-08  89682111.      89680986.      2.7594275      1122.1520    
 3.14263207E-06 1.04911766E-08  91455333.      91454186.      2.8318987      1144.1208    
 3.16368471E-06 1.05614574E-08  93337439.      93336269.      2.9109220      1167.2200    
 3.18487837E-06 1.06322091E-08  95202092.      95200899.      2.9886002      1190.8971    
 3.20621402E-06 1.07034348E-08  97106206.      97104987.      3.0684802      1215.6572    
 3.22769259E-06 1.07751376E-08  99101943.      99100699.      3.1539494      1241.3711    
 3.24931505E-06 1.08473207E-08 1.01061310E+08 1.01060040E+08  3.2367919      1266.2470    
 3.27108236E-06 1.09199874E-08 1.03126473E+08 1.03125178E+08  3.3261743      1292.1456    
 3.29299549E-06 1.09931409E-08 1.05201074E+08 1.05199753E+08  3.4158913      1317.8014    
 3.31505541E-06 1.10667844E-08 1.07290012E+08 1.07288665E+08  3.5062062      1343.4802    
 3.33726312E-06 1.11409213E-08 1.09509958E+08 1.09508583E+08  3.6048742      1371.8184    
 3.35961959E-06 1.12155548E-08 1.11674977E+08 1.11673573E+08  3.6995723      1399.9739    
 3.38212584E-06 1.12906884E-08 1.13940878E+08 1.13939445E+08  3.8006618      1429.1421    
 3.40478285E-06 1.13663252E-08 1.16248901E+08 1.16247439E+08  3.9042708      1458.4317    
 3.42759164E-06 1.14424687E-08 1.18546632E+08 1.18545141E+08  4.0067951      1487.2301    
 3.45055323E-06 1.15191223E-08 1.21003448E+08 1.21001927E+08  4.1198402      1517.5781    
 3.47366865E-06 1.15962894E-08 1.23401863E+08 1.23400312E+08  4.2285153      1547.1407    
 3.49693891E-06 1.16739735E-08 1.25887874E+08 1.25886291E+08  4.3428341      1578.9808    
 3.52036506E-06 1.17521780E-08 1.28455400E+08 1.28453783E+08  4.4624718      1612.4409    
 3.54394814E-06 1.18309064E-08 1.30994236E+08 1.30992586E+08  4.5796683      1645.0501    
 3.56768921E-06 1.19101621E-08 1.33690027E+08 1.33688343E+08  4.7075450      1679.2645    
 3.59158932E-06 1.19899488E-08 1.36358528E+08 1.36356810E+08  4.8330797      1712.6520    
 3.61564954E-06 1.20702701E-08 1.39085873E+08 1.39084122E+08  4.9623460      1746.3673    
 3.63987094E-06 1.21511293E-08 1.41941872E+08 1.41940086E+08  5.1004758      1781.5715    
 3.66425460E-06 1.22325303E-08 1.44747065E+08 1.44745243E+08  5.2344441      1817.7406    
 3.68880161E-06 1.23144766E-08 1.47704913E+08 1.47703051E+08  5.3790846      1856.2867    
 3.71351306E-06 1.23969718E-08 1.50673694E+08 1.50671794E+08  5.5240761      1894.3958    
 3.73839005E-06 1.24800197E-08 1.53665632E+08 1.53663693E+08  5.6702293      1932.3309    
 3.76343369E-06 1.25636239E-08 1.56842293E+08 1.56840315E+08  5.8296910      1972.0514    
 3.78864510E-06 1.26477882E-08 1.59941733E+08 1.59939717E+08  5.9828312      2010.3241    
 3.81402541E-06 1.27325163E-08 1.63186924E+08 1.63184867E+08  6.1464173      2050.4147    
 3.83957574E-06 1.28178120E-08 1.66489531E+08 1.66487432E+08  6.3138606      2093.2953    
 3.86529723E-06 1.29036791E-08 1.69778853E+08 1.69776710E+08  6.4796565      2136.0379    
 3.89119103E-06 1.29901214E-08 1.73297249E+08 1.73295061E+08  6.6625858      2181.2487    
 3.91725829E-06 1.30771428E-08 1.76729109E+08 1.76726877E+08  6.8382123      2224.6847    
 3.94350018E-06 1.31647472E-08 1.80289355E+08 1.80287078E+08  7.0232072      2269.2071    
 3.96991787E-06 1.32529384E-08 1.83963052E+08 1.83960731E+08  7.2165556      2314.4885    
 3.99651253E-06 1.33417205E-08 1.87597303E+08 1.87594936E+08  7.4060783      2359.6787    
 4.02328535E-06 1.34310972E-08 1.91457728E+08 1.91455310E+08  7.6130090      2409.9284    
 4.05023752E-06 1.35210728E-08 1.95275802E+08 1.95273335E+08  7.8158828      2459.4971    
 4.07737024E-06 1.36116511E-08 1.99181463E+08 1.99178945E+08  8.0250673      2509.6074    
 4.10468473E-06 1.37028361E-08 2.03267651E+08 2.03265082E+08  8.2483023      2561.3286    
 4.13218219E-06 1.37946320E-08 2.07282931E+08 2.07280311E+08  8.4649470      2611.5000    
