 OPTXAGNF AGN Spectrum Model Parameters: NLS, Astar 0.0                          
 M_BH:  2.0000E+07 M_0            L  :  0.5000     L/Ledd 
 D   :  1.5000E+18 cm             z  :   0.000     redshift 
 Rcor:   40.00     Rg             Ro :   4.000     Rg 
 C_T :  0.2000     keV            Tau:   15.00     Optical Depth 
 gam :   2.200     (-slope)       fpl:  0.2000     Fraction 
 E              0.5DeltaE      E.FE total     E.FE Disk      E.FE Compton   E.FE NonThermal
 (keV)          (keV)          E.E/cm2/s/E    E.E/cm2/s/E    E.E/cm2/s/E    E.E/cm2/s/E    
 1.00334952E-06 3.34952256E-09  3767704.3      3767633.1     1.47407738E-02  71.188196    
 1.01007101E-06 3.37196116E-09  3842382.9      3842311.6     1.51280593E-02  71.243865    
 1.01683752E-06 3.39455008E-09  3920208.6      3920137.3     1.55387006E-02  71.237865    
 1.02364936E-06 3.41729032E-09  4000183.4      4000112.1     1.59651355E-02  71.212203    
 1.03050683E-06 3.44018290E-09  4079456.0      4079384.7     1.63844303E-02  71.267598    
 1.03741024E-06 3.46322884E-09  4163873.7      4163802.5     1.68437259E-02  71.200420    
 1.04435990E-06 3.48642917E-09  4246997.5      4246926.3     1.72911200E-02  71.236092    
 1.05135611E-06 3.50978492E-09  4332408.3      4332337.0     1.77554761E-02  71.250093    
 1.05839920E-06 3.53329712E-09  4421407.6      4421336.3     1.82478508E-02  71.204378    
 1.06548946E-06 3.55696684E-09  4509030.0      4508958.7     1.87271559E-02  71.259862    
 1.07262722E-06 3.58079512E-09  4601687.4      4601616.1     1.92466859E-02  71.212644    
 1.07981280E-06 3.60478303E-09  4694206.0      4694134.7     1.97634523E-02  71.228305    
 1.08704652E-06 3.62893164E-09  4787936.5      4787865.2     2.02884958E-02  71.262322    
 1.09432869E-06 3.65324201E-09  4886973.1      4886901.9     2.08569410E-02  71.196540    
 1.10165965E-06 3.67771524E-09  4983824.4      4983753.1     2.14048447E-02  71.252114    
 1.10903971E-06 3.70235243E-09  5085521.0      5085449.7     2.19924523E-02  71.224870    
 1.11646922E-06 3.72715465E-09  5188490.2      5188419.0     2.25892738E-02  71.220506    
 1.12394850E-06 3.75212303E-09  5291345.9      5291274.6     2.31828746E-02  71.274552    
 1.13147788E-06 3.77725867E-09  5401545.6      5401474.4     2.38390685E-02  71.188690    
 1.13905770E-06 3.80256270E-09  5508597.4      5508526.1     2.44653882E-02  71.244354    
 1.14668830E-06 3.82803623E-09  5620209.7      5620138.5     2.51299291E-02  71.237097    
 1.15437002E-06 3.85368042E-09  5734803.3      5734732.1     2.58191240E-02  71.212694    
 1.16210319E-06 3.87949640E-09  5848439.8      5848368.5     2.64972092E-02  71.268084    
 1.16988818E-06 3.90548532E-09  5969503.3      5969432.1     2.72404732E-02  71.199651    
 1.17772531E-06 3.93164835E-09  6088607.4      6088536.1     2.79635249E-02  71.236581    
 1.18561494E-06 3.95798663E-09  6211096.4      6211025.2     2.87149969E-02  71.249324    
 1.19355743E-06 3.98450137E-09  6338619.4      6338548.2     2.95107681E-02  71.204870    
 1.20155313E-06 4.01119372E-09  6464223.4      6464152.1     3.02859017E-02  71.260349    
 1.20960239E-06 4.03806489E-09  6597102.1      6597030.8     3.11266460E-02  71.211875    
 1.21770557E-06 4.06511607E-09  6729665.8      6729594.5     3.19618193E-02  71.228795    
 1.22586303E-06 4.09234846E-09  6864085.0      6864013.7     3.28115077E-02  71.261553    
 1.23407514E-06 4.11976329E-09  7005988.0      7005916.8     3.37302295E-02  71.197033    
 1.24234227E-06 4.14736177E-09  7144819.2      7144747.9     3.46163007E-02  71.252602    
 1.25066478E-06 4.17514513E-09  7290659.3      7290588.0     3.55672189E-02  71.224101    
 1.25904304E-06 4.20311462E-09  7438195.0      7438123.7     3.65317806E-02  71.220997    
 1.26747742E-06 4.23127147E-09  7585699.1      7585627.7     3.74924226E-02  71.273783    
 1.27596831E-06 4.25961695E-09  7743594.8      7743523.5     3.85529710E-02  71.189184    
 1.28451608E-06 4.28815232E-09  7897045.4      7896974.1     3.95658565E-02  71.244842    
 1.29312111E-06 4.31687884E-09  8057103.6      8057032.3     4.06412813E-02  71.236328    
 1.30178379E-06 4.34579781E-09  8221292.5      8221221.3     4.17551416E-02  71.213186    
 1.31050450E-06 4.37491051E-09  8384180.3      8384109.0     4.28517419E-02  71.268570    
 1.31928362E-06 4.40421823E-09  8557788.0      8557716.8     4.40545415E-02  71.198882    
 1.32812156E-06 4.43372228E-09  8728436.9      8728365.6     4.52230925E-02  71.237070    
 1.33701871E-06 4.46342399E-09  8904090.8      8904019.6     4.64392049E-02  71.248555    
 1.34597546E-06 4.49332467E-09  9086802.2      9086730.9     4.77253202E-02  71.205363    
 1.35499221E-06 4.52342565E-09  9266841.4      9266770.1     4.89788670E-02  71.260836    
 1.36406936E-06 4.55372829E-09  9457389.9      9457318.7     5.03394232E-02  71.211107    
 1.37320733E-06 4.58423392E-09  9647320.6      9647249.3     5.16891883E-02  71.229285    
 1.38240650E-06 4.61494391E-09  9840080.5      9840009.2     5.30642534E-02  71.260784    
 1.39166731E-06 4.64585962E-09  10043392.      10043321.     5.45490900E-02  71.197527    
 1.40099015E-06 4.67698245E-09  10242388.      10242316.     5.59820447E-02  71.253089    
 1.41037545E-06 4.70831376E-09  10451520.      10451449.     5.75209015E-02  71.223332    
 1.41982361E-06 4.73985497E-09  10662899.      10662827.     5.90797889E-02  71.221488    
 1.42933508E-06 4.77160747E-09  10874420.      10874349.     6.06344217E-02  71.273014    
 1.43891026E-06 4.80357269E-09  11100641.      11100570.     6.23484896E-02  71.189678    
 1.44854958E-06 4.83575204E-09  11320588.      11320517.     6.39865278E-02  71.245331    
 1.45825348E-06 4.86814696E-09  11550106.      11550035.     6.57268818E-02  71.235559    
 1.46802239E-06 4.90075889E-09  11785340.      11785269.     6.75270727E-02  71.213678    
 1.47785673E-06 4.93358930E-09  12018811.      12018740.     6.93004938E-02  71.269056    
 1.48775696E-06 4.96663964E-09  12267753.      12267682.     7.12469409E-02  71.198114    
 1.49772351E-06 4.99991138E-09  12512238.      12512167.     7.31354766E-02  71.237559    
 1.50775683E-06 5.03340601E-09  12764117.      12764046.     7.51035161E-02  71.247786    
 1.51785736E-06 5.06712502E-09  13025884.      13025813.     7.71821154E-02  71.320741    
 1.52802556E-06 5.10106992E-09  13283935.      13283862.     7.92093495E-02  72.413620    
 1.53826187E-06 5.13524222E-09  13557166.      13557092.     8.14111006E-02  74.446536    
 1.54856676E-06 5.16964344E-09  13829274.      13829197.     8.35925188E-02  76.493657    
 1.55894067E-06 5.20427512E-09  14105680.      14105601.     8.58178056E-02  78.544090    
 1.56938409E-06 5.23913879E-09  14396957.      14396876.     8.82175912E-02  80.708458    
 1.57989746E-06 5.27423602E-09  14682174.      14682091.     9.05349625E-02  82.759870    
 1.59048127E-06 5.30956836E-09  14982049.      14981964.     9.30252667E-02  84.932858    
 1.60113597E-06 5.34513740E-09  15284878.      15284791.     9.55446755E-02  87.197434    
 1.61186206E-06 5.38094472E-09  15588182.      15588093.     9.80605745E-02  89.487916    
 1.62265999E-06 5.41699191E-09  15912276.      15912184.     0.10083086      91.960548    
 1.63353026E-06 5.45328058E-09  16227515.      16227421.     0.10347989      94.281367    
 1.64447336E-06 5.48981235E-09  16556616.      16556519.     0.10629629      96.699348    
 1.65548976E-06 5.52658885E-09  16893616.      16893517.     0.10920571      99.143517    
 1.66657996E-06 5.56361172E-09  17228235.      17228133.     0.11207368      101.53689    
 1.67774445E-06 5.60088261E-09  17585177.      17585073.     0.11522353      104.23664    
 1.68898374E-06 5.63840317E-09  17935425.      17935318.     0.11827566      106.88330    
 1.70029832E-06 5.67617509E-09  18296583.      18296473.     0.12146054      109.59277    
 1.71168869E-06 5.71420004E-09  18671587.      18671474.     0.12481993      112.38521    
 1.72315537E-06 5.75247973E-09  19041425.      19041310.     0.12809836      115.07051    
 1.73469887E-06 5.79101585E-09  19433186.      19433067.     0.13166139      117.91373    
 1.74631969E-06 5.82981012E-09  19822994.      19822874.     0.13518687      120.72002    
 1.75801837E-06 5.86886429E-09  20219311.      20219187.     0.13878808      123.68174    
 1.76979541E-06 5.90818007E-09  20636580.      20636453.     0.14266659      126.87297    
 1.78165135E-06 5.94775924E-09  21045342.      21045212.     0.14641423      129.91163    
 1.79358672E-06 5.98760354E-09  21475297.      21475164.     0.15044424      133.10119    
 1.80560203E-06 6.02771477E-09  21909108.      21908972.     0.15451599      136.26258    
 1.81769784E-06 6.06809470E-09  22343984.      22343844.     0.15858752      139.37850    
 1.82987468E-06 6.10874514E-09  22808254.      22808111.     0.16306487      142.75150    
 1.84213310E-06 6.14966790E-09  23260033.      23259887.     0.16734886      146.13788    
 1.85447363E-06 6.19086481E-09  23731883.      23731733.     0.17190661      149.71626    
 1.86689683E-06 6.23233769E-09  24214634.      24214481.     0.17660870      153.32834    
 1.87940326E-06 6.27408840E-09  24694181.      24694024.     0.18124677      156.84475    
 1.89199346E-06 6.31611880E-09  25205933.      25205772.     0.18634405      160.59070    
 1.90466801E-06 6.35843077E-09  25707653.      25707488.     0.19127667      164.17851    
 1.91742747E-06 6.40102618E-09  26225454.      26225286.     0.19643075      167.91128    
 1.93027240E-06 6.44390694E-09  26762633.      26762461.     0.20186012      171.99174    
 1.94320339E-06 6.48707497E-09  27292641.      27292465.     0.20716198      175.97156    
 1.95622099E-06 6.53053217E-09  27854302.      27854122.     0.21292791      180.17891    
 1.96932581E-06 6.57428050E-09  28412679.      28412494.     0.21862558      184.27558    
 1.98251841E-06 6.61832191E-09  28980878.      28980690.     0.22445343      188.39257    
 1.99579939E-06 6.66265834E-09  29578585.      29578392.     0.23072184      192.68792    
 2.00916934E-06 6.70729179E-09  30164360.      30164163.     0.23678249      196.91882    
 2.02262885E-06 6.75222424E-09  30780768.      30780566.     0.24330415      201.59813    
 2.03617854E-06 6.79745770E-09  31402160.      31401954.     0.24988472      206.27842    
 2.04981899E-06 6.84299417E-09  32025631.      32025420.     0.25647374      210.89952    
 2.06355082E-06 6.88883570E-09  32690647.      32690431.     0.26371002      215.80657    
 2.07737464E-06 6.93498432E-09  33338052.      33337831.     0.27063806      220.47641    
 2.09129106E-06 6.98144209E-09  34014509.      34014284.     0.27801378      225.31568    
 2.10530072E-06 7.02821109E-09  34705985.      34705755.     0.28561313      230.36679    
 2.11940422E-06 7.07529339E-09  35393170.      35392934.     0.29311376      235.54207    
 2.13360221E-06 7.12269110E-09  36126808.      36126567.     0.30136246      241.09317    
 2.14789530E-06 7.17040633E-09  36845443.      36845196.     0.30933417      246.40800    
 2.16228415E-06 7.21844121E-09  37587762.      37587510.     0.31767499      251.84557    
 2.17676939E-06 7.26679787E-09  38357179.      38356922.     0.32644979      257.41568    
 2.19135167E-06 7.31547848E-09  39116654.      39116391.     0.33502390      262.82686    
 2.20603163E-06 7.36448520E-09  39921824.      39921555.     0.34435468      268.73846    
 2.22080994E-06 7.41382021E-09  40721589.      40721314.     0.35356289      274.78251    
 2.23568724E-06 7.46348573E-09  41536142.      41535861.     0.36299412      280.89026    
 2.25066421E-06 7.51348396E-09  42392233.      42391945.     0.37312501      287.25401    
 2.26574151E-06 7.56381713E-09  43231595.      43231302.     0.38292623      293.37218    
 2.28091982E-06 7.61448748E-09  44115228.      44114928.     0.39348004      299.75835    
 2.29619980E-06 7.66549727E-09  45005226.      45004919.     0.40411520      306.11673    
 2.31158215E-06 7.71684879E-09  45898994.      45898681.     0.41477830      312.66550    
 2.32706754E-06 7.76854430E-09  46851464.      46851144.     0.42647352      319.90988    
 2.34265667E-06 7.82058613E-09  47779111.      47778784.     0.43767746      326.83588    
 2.35835023E-06 7.87297659E-09  48748803.      48748469.     0.44961345      334.01684    
 2.37414893E-06 7.92571802E-09  49739152.      49738810.     0.46189519      341.24777    
 2.39005346E-06 7.97881276E-09  50723781.      50723432.     0.47402511      348.32933    
 2.40606454E-06 8.03226319E-09  51775404.      51775048.     0.48737355      355.85961    
 2.42218287E-06 8.08607168E-09  52804630.      52804267.     0.50025678      363.45526    
 2.43840918E-06 8.14024064E-09  53868710.      53868338.     0.51375463      371.50165    
 2.45474420E-06 8.19477248E-09  54970655.      54970275.     0.52793619      379.76250    
 2.47118864E-06 8.24966963E-09  56058833.      56058445.     0.54180212      387.77946    
 2.48774324E-06 8.30493454E-09  57212963.      57212567.     0.55690172      396.20819    
 2.50440875E-06 8.36056967E-09  58358350.      58357945.     0.57178338      404.43549    
 2.52118589E-06 8.41657750E-09  59525944.      59525530.     0.58704592      412.77595    
 2.53807543E-06 8.47296053E-09  60751983.      60751561.     0.60341925      421.89655    
 2.55507811E-06 8.52972128E-09  61954588.      61954157.     0.61926964      430.96468    
 2.57219470E-06 8.58686227E-09  63221154.      63220713.     0.63634850      440.44861    
 2.58942595E-06 8.64438604E-09  64495729.      64495279.     0.65353643      449.84155    
 2.60677263E-06 8.70229518E-09  65776840.      65776380.     0.67079260      459.15665    
 2.62423551E-06 8.76059224E-09  67140864.      67140394.     0.68969429      468.96473    
 2.64181539E-06 8.81927985E-09  68469915.      68469436.     0.70781312      478.47384    
 2.65951303E-06 8.87836060E-09  69859799.      69859310.     0.72712882      488.82570    
 2.67732922E-06 8.93783714E-09  71278042.      71277541.     0.74697799      499.55524    
 2.69526477E-06 8.99771211E-09  72688707.      72688196.     0.76659429      510.06150    
 2.71332047E-06 9.05798819E-09  74195966.      74195444.     0.78819531      521.18875    
 2.73149713E-06 9.11866806E-09  75669854.      75669321.     0.80901609      531.88148    
 2.74979555E-06 9.17975443E-09  77194984.      77194441.     0.83085943      542.82210    
 2.76821656E-06 9.24125002E-09  78772985.      78772430.     0.85377914      554.14503    
 2.78676096E-06 9.30315757E-09  80331950.      80331383.     0.87620287      565.78951    
 2.80542960E-06 9.36547984E-09  81986083.      81985504.     0.90063782      578.31714    
 2.82422330E-06 9.42821962E-09  83626262.      83625671.     0.92468845      590.52246    
 2.84314290E-06 9.49137968E-09  85299711.      85299107.     0.94938771      602.82732    
 2.86218924E-06 9.55496287E-09  87055356.      87054739.     0.97584986      615.57816    
 2.88136318E-06 9.61897199E-09  88778192.      88777563.      1.0014828      627.90957    
 2.90066556E-06 9.68340992E-09  90593418.      90592776.      1.0291208      640.94049    
 2.92009725E-06 9.74827952E-09  92418527.      92417871.      1.0568989      654.68590    
 2.93965911E-06 9.81358368E-09  94254621.      94253951.      1.0848246      668.51653    
 2.95935202E-06 9.87932532E-09  96207783.      96207099.      1.1153732      683.08822    
 2.97917685E-06 9.94550737E-09  98111698.      98110999.      1.1446746      697.04829    
 2.99913449E-06 1.00121328E-08 1.00103601E+08 1.00102889E+08  1.1759326      711.49452    
 3.01922583E-06 1.00792045E-08 1.02134356E+08 1.02133629E+08  1.2080117      726.01417    
 3.03945176E-06 1.01467255E-08 1.04155140E+08 1.04154399E+08  1.2397348      740.55746    
 3.05981319E-06 1.02146989E-08 1.06315167E+08 1.06314409E+08  1.2746904      756.91239    
 3.08031101E-06 1.02831276E-08 1.08425558E+08 1.08424784E+08  1.3083390      772.77372    
 3.10094616E-06 1.03520148E-08 1.10611222E+08 1.10610431E+08  1.3436876      789.02883    
 3.12171953E-06 1.04213634E-08 1.12870646E+08 1.12869839E+08  1.3807295      805.61006    
 3.14263207E-06 1.04911766E-08 1.15103786E+08 1.15102963E+08  1.4169926      821.77034    
 3.16368471E-06 1.05614574E-08 1.17474217E+08 1.17473377E+08  1.4565344      838.70783    
 3.18487837E-06 1.06322091E-08 1.19822619E+08 1.19821761E+08  1.4954031      855.75984    
 3.20621402E-06 1.07034348E-08 1.22220761E+08 1.22219886E+08  1.5353736      873.85309    
 3.22769259E-06 1.07751376E-08 1.24734439E+08 1.24733545E+08  1.5781408      892.80013    
 3.24931505E-06 1.08473207E-08 1.27202222E+08 1.27201309E+08  1.6195938      911.09755    
 3.27108236E-06 1.09199874E-08 1.29803419E+08 1.29802487E+08  1.6643192      930.17583    
 3.29299549E-06 1.09931409E-08 1.32416496E+08 1.32415545E+08  1.7092121      949.06190    
 3.31505541E-06 1.10667844E-08 1.35047630E+08 1.35046660E+08  1.7544042      967.85002    
 3.33726312E-06 1.11409213E-08 1.37843989E+08 1.37842999E+08  1.8037761      988.27350    
 3.35961959E-06 1.12155548E-08 1.40571037E+08 1.40570026E+08  1.8511616      1008.8689    
 3.38212584E-06 1.12906884E-08 1.43425313E+08 1.43424281E+08  1.9017452      1030.3454    
 3.40478285E-06 1.13663252E-08 1.46332700E+08 1.46331647E+08  1.9535897      1051.9096    
 3.42759164E-06 1.14424687E-08 1.49227073E+08 1.49225998E+08  2.0048913      1073.0914    
 3.45055323E-06 1.15191223E-08 1.52322112E+08 1.52321014E+08  2.0614576      1095.4549    
 3.47366865E-06 1.15962894E-08 1.55343444E+08 1.55342325E+08  2.1158372      1117.0456    
 3.49693891E-06 1.16739735E-08 1.58475255E+08 1.58474113E+08  2.1730409      1139.9827    
 3.52036506E-06 1.17521780E-08 1.61709881E+08 1.61708714E+08  2.2329062      1164.4963    
 3.54394814E-06 1.18309064E-08 1.64908274E+08 1.64907083E+08  2.2915498      1188.4798    
 3.56768921E-06 1.19101621E-08 1.68304672E+08 1.68303456E+08  2.3555379      1213.6807    
 3.59158932E-06 1.19899488E-08 1.71666602E+08 1.71665362E+08  2.4183541      1238.2455    
 3.61564954E-06 1.20702701E-08 1.75102746E+08 1.75101480E+08  2.4830376      1263.0538    
 3.63987094E-06 1.21511293E-08 1.78701198E+08 1.78699907E+08  2.5521564      1288.7798    
 3.66425460E-06 1.22325303E-08 1.82235499E+08 1.82234182E+08  2.6191928      1314.8050    
 3.68880161E-06 1.23144766E-08 1.85962400E+08 1.85961055E+08  2.6915697      1343.0696    
 3.71351306E-06 1.23969718E-08 1.89703063E+08 1.89701690E+08  2.7641222      1371.1127    
 3.73839005E-06 1.24800197E-08 1.93472906E+08 1.93471504E+08  2.8372560      1399.0171    
 3.76343369E-06 1.25636239E-08 1.97475841E+08 1.97474410E+08  2.9170495      1428.2725    
 3.78864510E-06 1.26477882E-08 2.01381275E+08 2.01379816E+08  2.9936797      1456.4208    
 3.81402541E-06 1.27325163E-08 2.05470618E+08 2.05469129E+08  3.0755371      1485.6796    
 3.83957574E-06 1.28178120E-08 2.09632388E+08 2.09630868E+08  3.1593248      1516.5307    
 3.86529723E-06 1.29036791E-08 2.13777338E+08 2.13775787E+08  3.2422880      1547.8991    
 3.89119103E-06 1.29901214E-08 2.18211394E+08 2.18209810E+08  3.3338251      1581.1955    
 3.91725829E-06 1.30771428E-08 2.22536171E+08 2.22534554E+08  3.4217077      1613.1421    
 3.94350018E-06 1.31647472E-08 2.27022959E+08 2.27021310E+08  3.5142783      1645.9047    
 3.96991787E-06 1.32529384E-08 2.31652920E+08 2.31651238E+08  3.6110293      1679.2366    
 3.99651253E-06 1.33417205E-08 2.36233027E+08 2.36231311E+08  3.7058657      1712.0562    
 4.02328535E-06 1.34310972E-08 2.41098614E+08 2.41096862E+08  3.8094134      1748.2901    
 4.05023752E-06 1.35210728E-08 2.45910683E+08 2.45908894E+08  3.9109310      1784.7530    
 4.07737024E-06 1.36116511E-08 2.50833272E+08 2.50831446E+08  4.0156066      1821.6177    
 4.10468473E-06 1.37028361E-08 2.55983739E+08 2.55981876E+08  4.1273133      1859.6929    
 4.13218219E-06 1.37946320E-08 2.61044614E+08 2.61042714E+08  4.2357221      1896.5902    
