 OPTXAGNF AGN Spectrum Model Parameters: NLS, Astar 0.0                          
 M_BH:  2.0000E+07 M_0            L  :   1.000     L/Ledd 
 D   :  1.5000E+18 cm             z  :   0.000     redshift 
 Rcor:   40.00     Rg             Ro :   4.000     Rg 
 C_T :  0.2000     keV            Tau:   15.00     Optical Depth 
 gam :   2.200     (-slope)       fpl:  0.2000     Fraction 
 E              0.5DeltaE      E.FE total     E.FE Disk      E.FE Compton   E.FE NonThermal
 (keV)          (keV)          E.E/cm2/s/E    E.E/cm2/s/E    E.E/cm2/s/E    E.E/cm2/s/E    
 1.00334952E-06 3.34952256E-09  4477176.6      4477031.6     8.84431886E-03  145.00684    
 1.01007101E-06 3.37196116E-09  4565927.5      4565782.4     9.07668728E-03  145.12024    
 1.01683752E-06 3.39455008E-09  4658419.3      4658274.2     9.32306909E-03  145.10801    
 1.02364936E-06 3.41729032E-09  4753465.7      4753320.6     9.57892692E-03  145.05574    
 1.03050683E-06 3.44018290E-09  4847677.3      4847532.1     9.83050081E-03  145.16858    
 1.03741024E-06 3.46322884E-09  4948004.9      4947859.9     1.01060750E-02  145.03174    
 1.04435990E-06 3.48642917E-09  5046794.4      5046649.2     1.03745083E-02  145.10440    
 1.05135611E-06 3.50978492E-09  5148302.2      5148157.1     1.06531187E-02  145.13292    
 1.05839920E-06 3.53329712E-09  5254075.9      5253930.9     1.09485403E-02  145.03980    
 1.06548946E-06 3.55696684E-09  5358212.7      5358067.6     1.12361200E-02  145.15282    
 1.07262722E-06 3.58079512E-09  5468334.8      5468189.7     1.15478346E-02  145.05664    
 1.07981280E-06 3.60478303E-09  5578291.8      5578146.7     1.18578911E-02  145.08854    
 1.08704652E-06 3.62893164E-09  5689689.3      5689544.1     1.21729138E-02  145.15783    
 1.09432869E-06 3.65324201E-09  5807394.5      5807249.4     1.25139774E-02  145.02384    
 1.10165965E-06 3.67771524E-09  5922501.6      5922356.5     1.28427161E-02  145.13704    
 1.10903971E-06 3.70235243E-09  6043368.7      6043223.6     1.31952770E-02  145.08154    
 1.11646922E-06 3.72715465E-09  6165748.6      6165603.5     1.35533663E-02  145.07265    
 1.12394850E-06 3.75212303E-09  6287993.3      6287848.1     1.39095232E-02  145.18274    
 1.13147788E-06 3.77725867E-09  6418968.7      6418823.7     1.43032357E-02  145.00785    
 1.13905770E-06 3.80256270E-09  6546201.5      6546056.3     1.46790238E-02  145.12123    
 1.14668830E-06 3.82803623E-09  6678855.9      6678710.8     1.50777446E-02  145.10645    
 1.15437002E-06 3.85368042E-09  6815054.4      6814909.3     1.54912577E-02  145.05674    
 1.16210319E-06 3.87949640E-09  6950114.7      6949969.5     1.58981049E-02  145.16957    
 1.16988818E-06 3.90548532E-09  7094004.8      7093859.7     1.63440594E-02  145.03017    
 1.17772531E-06 3.93164835E-09  7235564.9      7235419.8     1.67778865E-02  145.10540    
 1.18561494E-06 3.95798663E-09  7381149.2      7381004.1     1.72287657E-02  145.13136    
 1.19355743E-06 3.98450137E-09  7532718.1      7532573.0     1.77062244E-02  145.04080    
 1.20155313E-06 4.01119372E-09  7682005.2      7681860.0     1.81713006E-02  145.15381    
 1.20960239E-06 4.03806489E-09  7839941.0      7839796.0     1.86757430E-02  145.05507    
 1.21770557E-06 4.06511607E-09  7997502.1      7997357.0     1.91768429E-02  145.08954    
 1.22586303E-06 4.09234846E-09  8157269.0      8157123.8     1.96866519E-02  145.15626    
 1.23407514E-06 4.11976329E-09  8325933.3      8325788.3     2.02378808E-02  145.02484    
 1.24234227E-06 4.14736177E-09  8490945.1      8490799.9     2.07695194E-02  145.13803    
 1.25066478E-06 4.17514513E-09  8664289.9      8664144.8     2.13400661E-02  145.07998    
 1.25904304E-06 4.20311462E-09  8839650.3      8839505.2     2.19187989E-02  145.07365    
 1.26747742E-06 4.23127147E-09  9014972.7      9014827.5     2.24951799E-02  145.18118    
 1.27596831E-06 4.25961695E-09  9202650.3      9202505.3     2.31315047E-02  145.00885    
 1.28451608E-06 4.28815232E-09  9385042.4      9384897.3     2.37392318E-02  145.12223    
 1.29312111E-06 4.31687884E-09  9575290.5      9575145.3     2.43844824E-02  145.10488    
 1.30178379E-06 4.34579781E-09  9770449.6      9770304.6     2.50527944E-02  145.05774    
 1.31050450E-06 4.37491051E-09  9964061.3      9963916.1     2.57107503E-02  145.17056    
 1.31928362E-06 4.40421823E-09  10170419.      10170274.     2.64324259E-02  145.02861    
 1.32812156E-06 4.43372228E-09  10373258.      10373113.     2.71335523E-02  145.10639    
 1.33701871E-06 4.46342399E-09  10582047.      10581902.     2.78632155E-02  145.12979    
 1.34597546E-06 4.49332467E-09  10799228.      10799083.     2.86348806E-02  145.04181    
 1.35499221E-06 4.52342565E-09  11013231.      11013086.     2.93870045E-02  145.15480    
 1.36406936E-06 4.55372829E-09  11239730.      11239585.     3.02033342E-02  145.05351    
 1.37320733E-06 4.58423392E-09  11465494.      11465349.     3.10131892E-02  145.09054    
 1.38240650E-06 4.61494391E-09  11694621.      11694476.     3.18382242E-02  145.15470    
 1.39166731E-06 4.64585962E-09  11936295.      11936150.     3.27291222E-02  145.02585    
 1.40099015E-06 4.67698245E-09  12172836.      12172691.     3.35888911E-02  145.13902    
 1.41037545E-06 4.70831376E-09  12421430.      12421285.     3.45122014E-02  145.07841    
 1.41982361E-06 4.73985497E-09  12672695.      12672550.     3.54475301E-02  145.07465    
 1.42933508E-06 4.77160747E-09  12924129.      12923983.     3.63803060E-02  145.17961    
 1.43891026E-06 4.80357269E-09  13193042.      13192897.     3.74087433E-02  145.00986    
 1.44854958E-06 4.83575204E-09  13454494.      13454349.     3.83915626E-02  145.12322    
 1.45825348E-06 4.86814696E-09  13727326.      13727181.     3.94357717E-02  145.10332    
 1.46802239E-06 4.90075889E-09  14006956.      14006811.     4.05158830E-02  145.05874    
 1.47785673E-06 4.93358930E-09  14284488.      14284342.     4.15799325E-02  145.17155    
 1.48775696E-06 4.96663964E-09  14580416.      14580271.     4.27477979E-02  145.02704    
 1.49772351E-06 4.99991138E-09  14871045.      14870900.     4.38809164E-02  145.10739    
 1.50775683E-06 5.03340601E-09  15170465.      15170320.     4.50617374E-02  145.12822    
 1.51785736E-06 5.06712502E-09  15481643.      15481498.     4.63088946E-02  145.04281    
 1.52802556E-06 5.10106992E-09  15788400.      15788255.     4.75252326E-02  145.15579    
 1.53826187E-06 5.13524222E-09  16113209.      16113064.     4.88462814E-02  145.05194    
 1.54856676E-06 5.16964344E-09  16436680.      16436535.     5.01551303E-02  145.09153    
 1.55894067E-06 5.20427512E-09  16765262.      16765116.     5.14903007E-02  145.15313    
 1.56938409E-06 5.23913879E-09  17111529.      17111383.     5.29301709E-02  145.02685    
 1.57989746E-06 5.27423602E-09  17450587.      17450442.     5.43205923E-02  145.14002    
 1.59048127E-06 5.30956836E-09  17807077.      17806932.     5.58147741E-02  145.07684    
 1.60113597E-06 5.34513740E-09  18167080.      18166935.     5.73264189E-02  145.07565    
 1.61186206E-06 5.38094472E-09  18527646.      18527501.     5.88359578E-02  145.17804    
 1.62265999E-06 5.41699191E-09  18912936.      18912791.     6.04981303E-02  145.01086    
 1.63353026E-06 5.45328058E-09  19287695.      19287550.     6.20875490E-02  145.12421    
 1.64447336E-06 5.48981235E-09  19678939.      19678793.     6.37773897E-02  145.10175    
 1.65548976E-06 5.52658885E-09  20079576.      20079431.     6.55230395E-02  145.05975    
 1.66657996E-06 5.56361172E-09  20477380.      20477235.     6.72438232E-02  145.17254    
 1.67774445E-06 5.60088261E-09  20901733.      20901587.     6.91337411E-02  145.02548    
 1.68898374E-06 5.63840317E-09  21318123.      21317978.     7.09650162E-02  145.10839    
 1.70029832E-06 5.67617509E-09  21747487.      21747342.     7.28759472E-02  145.12666    
 1.71168869E-06 5.71420004E-09  22193319.      22193174.     7.48915865E-02  145.04381    
 1.72315537E-06 5.75247973E-09  22633006.      22632860.     7.68586511E-02  145.15679    
 1.73469887E-06 5.79101585E-09  23098765.      23098620.     7.89964725E-02  145.05038    
 1.74631969E-06 5.82981012E-09  23562202.      23562057.     8.11117681E-02  145.09253    
 1.75801837E-06 5.86886429E-09  24033378.      24033232.     8.32724968E-02  145.15157    
 1.76979541E-06 5.90818007E-09  24529473.      24529328.     8.55996124E-02  145.02785    
 1.78165135E-06 5.94775924E-09  25015450.      25015304.     8.78482043E-02  145.14101    
 1.79358672E-06 5.98760354E-09  25526632.      25526487.     9.02662166E-02  145.07528    
 1.80560203E-06 6.02771477E-09  26042400.      26042255.     9.27092784E-02  145.07665    
 1.81769784E-06 6.06809470E-09  26559433.      26559288.     9.51522060E-02  145.17648    
 1.82987468E-06 6.10874514E-09  27111427.      27111282.     9.78386241E-02  145.01187    
 1.84213310E-06 6.14966790E-09  27648564.      27648418.     0.10040903      145.12521    
 1.85447363E-06 6.19086481E-09  28209572.      28209427.     0.10314369      145.10018    
 1.86689683E-06 6.23233769E-09  28783545.      28783400.     0.10596497      145.06075    
 1.87940326E-06 6.27408840E-09  29353705.      29353560.     0.10874782      145.17353    
 1.89199346E-06 6.31611880E-09  29962173.      29962028.     0.11180620      145.02391    
 1.90466801E-06 6.35843077E-09  30558705.      30558560.     0.11476579      145.10938    
 1.91742747E-06 6.40102618E-09  31174366.      31174221.     0.11785826      145.12509    
 1.93027240E-06 6.44390694E-09  31813075.      31812930.     0.12111590      145.04482    
 1.94320339E-06 6.48707497E-09  32443252.      32443107.     0.12429704      145.15778    
 1.95622099E-06 6.53053217E-09  33111082.      33110936.     0.12775662      145.04881    
 1.96932581E-06 6.57428050E-09  33775002.      33774856.     0.13117525      145.09353    
 1.98251841E-06 6.61832191E-09  34450605.      34450460.     0.13467198      145.15000    
 1.99579939E-06 6.66265834E-09  35161310.      35161165.     0.13843306      145.02886    
 2.00916934E-06 6.70729179E-09  35857817.      35857671.     0.14206948      145.14200    
 2.02262885E-06 6.75222424E-09  36590764.      36590619.     0.14598250      145.07371    
 2.03617854E-06 6.79745770E-09  37329639.      37329494.     0.14993088      145.07765    
 2.04981899E-06 6.84299417E-09  38070984.      38070839.     0.15388433      145.17491    
 2.06355082E-06 6.88883570E-09  38861754.      38861608.     0.15822613      145.01288    
 2.07737464E-06 6.93498432E-09  39631567.      39631422.     0.16238300      145.20756    
 2.09129106E-06 6.98144209E-09  40435945.      40435798.     0.16680847      146.73528    
 2.10530072E-06 7.02821109E-09  41258190.      41258040.     0.17136813      150.64107    
 2.11940422E-06 7.07529339E-09  42075327.      42075172.     0.17586855      154.72411    
 2.13360221E-06 7.12269110E-09  42947730.      42947571.     0.18081782      159.12915    
 2.14789530E-06 7.17040633E-09  43802279.      43802115.     0.18560090      163.29707    
 2.16228415E-06 7.21844121E-09  44685005.      44684837.     0.19060544      167.57758    
 2.17676939E-06 7.26679787E-09  45599969.      45599796.     0.19587038      171.99669    
 2.19135167E-06 7.31547848E-09  46503099.      46502923.     0.20101491      176.39993    
 2.20603163E-06 7.36448520E-09  47460597.      47460415.     0.20661344      181.30678    
 2.22080994E-06 7.41382021E-09  48411660.      48411473.     0.21213844      186.07270    
 2.23568724E-06 7.46348573E-09  49380314.      49380123.     0.21779724      190.86621    
 2.25066421E-06 7.51348396E-09  50398390.      50398194.     0.22387586      195.89688    
 2.26574151E-06 7.56381713E-09  51396558.      51396357.     0.22975667      200.68631    
 2.28091982E-06 7.61448748E-09  52447399.      52447193.     0.23608904      205.74425    
 2.29619980E-06 7.66549727E-09  53505810.      53505599.     0.24247022      210.97249    
 2.31158215E-06 7.71684879E-09  54568704.      54568487.     0.24886817      216.32543    
 2.32706754E-06 7.76854430E-09  55701445.      55701223.     0.25588540      222.07328    
 2.34265667E-06 7.82058613E-09  56804643.      56804416.     0.26260787      227.49237    
 2.35835023E-06 7.87297659E-09  57957870.      57957637.     0.26976957      233.14078    
 2.37414893E-06 7.92571802E-09  59135674.      59135435.     0.27713872      238.82929    
 2.39005346E-06 7.97881276E-09  60306666.      60306422.     0.28441679      244.39328    
 2.40606454E-06 8.03226319E-09  61557379.      61557128.     0.29242598      250.64644    
 2.42218287E-06 8.08607168E-09  62781433.      62781176.     0.30015605      256.81361    
 2.43840918E-06 8.14024064E-09  64046959.      64046695.     0.30825489      263.14694    
 2.45474420E-06 8.19477248E-09  65357542.      65357272.     0.31676397      269.64591    
 2.47118864E-06 8.24966963E-09  66651736.      66651459.     0.32508367      275.91657    
 2.48774324E-06 8.30493454E-09  68024414.      68024131.     0.33414359      282.55495    
 2.50440875E-06 8.36056967E-09  69386681.      69386392.     0.34307274      289.05213    
 2.52118589E-06 8.41657750E-09  70775371.      70775075.     0.35223043      295.93601    
 2.53807543E-06 8.47296053E-09  72233614.      72233311.     0.36205462      303.36334    
 2.55507811E-06 8.52972128E-09  73663960.      73663649.     0.37156503      310.45981    
 2.57219470E-06 8.58686227E-09  75170424.      75170106.     0.38181255      317.91148    
 2.58942595E-06 8.64438604E-09  76686415.      76686089.     0.39212551      325.27615    
 2.60677263E-06 8.70229518E-09  78210177.      78209844.     0.40247941      332.56403    
 2.62423551E-06 8.76059224E-09  79832618.      79832277.     0.41382066      340.36196    
 2.64181539E-06 8.81927985E-09  81413426.      81413077.     0.42469218      348.22984    
 2.65951303E-06 8.87836060E-09  83066634.      83066277.     0.43628185      356.59160    
 2.67732922E-06 8.93783714E-09  84753588.      84753222.     0.44819161      365.00563    
 2.69526477E-06 8.99771211E-09  86431514.      86431140.     0.45996164      373.21833    
 2.71332047E-06 9.05798819E-09  88224410.      88224028.     0.47292254      381.96694    
 2.73149713E-06 9.11866806E-09  89977576.      89977185.     0.48541529      390.32934    
 2.74979555E-06 9.17975443E-09  91791728.      91791329.     0.49852159      399.01571    
 2.76821656E-06 9.24125002E-09  93668809.      93668400.     0.51227374      408.45748    
 2.78676096E-06 9.30315757E-09  95523219.      95522801.     0.52572829      417.74959    
 2.80542960E-06 9.36547984E-09  97490908.      97490479.     0.54038962      427.58085    
 2.82422330E-06 9.42821962E-09  99441976.      99441539.     0.55482034      437.13018    
 2.84314290E-06 9.49137968E-09 1.01432640E+08 1.01432193E+08 0.56964026      446.75810    
 2.86218924E-06 9.55496287E-09 1.03521145E+08 1.03520688E+08 0.58551796      456.76360    
 2.88136318E-06 9.61897199E-09 1.05570582E+08 1.05570115E+08 0.60089811      466.59324    
 2.90066556E-06 9.68340992E-09 1.07729997E+08 1.07729519E+08 0.61748137      477.45704    
 2.92009725E-06 9.74827952E-09 1.09901167E+08 1.09900678E+08 0.63414863      488.36579    
 2.93965911E-06 9.81358368E-09 1.12085404E+08 1.12084904E+08 0.65090449      499.17615    
 2.95935202E-06 9.87932532E-09 1.14409003E+08 1.14408492E+08 0.66923415      510.60697    
 2.97917685E-06 9.94550737E-09 1.16673959E+08 1.16673437E+08 0.68681547      521.51470    
 2.99913449E-06 1.00121328E-08 1.19043660E+08 1.19043127E+08 0.70557079      532.82758    
 3.01922583E-06 1.00792045E-08 1.21459607E+08 1.21459062E+08 0.72481885      544.51868    
 3.03945176E-06 1.01467255E-08 1.23863668E+08 1.23863111E+08 0.74385321      556.54467    
 3.05981319E-06 1.02146989E-08 1.26433503E+08 1.26432933E+08 0.76482720      569.51853    
 3.08031101E-06 1.02831276E-08 1.28944227E+08 1.28943644E+08 0.78501696      581.91216    
 3.10094616E-06 1.03520148E-08 1.31544560E+08 1.31543964E+08 0.80622676      594.62793    
 3.12171953E-06 1.04213634E-08 1.34232707E+08 1.34232098E+08 0.82845256      607.61062    
 3.14263207E-06 1.04911766E-08 1.36889541E+08 1.36888920E+08 0.85021110      620.24492    
 3.16368471E-06 1.05614574E-08 1.39709837E+08 1.39709203E+08 0.87393691      633.94997    
 3.18487837E-06 1.06322091E-08 1.42503888E+08 1.42503240E+08 0.89725886      647.99621    
 3.20621402E-06 1.07034348E-08 1.45357151E+08 1.45356488E+08 0.92124192      662.28318    
 3.22769259E-06 1.07751376E-08 1.48347977E+08 1.48347299E+08 0.94690313      677.11559    
 3.24931505E-06 1.08473207E-08 1.51284134E+08 1.51283441E+08 0.97177570      691.40751    
 3.27108236E-06 1.09199874E-08 1.54379146E+08 1.54378439E+08 0.99861185      706.33786    
 3.29299549E-06 1.09931409E-08 1.57488291E+08 1.57487569E+08  1.0255485      721.14305    
 3.31505541E-06 1.10667844E-08 1.60618918E+08 1.60618181E+08  1.0526647      736.33217    
 3.33726312E-06 1.11409213E-08 1.63946295E+08 1.63945541E+08  1.0822889      753.17929    
 3.35961959E-06 1.12155548E-08 1.67191108E+08 1.67190337E+08  1.1107211      769.35888    
 3.38212584E-06 1.12906884E-08 1.70587421E+08 1.70586633E+08  1.1410724      786.15210    
 3.40478285E-06 1.13663252E-08 1.74046967E+08 1.74046163E+08  1.1721803      803.01243    
 3.42759164E-06 1.14424687E-08 1.77490992E+08 1.77490171E+08  1.2029623      819.55528    
 3.45055323E-06 1.15191223E-08 1.81173989E+08 1.81173150E+08  1.2369034      837.11545    
 3.47366865E-06 1.15962894E-08 1.84769180E+08 1.84768324E+08  1.2695324      854.68121    
 3.49693891E-06 1.16739735E-08 1.88495931E+08 1.88495056E+08  1.3038559      873.47704    
 3.52036506E-06 1.17521780E-08 1.92345119E+08 1.92344225E+08  1.3397764      892.73819    
 3.54394814E-06 1.18309064E-08 1.96151126E+08 1.96150213E+08  1.3749640      911.46681    
 3.56768921E-06 1.19101621E-08 2.00192953E+08 2.00192021E+08  1.4133584      931.17474    
 3.59158932E-06 1.19899488E-08 2.04193702E+08 2.04192751E+08  1.4510496      950.36426    
 3.61564954E-06 1.20702701E-08 2.08282823E+08 2.08281851E+08  1.4898612      969.80340    
 3.63987094E-06 1.21511293E-08 2.12565257E+08 2.12564264E+08  1.5313342      990.89752    
 3.66425460E-06 1.22325303E-08 2.16771247E+08 2.16770233E+08  1.5715577      1012.0731    
 3.68880161E-06 1.23144766E-08 2.21206636E+08 2.21205600E+08  1.6149856      1034.2535    
 3.71351306E-06 1.23969718E-08 2.25658392E+08 2.25657334E+08  1.6585190      1056.1604    
 3.73839005E-06 1.24800197E-08 2.30144876E+08 2.30143797E+08  1.7024012      1077.9518    
 3.76343369E-06 1.25636239E-08 2.34909014E+08 2.34907911E+08  1.7502794      1100.8229    
 3.78864510E-06 1.26477882E-08 2.39556966E+08 2.39555842E+08  1.7962595      1122.9151    
 3.81402541E-06 1.27325163E-08 2.44423984E+08 2.44422835E+08  1.8453761      1146.9612    
 3.83957574E-06 1.28178120E-08 2.49377256E+08 2.49376083E+08  1.8956510      1171.9842    
 3.86529723E-06 1.29036791E-08 2.54310453E+08 2.54309254E+08  1.9454312      1196.5293    
 3.89119103E-06 1.29901214E-08 2.59588059E+08 2.59586835E+08  2.0003559      1222.5501    
 3.91725829E-06 1.30771428E-08 2.64735433E+08 2.64734184E+08  2.0530879      1247.4937    
 3.94350018E-06 1.31647472E-08 2.70075798E+08 2.70074523E+08  2.1086330      1273.0834    
 3.96991787E-06 1.32529384E-08 2.75586716E+08 2.75585414E+08  2.1666863      1299.3325    
 3.99651253E-06 1.33417205E-08 2.81038192E+08 2.81036863E+08  2.2235909      1326.3752    
 4.02328535E-06 1.34310972E-08 2.86829787E+08 2.86828429E+08  2.2857225      1355.6645    
 4.05023752E-06 1.35210728E-08 2.92557573E+08 2.92556187E+08  2.3466361      1384.1347    
 4.07737024E-06 1.36116511E-08 2.98417007E+08 2.98415592E+08  2.4094445      1412.9199    
 4.10468473E-06 1.37028361E-08 3.04547944E+08 3.04546498E+08  2.4764719      1442.6601    
 4.13218219E-06 1.37946320E-08 3.10572074E+08 3.10570600E+08  2.5415205      1471.4661    
