 OPTXAGNF AGN Spectrum Model Parameters: BLS, Astar 0.0                          
 M_BH:  2.0000E+07 M_0            L  :  0.5000     L/Ledd 
 D   :  1.5000E+18 cm             z  :   0.000     redshift 
 Rcor:   60.00     Rg             Ro :   4.000     Rg 
 C_T :  0.2000     keV            Tau:   15.00     Optical Depth 
 gam :   1.800     (-slope)       fpl:  0.5000     Fraction 
 E              0.5DeltaE      E.FE total     E.FE Disk      E.FE Compton   E.FE NonThermal
 (keV)          (keV)          E.E/cm2/s/E    E.E/cm2/s/E    E.E/cm2/s/E    E.E/cm2/s/E    
 1.00334952E-06 3.34952256E-09  3736862.8      3736808.9     7.05748754E-02  53.855254    
 1.01007101E-06 3.37196116E-09  3810931.7      3810876.4     7.24290776E-02  55.211404    
 1.01683752E-06 3.39455008E-09  3888122.1      3888065.4     7.43950990E-02  56.620812    
 1.02364936E-06 3.41729032E-09  3967444.1      3967386.0     7.64367337E-02  58.052429    
 1.03050683E-06 3.44018290E-09  4046069.6      4046010.0     7.84441848E-02  59.467261    
 1.03741024E-06 3.46322884E-09  4129798.3      4129737.2     8.06431447E-02  61.074675    
 1.04435990E-06 3.48642917E-09  4212243.6      4212180.9     8.27851243E-02  62.630967    
 1.05135611E-06 3.50978492E-09  4296957.2      4296892.9     8.50083116E-02  64.216149    
 1.05839920E-06 3.53329712E-09  4385230.0      4385164.1     8.73656417E-02  65.857917    
 1.06548946E-06 3.55696684E-09  4472137.1      4472069.6     8.96603990E-02  67.432762    
 1.07262722E-06 3.58079512E-09  4564038.2      4563969.0     9.21477381E-02  69.096634    
 1.07981280E-06 3.60478303E-09  4655801.6      4655730.7     9.46218456E-02  70.773820    
 1.08704652E-06 3.62893164E-09  4748767.0      4748694.4     9.71355813E-02  72.536159    
 1.09432869E-06 3.65324201E-09  4846995.3      4846920.8     9.98571072E-02  74.418657    
 1.10165965E-06 3.67771524E-09  4943056.0      4942979.7     0.10248029      76.206405    
 1.10903971E-06 3.70235243E-09  5043922.5      5043844.3     0.10529356      78.079019    
 1.11646922E-06 3.72715465E-09  5146051.2      5145971.2     0.10815094      79.943538    
 1.12394850E-06 3.75212303E-09  5248067.2      5247985.3     0.11099290      81.772647    
 1.13147788E-06 3.77725867E-09  5357367.5      5357283.6     0.11413453      83.803408    
 1.13905770E-06 3.80256270E-09  5463545.4      5463459.5     0.11713313      85.819944    
 1.14668830E-06 3.82803623E-09  5574246.8      5574158.8     0.12031473      87.926643    
 1.15437002E-06 3.85368042E-09  5687905.1      5687814.9     0.12361435      90.063135    
 1.16210319E-06 3.87949640E-09  5800613.9      5800521.6     0.12686079      92.137723    
 1.16988818E-06 3.90548532E-09  5920689.3      5920594.8     0.13041928      94.343909    
 1.17772531E-06 3.93164835E-09  6038821.0      6038724.4     0.13388100      96.471113    
 1.18561494E-06 3.95798663E-09  6160310.3      6160211.4     0.13747878      98.716827    
 1.19355743E-06 3.98450137E-09  6286792.4      6286691.1     0.14128865      101.15159    
 1.20155313E-06 4.01119372E-09  6411371.1      6411267.5     0.14499972      103.50528    
 1.20960239E-06 4.03806489E-09  6543165.3      6543059.2     0.14902490      105.98916    
 1.21770557E-06 4.06511607E-09  6674646.9      6674538.3     0.15302341      108.41775    
 1.22586303E-06 4.09234846E-09  6807968.9      6807857.9     0.15709141      110.84764    
 1.23407514E-06 4.11976329E-09  6948713.6      6948600.0     0.16148991      113.40562    
 1.24234227E-06 4.14736177E-09  7086411.5      7086295.4     0.16573210      115.96136    
 1.25066478E-06 4.17514513E-09  7231061.3      7230942.4     0.17028475      118.74473    
 1.25904304E-06 4.20311462E-09  7377392.8      7377271.1     0.17490271      121.52552    
 1.26747742E-06 4.23127147E-09  7523692.9      7523568.4     0.17950191      124.25839    
 1.27596831E-06 4.25961695E-09  7680299.8      7680172.5     0.18457942      127.17433    
 1.28451608E-06 4.28815232E-09  7832497.8      7832367.7     0.18942874      129.94199    
 1.29312111E-06 4.31687884E-09  7991249.5      7991116.5     0.19457747      132.81982    
 1.30178379E-06 4.34579781E-09  8154098.3      8153962.2     0.19991021      135.88165    
 1.31050450E-06 4.37491051E-09  8315656.6      8315517.4     0.20516032      138.97105    
 1.31928362E-06 4.40421823E-09  8487847.4      8487704.9     0.21091886      142.26212    
 1.32812156E-06 4.43372228E-09  8657103.3      8656957.7     0.21651343      145.42506    
 1.33701871E-06 4.46342399E-09  8831323.5      8831174.6     0.22233571      148.64782    
 1.34597546E-06 4.49332467E-09  9012543.4      9012391.2     0.22849313      151.96326    
 1.35499221E-06 4.52342565E-09  9191112.9      9190957.5     0.23449463      155.19503    
 1.36406936E-06 4.55372829E-09  9380106.3      9379947.2     0.24100843      158.77074    
 1.37320733E-06 4.58423392E-09  9568486.8      9568324.1     0.24747058      162.38997    
 1.38240650E-06 4.61494391E-09  9759673.3      9759507.1     0.25405385      166.01526    
 1.39166731E-06 4.64585962E-09  9961325.5      9961155.4     0.26116265      169.80974    
 1.40099015E-06 4.67698245E-09  10158697.      10158523.     0.26802307      173.44845    
 1.41037545E-06 4.70831376E-09  10366122.      10365945.     0.27539049      177.24074    
 1.41982361E-06 4.73985497E-09  10575775.      10575594.     0.28285381      181.05556    
 1.42933508E-06 4.77160747E-09  10785570.      10785385.     0.29029677      185.02130    
 1.43891026E-06 4.80357269E-09  11009945.      11009756.     0.29850302      189.36537    
 1.44854958E-06 4.83575204E-09  11228097.      11227903.     0.30634528      193.49038    
 1.45825348E-06 4.86814696E-09  11455741.      11455543.     0.31467737      197.76006    
 1.46802239E-06 4.90075889E-09  11689056.      11688853.     0.32329594      202.07675    
 1.47785673E-06 4.93358930E-09  11920621.      11920414.     0.33178634      206.29444    
 1.48775696E-06 4.96663964E-09  12167530.      12167319.     0.34110511      210.80152    
 1.49772351E-06 4.99991138E-09  12410020.      12409805.     0.35014662      215.43229    
 1.50775683E-06 5.03340601E-09  12659843.      12659622.     0.35956876      220.23641    
 1.51785736E-06 5.06712502E-09  12919474.      12919248.     0.36952021      225.17464    
 1.52802556E-06 5.10106992E-09  13175417.      13175187.     0.37922574      229.95539    
 1.53826187E-06 5.13524222E-09  13446416.      13446181.     0.38976677      234.97457    
 1.54856676E-06 5.16964344E-09  13716301.      13716061.     0.40021046      239.89105    
 1.55894067E-06 5.20427512E-09  13990448.      13990203.     0.41086417      244.90105    
 1.56938409E-06 5.23913879E-09  14279346.      14279095.     0.42235328      250.46480    
 1.57989746E-06 5.27423602E-09  14562233.      14561977.     0.43344784      255.88231    
 1.59048127E-06 5.30956836E-09  14859658.      14859396.     0.44537031      261.53503    
 1.60113597E-06 5.34513740E-09  15160014.      15159747.     0.45743212      267.15488    
 1.61186206E-06 5.38094472E-09  15460840.      15460567.     0.46947713      272.70543    
 1.62265999E-06 5.41699191E-09  15782286.      15782007.     0.48274001      278.57452    
 1.63353026E-06 5.45328058E-09  16094950.      16094665.     0.49542237      284.33083    
 1.64447336E-06 5.48981235E-09  16421362.      16421071.     0.50890602      290.60568    
 1.65548976E-06 5.52658885E-09  16755610.      16755312.     0.52283496      297.03205    
 1.66657996E-06 5.56361172E-09  17087495.      17087191.     0.53656549      303.31010    
 1.67774445E-06 5.60088261E-09  17441521.      17441210.     0.55164555      309.95010    
 1.68898374E-06 5.63840317E-09  17788908.      17788591.     0.56625770      316.35238    
 1.70029832E-06 5.67617509E-09  18147114.      18146791.     0.58150541      322.87942    
 1.71168869E-06 5.71420004E-09  18519055.      18518725.     0.59758860      329.78528    
 1.72315537E-06 5.75247973E-09  18885872.      18885535.     0.61328421      336.83112    
 1.73469887E-06 5.79101585E-09  19274432.      19274087.     0.63034228      344.31169    
 1.74631969E-06 5.82981012E-09  19661057.      19660705.     0.64722062      351.62661    
 1.75801837E-06 5.86886429E-09  20054136.      20053776.     0.66446147      358.97248    
 1.76979541E-06 5.90818007E-09  20467996.      20467628.     0.68302991      366.61516    
 1.78165135E-06 5.94775924E-09  20873418.      20873044.     0.70097181      374.00077    
 1.79358672E-06 5.98760354E-09  21299861.      21299478.     0.72026551      381.94500    
 1.80560203E-06 6.02771477E-09  21730128.      21729737.     0.73975907      390.25235    
 1.81769784E-06 6.06809470E-09  22161452.      22161053.     0.75925156      398.51381    
 1.82987468E-06 6.10874514E-09  22621929.      22621521.     0.78068684      407.25495    
 1.84213310E-06 6.14966790E-09  23070018.      23069602.     0.80119650      415.60995    
 1.85447363E-06 6.19086481E-09  23538013.      23537588.     0.82301670      424.24234    
 1.86689683E-06 6.23233769E-09  24016820.      24016386.     0.84552796      432.98028    
 1.87940326E-06 6.27408840E-09  24492449.      24492006.     0.86773267      441.86277    
 1.89199346E-06 6.31611880E-09  25000021.      24999568.     0.89213584      451.70751    
 1.90466801E-06 6.35843077E-09  25497642.      25497180.     0.91575069      461.22608    
 1.91742747E-06 6.40102618E-09  26011214.      26010742.     0.94042578      470.94402    
 1.93027240E-06 6.44390694E-09  26544005.      26543523.     0.96641880      480.89517    
 1.94320339E-06 6.48707497E-09  27069683.      27069191.     0.99180136      490.57321    
 1.95622099E-06 6.53053217E-09  27626755.      27626253.      1.0194056      500.74555    
 1.96932581E-06 6.57428050E-09  28180570.      28180058.      1.0466830      511.17495    
 1.98251841E-06 6.61832191E-09  28744129.      28743606.      1.0745837      522.06967    
 1.99579939E-06 6.66265834E-09  29336954.      29336419.      1.1045935      533.44785    
 2.00916934E-06 6.70729179E-09  29917943.      29917397.      1.1336087      544.41193    
 2.02262885E-06 6.75222424E-09  30529315.      30528759.      1.1648309      555.82599    
 2.03617854E-06 6.79745770E-09  31145631.      31145063.      1.1963351      567.16492    
 2.04981899E-06 6.84299417E-09  31764009.      31763429.      1.2278797      578.44968    
 2.06355082E-06 6.88883570E-09  32423593.      32423000.      1.2625230      590.95874    
 2.07737464E-06 6.93498432E-09  33065709.      33065104.      1.2956907      603.37537    
 2.09129106E-06 6.98144209E-09  33736641.      33736023.      1.3310016      616.22850    
 2.10530072E-06 7.02821109E-09  34422468.      34421838.      1.3673830      629.18280    
 2.11940422E-06 7.07529339E-09  35104039.      35103396.      1.4032919      641.88149    
 2.13360221E-06 7.12269110E-09  35831684.      35831027.      1.4427819      655.26936    
 2.14789530E-06 7.17040633E-09  36544448.      36543778.      1.4809460      668.30370    
 2.16228415E-06 7.21844121E-09  37280704.      37280020.      1.5208771      682.30321    
 2.17676939E-06 7.26679787E-09  38043836.      38043137.      1.5628858      697.11114    
 2.19135167E-06 7.31547848E-09  38797107.      38796394.      1.6039338      711.49567    
 2.20603163E-06 7.36448520E-09  39595699.      39594971.      1.6486041      726.58622    
 2.22080994E-06 7.41382021E-09  40388931.      40388188.      1.6926876      741.34763    
 2.23568724E-06 7.46348573E-09  41196830.      41196072.      1.7378388      756.20186    
 2.25066421E-06 7.51348396E-09  42045927.      42045153.      1.7863396      771.73817    
 2.26574151E-06 7.56381713E-09  42878433.      42877644.      1.8332620      787.67944    
 2.28091982E-06 7.61448748E-09  43754848.      43754042.      1.8837873      804.67731    
 2.29619980E-06 7.66549727E-09  44637576.      44636753.      1.9347021      821.53666    
 2.31158215E-06 7.71684879E-09  45524044.      45523204.      1.9857506      838.24886    
 2.32706754E-06 7.76854430E-09  46468733.      46467875.      2.0417402      855.83608    
 2.34265667E-06 7.82058613E-09  47388802.      47387927.      2.0953779      872.72494    
 2.35835023E-06 7.87297659E-09  48350572.      48349680.      2.1525201      890.38674    
 2.37414893E-06 7.92571802E-09  49332832.      49331920.      2.2113175      909.31003    
 2.39005346E-06 7.97881276E-09  50309419.      50308488.      2.2693881      928.17152    
 2.40606454E-06 8.03226319E-09  51352452.      51351501.      2.3332920      948.12263    
 2.42218287E-06 8.08607168E-09  52373271.      52372301.      2.3949689      967.33340    
 2.43840918E-06 8.14024064E-09  53428658.      53427668.      2.4595881      986.96411    
 2.45474420E-06 8.19477248E-09  54521601.      54520591.      2.5274804      1007.0064    
 2.47118864E-06 8.24966963E-09  55600889.      55599860.      2.5938616      1026.9320    
 2.48774324E-06 8.30493454E-09  56745593.      56744541.      2.6661488      1049.0431    
 2.50440875E-06 8.36056967E-09  57881624.      57880551.      2.7373926      1070.9778    
 2.52118589E-06 8.41657750E-09  59039681.      59038585.      2.8104597      1093.0701    
 2.53807543E-06 8.47296053E-09  60255705.      60254586.      2.8888445      1115.9723    
 2.55507811E-06 8.52972128E-09  61448486.      61447345.      2.9647258      1138.1243    
 2.57219470E-06 8.58686227E-09  62704706.      62703541.      3.0464881      1161.1534    
 2.58942595E-06 8.64438604E-09  63968869.      63967681.      3.1287725      1184.6532    
 2.60677263E-06 8.70229518E-09  65239516.      65238303.      3.2113835      1209.1731    
 2.62423551E-06 8.76059224E-09  66592398.      66591159.      3.3018720      1235.3589    
 2.64181539E-06 8.81927985E-09  67910594.      67909330.      3.3886128      1260.4481    
 2.65951303E-06 8.87836060E-09  69289125.      69287835.      3.4810832      1286.3913    
 2.67732922E-06 8.93783714E-09  70695782.      70694466.      3.5761075      1312.4898    
 2.69526477E-06 8.99771211E-09  72094923.      72093581.      3.6700169      1338.1481    
 2.71332047E-06 9.05798819E-09  73589870.      73588500.      3.7734275      1366.0447    
 2.73149713E-06 9.11866806E-09  75051720.      75050322.      3.8731030      1394.3583    
 2.74979555E-06 9.17975443E-09  76564393.      76562966.      3.9776736      1423.5631    
 2.76821656E-06 9.24125002E-09  78129505.      78128048.      4.0873970      1453.3788    
 2.78676096E-06 9.30315757E-09  79675736.      79674249.      4.1947461      1482.4305    
 2.80542960E-06 9.36547984E-09  81316356.      81314839.      4.3117231      1512.8581    
 2.82422330E-06 9.42821962E-09  82943137.      82941590.      4.4268603      1542.6973    
 2.84314290E-06 9.49137968E-09  84602916.      84601338.      4.5451026      1573.7683    
 2.86218924E-06 9.55496287E-09  86344222.      86342609.      4.6717841      1607.6310    
 2.88136318E-06 9.61897199E-09  88052987.      88051341.      4.7944960      1640.5330    
 2.90066556E-06 9.68340992E-09  89853386.      89851706.      4.9268066      1674.8210    
 2.92009725E-06 9.74827952E-09  91663586.      91661872.      5.0597873      1708.7955    
 2.93965911E-06 9.81358368E-09  93484682.      93482934.      5.1934750      1742.5648    
 2.95935202E-06 9.87932532E-09  95421889.      95420106.      5.3397187      1778.0719    
 2.97917685E-06 9.94550737E-09  97310252.      97308433.      5.4799919      1813.6660    
 2.99913449E-06 1.00121328E-08  99285887.      99284029.      5.6296316      1852.0929    
 3.01922583E-06 1.00792045E-08 1.01300056E+08 1.01298159E+08  5.7832023      1890.8972    
 3.03945176E-06 1.01467255E-08 1.03304335E+08 1.03302400E+08  5.9350681      1928.9939    
 3.05981319E-06 1.02146989E-08 1.05446718E+08 1.05444742E+08  6.1024084      1969.2017    
 3.08031101E-06 1.02831276E-08 1.07539870E+08 1.07537856E+08  6.2634921      2007.9449    
 3.10094616E-06 1.03520148E-08 1.09707679E+08 1.09705625E+08  6.4327137      2047.7093    
 3.12171953E-06 1.04213634E-08 1.11948649E+08 1.11946552E+08  6.6100411      2090.2090    
 3.14263207E-06 1.04911766E-08 1.14163550E+08 1.14161410E+08  6.7836406      2133.2689    
 3.16368471E-06 1.05614574E-08 1.16514621E+08 1.16512435E+08  6.9729351      2178.5912    
 3.18487837E-06 1.06322091E-08 1.18843841E+08 1.18841611E+08  7.1590075      2222.8036    
 3.20621402E-06 1.07034348E-08 1.21222395E+08 1.21220120E+08  7.3503543      2267.4144    
 3.22769259E-06 1.07751376E-08 1.23715540E+08 1.23713219E+08  7.5550893      2313.5068    
 3.24931505E-06 1.08473207E-08 1.26163165E+08 1.26160799E+08  7.7535326      2358.4550    
 3.27108236E-06 1.09199874E-08 1.28743116E+08 1.28740700E+08  7.9676412      2407.6073    
 3.29299549E-06 1.09931409E-08 1.31334852E+08 1.31332386E+08  8.1825517      2458.0933    
 3.31505541E-06 1.10667844E-08 1.33944496E+08 1.33941980E+08  8.3988941      2508.2776    
 3.33726312E-06 1.11409213E-08 1.36718016E+08 1.36715447E+08  8.6352458      2560.9548    
 3.35961959E-06 1.12155548E-08 1.39422788E+08 1.39420168E+08  8.8620879      2611.5992    
 3.38212584E-06 1.12906884E-08 1.42253750E+08 1.42251077E+08  9.1042400      2663.9381    
 3.40478285E-06 1.13663252E-08 1.45137389E+08 1.45134662E+08  9.3524274      2716.8994    
 3.42759164E-06 1.14424687E-08 1.48008122E+08 1.48005340E+08  9.5980163      2771.8884    
 3.45055323E-06 1.15191223E-08 1.51077883E+08 1.51075042E+08  9.8688069      2831.8030    
 3.47366865E-06 1.15962894E-08 1.54074540E+08 1.54071640E+08  10.129130      2889.3181    
 3.49693891E-06 1.16739735E-08 1.57180771E+08 1.57177812E+08  10.402971      2948.2583    
 3.52036506E-06 1.17521780E-08 1.60388976E+08 1.60385957E+08  10.689554      3008.2820    
 3.54394814E-06 1.18309064E-08 1.63561244E+08 1.63558167E+08  10.970289      3066.9186    
 3.56768921E-06 1.19101621E-08 1.66929900E+08 1.66926760E+08  11.276607      3128.9329    
 3.59158932E-06 1.19899488E-08 1.70264373E+08 1.70261168E+08  11.577315      3193.2669    
 3.61564954E-06 1.20702701E-08 1.73672454E+08 1.73669182E+08  11.886962      3259.5499    
 3.63987094E-06 1.21511293E-08 1.77241517E+08 1.77238177E+08  12.217841      3328.1348    
 3.66425460E-06 1.22325303E-08 1.80746951E+08 1.80743544E+08  12.538751      3394.5380    
 3.68880161E-06 1.23144766E-08 1.84443411E+08 1.84439935E+08  12.885225      3463.6795    
 3.71351306E-06 1.23969718E-08 1.88153520E+08 1.88149975E+08  13.232540      3532.1243    
 3.73839005E-06 1.24800197E-08 1.91892571E+08 1.91888956E+08  13.582638      3601.2755    
 3.76343369E-06 1.25636239E-08 1.95862814E+08 1.95859122E+08  13.964615      3678.2058    
 3.78864510E-06 1.26477882E-08 1.99736353E+08 1.99732585E+08  14.331450      3753.3911    
 3.81402541E-06 1.27325163E-08 2.03792299E+08 2.03788453E+08  14.723306      3831.2759    
 3.83957574E-06 1.28178120E-08 2.07920077E+08 2.07916153E+08  15.124402      3909.4163    
 3.86529723E-06 1.29036791E-08 2.12031173E+08 2.12027171E+08  15.521552      3986.2970    
 3.89119103E-06 1.29901214E-08 2.16429011E+08 2.16424928E+08  15.959744      4067.3144    
 3.91725829E-06 1.30771428E-08 2.20718464E+08 2.20714301E+08  16.380442      4147.2189    
 3.94350018E-06 1.31647472E-08 2.25168610E+08 2.25164360E+08  16.823581      4233.4603    
 3.96991787E-06 1.32529384E-08 2.29760760E+08 2.29756420E+08  17.286730      4322.7278    
 3.99651253E-06 1.33417205E-08 2.34303461E+08 2.34299033E+08  17.740715      4409.7893    
 4.02328535E-06 1.34310972E-08 2.39129309E+08 2.39124790E+08  18.236399      4501.1437    
 4.05023752E-06 1.35210728E-08 2.43902075E+08 2.43897466E+08  18.722365      4590.2360    
 4.07737024E-06 1.36116511E-08 2.48784456E+08 2.48779757E+08  19.223448      4680.2783    
 4.10468473E-06 1.37028361E-08 2.53892858E+08 2.53888063E+08  19.758187      4775.8132    
 4.13218219E-06 1.37946320E-08 2.58912403E+08 2.58907509E+08  20.277140      4873.3270    
