 OPTXAGNF AGN Spectrum Model Parameters: NLS, Astar 0.0                          
 M_BH:  2.0000E+07 M_0            L  :  3.0000E-02 L/Ledd 
 D   :  1.5000E+18 cm             z  :   0.000     redshift 
 Rcor:   40.00     Rg             Ro :   4.000     Rg 
 C_T :  0.2000     keV            Tau:   15.00     Optical Depth 
 gam :   2.200     (-slope)       fpl:  0.2000     Fraction 
 E              0.5DeltaE      E.FE total     E.FE Disk      E.FE Compton   E.FE NonThermal
 (keV)          (keV)          E.E/cm2/s/E    E.E/cm2/s/E    E.E/cm2/s/E    E.E/cm2/s/E    
 1.00334952E-06 3.34952256E-09  1864088.0      1864016.9     0.12903261      70.915056    
 1.01007101E-06 3.37196116E-09  1901006.2      1900933.7     0.13242256      72.306592    
 1.01683752E-06 3.39455008E-09  1939478.0      1939404.1     0.13601694      73.778615    
 1.02364936E-06 3.41729032E-09  1979010.9      1978935.4     0.13974955      75.354613    
 1.03050683E-06 3.44018290E-09  2018197.8      2018120.7     0.14341968      76.906486    
 1.03741024E-06 3.46322884E-09  2059923.9      2059845.3     0.14743991      78.541316    
 1.04435990E-06 3.48642917E-09  2101012.1      2100931.8     0.15135597      80.126421    
 1.05135611E-06 3.50978492E-09  2143229.1      2143147.2     0.15542050      81.735725    
 1.05839920E-06 3.53329712E-09  2187217.3      2187133.7     0.15973026      83.391949    
 1.06548946E-06 3.55696684E-09  2230526.6      2230441.4     0.16392562      85.056861    
 1.07262722E-06 3.58079512E-09  2276320.8      2276233.7     0.16847306      86.886532    
 1.07981280E-06 3.60478303E-09  2322046.9      2321958.0     0.17299631      88.695916    
 1.08704652E-06 3.62893164E-09  2368371.4      2368280.7     0.17759200      90.506356    
 1.09432869E-06 3.65324201E-09  2417314.1      2417221.6     0.18256757      92.394347    
 1.10165965E-06 3.67771524E-09  2465179.3      2465084.9     0.18736335      94.215718    
 1.10903971E-06 3.70235243E-09  2515435.3      2515339.0     0.19250664      96.106373    
 1.11646922E-06 3.72715465E-09  2566319.6      2566221.3     0.19773057      98.076008    
 1.12394850E-06 3.75212303E-09  2617148.7      2617048.4     0.20292631      100.10427    
 1.13147788E-06 3.77725867E-09  2671600.7      2671498.2     0.20866989      102.26247    
 1.13905770E-06 3.80256270E-09  2724500.6      2724396.1     0.21415200      104.32482    
 1.14668830E-06 3.82803623E-09  2779650.5      2779543.9     0.21996864      106.45021    
 1.15437002E-06 3.85368042E-09  2836271.4      2836162.6     0.22600106      108.60144    
 1.16210319E-06 3.87949640E-09  2892420.9      2892310.0     0.23193624      110.71264    
 1.16988818E-06 3.90548532E-09  2952233.9      2952120.6     0.23844190      113.04024    
 1.17772531E-06 3.93164835E-09  3011081.3      3010965.7     0.24477064      115.39278    
 1.18561494E-06 3.95798663E-09  3071598.7      3071480.7     0.25134813      117.78467    
 1.19355743E-06 3.98450137E-09  3134599.0      3134478.5     0.25831334      120.24183    
 1.20155313E-06 4.01119372E-09  3196653.9      3196531.0     0.26509792      122.62935    
 1.20960239E-06 4.03806489E-09  3262296.3      3262170.9     0.27245674      125.12151    
 1.21770557E-06 4.06511607E-09  3327784.2      3327656.4     0.27976681      127.58820    
 1.22586303E-06 4.09234846E-09  3394188.0      3394057.6     0.28720391      130.18267    
 1.23407514E-06 4.11976329E-09  3464282.1      3464148.8     0.29524521      132.98809    
 1.24234227E-06 4.14736177E-09  3532862.8      3532726.8     0.30300075      135.69150    
 1.25066478E-06 4.17514513E-09  3604899.4      3604760.6     0.31132384      138.49908    
 1.25904304E-06 4.20311462E-09  3677772.7      3677631.0     0.31976633      141.29881    
 1.26747742E-06 4.23127147E-09  3750631.5      3750487.1     0.32817452      144.06511    
 1.27596831E-06 4.25961695E-09  3828613.0      3828465.7     0.33745711      147.00449    
 1.28451608E-06 4.28815232E-09  3904405.0      3904254.6     0.34632254      149.98705    
 1.29312111E-06 4.31687884E-09  3983454.6      3983301.1     0.35573532      153.14335    
 1.30178379E-06 4.34579781E-09  4064540.9      4064384.2     0.36548450      156.34070    
 1.31050450E-06 4.37491051E-09  4144987.2      4144827.4     0.37508260      159.47039    
 1.31928362E-06 4.40421823E-09  4230717.1      4230554.0     0.38561018      162.76208    
 1.32812156E-06 4.43372228E-09  4314990.2      4314823.8     0.39583800      165.95463    
 1.33701871E-06 4.46342399E-09  4401730.8      4401561.1     0.40648209      169.23627    
 1.34597546E-06 4.49332467E-09  4491949.9      4491776.7     0.41773884      172.80249    
 1.35499221E-06 4.52342565E-09  4580854.0      4580677.2     0.42871054      176.34395    
 1.36406936E-06 4.55372829E-09  4674936.9      4674756.4     0.44061879      180.05350    
 1.37320733E-06 4.58423392E-09  4768716.7      4768532.6     0.45243259      183.69637    
 1.38240650E-06 4.61494391E-09  4863891.8      4863704.0     0.46446782      187.34917    
 1.39166731E-06 4.64585962E-09  4964265.9      4964074.3     0.47746376      191.14476    
 1.40099015E-06 4.67698245E-09  5062515.6      5062320.2     0.49000562      194.88090    
 1.41037545E-06 4.70831376E-09  5165760.0      5165560.6     0.50347433      198.96923    
 1.41982361E-06 4.73985497E-09  5270112.2      5269908.5     0.51711835      203.12868    
 1.42933508E-06 4.77160747E-09  5374536.4      5374328.6     0.53072512      207.23692    
 1.43891026E-06 4.80357269E-09  5486201.7      5485989.5     0.54572724      211.57444    
 1.44854958E-06 4.83575204E-09  5594778.5      5594562.2     0.56006396      215.73376    
 1.45825348E-06 4.86814696E-09  5708070.5      5707849.9     0.57529613      220.01869    
 1.46802239E-06 4.90075889E-09  5824178.9      5823953.9     0.59105197      224.45017    
 1.47785673E-06 4.93358930E-09  5939421.3      5939191.7     0.60657352      229.02242    
 1.48775696E-06 4.96663964E-09  6062282.6      6062048.0     0.62360935      233.92485    
 1.49772351E-06 4.99991138E-09  6182952.0      6182712.7     0.64013835      238.66344    
 1.50775683E-06 5.03340601E-09  6307263.1      6307018.9     0.65736314      243.48784    
 1.51785736E-06 5.06712502E-09  6436444.0      6436194.9     0.67555551      248.43030    
 1.52802556E-06 5.10106992E-09  6563797.3      6563543.3     0.69329834      253.24857    
 1.53826187E-06 5.13524222E-09  6698624.8      6698365.7     0.71256849      258.40544    
 1.54856676E-06 5.16964344E-09  6832901.6      6832637.1     0.73166068      263.76068    
 1.55894067E-06 5.20427512E-09  6969296.3      6969026.3     0.75113678      269.18836    
 1.56938409E-06 5.23913879E-09  7113012.3      7112736.7     0.77214003      274.83553    
 1.57989746E-06 5.27423602E-09  7253748.1      7253467.0     0.79242200      280.28792    
 1.59048127E-06 5.30956836E-09  7401699.9      7401413.1     0.81421741      285.94670    
 1.60113597E-06 5.34513740E-09  7551108.0      7550815.6     0.83626752      291.59193    
 1.61186206E-06 5.38094472E-09  7700752.4      7700454.2     0.85828690      297.33476    
 1.62265999E-06 5.41699191E-09  7860628.6      7860324.0     0.88253255      303.74074    
 1.63353026E-06 5.45328058E-09  8016151.2      8015840.4     0.90571702      309.91461    
 1.64447336E-06 5.48981235E-09  8178496.4      8178179.1     0.93036621      316.28783    
 1.65548976E-06 5.52658885E-09  8344730.3      8344406.6     0.95582939      322.72196    
 1.66657996E-06 5.56361172E-09  8509795.9      8509465.9     0.98092988      329.03409    
 1.67774445E-06 5.60088261E-09  8685844.9      8685508.2      1.0084973      335.67412    
 1.68898374E-06 5.63840317E-09  8858604.9      8858261.5      1.0352093      342.35581    
 1.70029832E-06 5.67617509E-09  9036734.0      9036383.4      1.0630832      349.49109    
 1.71168869E-06 5.71420004E-09  9221676.2      9221318.3      1.0924842      356.84134    
 1.72315537E-06 5.75247973E-09  9404081.6      9403716.5      1.1211768      363.98882    
 1.73469887E-06 5.79101585E-09  9597270.6      9596898.0      1.1523599      371.46369    
 1.74631969E-06 5.82981012E-09  9789503.4      9789123.5      1.1832144      378.79979    
 1.75801837E-06 5.86886429E-09  9984939.9      9984552.5      1.2147315      386.17187    
 1.76979541E-06 5.90818007E-09  10190682.      10190286.      1.2486755      394.17428    
 1.78165135E-06 5.94775924E-09  10392246.      10391842.      1.2814741      402.25760    
 1.79358672E-06 5.98760354E-09  10604232.      10603820.      1.3167438      410.67880    
 1.80560203E-06 6.02771477E-09  10818118.      10817698.      1.3523787      419.05230    
 1.81769784E-06 6.06809470E-09  11032533.      11032104.      1.3880117      427.34481    
 1.82987468E-06 6.10874514E-09  11261398.      11260961.      1.4271960      436.06618    
 1.84213310E-06 6.14966790E-09  11484130.      11483684.      1.4646883      444.48431    
 1.85447363E-06 6.19086481E-09  11716730.      11716275.      1.5045762      453.57520    
 1.86689683E-06 6.23233769E-09  11954692.      11954227.      1.5457272      463.12689    
 1.87940326E-06 6.27408840E-09  12191084.      12190610.      1.5863179      472.49647    
 1.89199346E-06 6.31611880E-09  12443306.      12442822.      1.6309271      482.37259    
 1.90466801E-06 6.35843077E-09  12690604.      12690110.      1.6740954      491.91871    
 1.91742747E-06 6.40102618E-09  12945808.      12945305.      1.7192017      501.64986    
 1.93027240E-06 6.44390694E-09  13210537.      13210024.      1.7667169      511.66394    
 1.94320339E-06 6.48707497E-09  13471749.      13471226.      1.8131164      521.93331    
 1.95622099E-06 6.53053217E-09  13748516.      13747981.      1.8635767      533.04326    
 1.96932581E-06 6.57428050E-09  14023675.      14023129.      1.9134398      543.93715    
 1.98251841E-06 6.61832191E-09  14303665.      14303108.      1.9644420      554.88942    
 1.99579939E-06 6.66265834E-09  14598152.      14597584.      2.0192993      566.24832    
 2.00916934E-06 6.70729179E-09  14886786.      14886206.      2.0723387      577.24522    
 2.02262885E-06 6.75222424E-09  15190468.      15189878.      2.1294121      588.76000    
 2.03617854E-06 6.79745770E-09  15496605.      15496002.      2.1870010      600.87097    
 2.04981899E-06 6.84299417E-09  15803771.      15803155.      2.2446639      613.17144    
 2.06355082E-06 6.88883570E-09  16131339.      16130711.      2.3079906      626.15428    
 2.07737464E-06 6.93498432E-09  16450269.      16449628.      2.3686200      638.60654    
 2.09129106E-06 6.98144209E-09  16783467.      16782813.      2.4331669      651.45802    
 2.10530072E-06 7.02821109E-09  17124045.      17123378.      2.4996706      664.40847    
 2.11940422E-06 7.07529339E-09  17462525.      17461845.      2.5653104      677.29416    
 2.13360221E-06 7.12269110E-09  17823812.      17823117.      2.6374960      691.64281    
 2.14789530E-06 7.17040633E-09  18177743.      18177035.      2.7072580      705.81079    
 2.16228415E-06 7.21844121E-09  18543307.      18542584.      2.7802497      720.27930    
 2.17676939E-06 7.26679787E-09  18922174.      18921436.      2.8570389      735.06882    
 2.19135167E-06 7.31547848E-09  19296172.      19295420.      2.9320720      749.48465    
 2.20603163E-06 7.36448520E-09  19692598.      19691830.      3.0137260      764.54798    
 2.22080994E-06 7.41382021E-09  20086381.      20085598.      3.0943075      779.61525    
 2.23568724E-06 7.46348573E-09  20487430.      20486631.      3.1768405      795.56645    
 2.25066421E-06 7.51348396E-09  20908861.      20908045.      3.2654956      812.46739    
 2.26574151E-06 7.56381713E-09  21322099.      21321267.      3.3512660      828.79098    
 2.28091982E-06 7.61448748E-09  21757058.      21756209.      3.4436216      845.76732    
 2.29619980E-06 7.66549727E-09  22195148.      22194282.      3.5366890      862.62673    
 2.31158215E-06 7.71684879E-09  22635100.      22634217.      3.6300008      879.36403    
 2.32706754E-06 7.76854430E-09  23103844.      23102942.      3.7323437      897.33102    
 2.34265667E-06 7.82058613E-09  23560430.      23559510.      3.8303879      915.58812    
 2.35835023E-06 7.87297659E-09  24037641.      24036702.      3.9348374      934.70625    
 2.37414893E-06 7.92571802E-09  24524988.      24524030.      4.0423121      953.95621    
 2.39005346E-06 7.97881276E-09  25009547.      25008570.      4.1484584      972.85388    
 2.40606454E-06 8.03226319E-09  25526951.      25525954.      4.2652665      992.75086    
 2.42218287E-06 8.08607168E-09  26033392.      26032376.      4.3780041      1012.0054    
 2.43840918E-06 8.14024064E-09  26556928.      26555892.      4.4961194      1032.1409    
 2.45474420E-06 8.19477248E-09  27099031.      27097973.      4.6202170      1053.9252    
 2.47118864E-06 8.24966963E-09  27634405.      27633325.      4.7415528      1075.3237    
 2.48774324E-06 8.30493454E-09  28202104.      28201001.      4.8736828      1097.7540    
 2.50440875E-06 8.36056967E-09  28765534.      28764410.      5.0039059      1119.6949    
 2.52118589E-06 8.41657750E-09  29339859.      29338712.      5.1374614      1141.7937    
 2.53807543E-06 8.47296053E-09  29942824.      29941654.      5.2807360      1164.6730    
 2.55507811E-06 8.52972128E-09  30534330.      30533137.      5.4194348      1187.5649    
 2.57219470E-06 8.58686227E-09  31157176.      31155958.      5.5688822      1212.6585    
 2.58942595E-06 8.64438604E-09  31783961.      31782717.      5.7192837      1237.7055    
 2.60677263E-06 8.70229518E-09  32413965.      32412697.      5.8702823      1262.5669    
 2.62423551E-06 8.76059224E-09  33084578.      33083283.      6.0356782      1288.6771    
 2.64181539E-06 8.81927985E-09  33738089.      33736769.      6.1942244      1313.7921    
 2.65951303E-06 8.87836060E-09  34421398.      34420052.      6.3632424      1339.7118    
 2.67732922E-06 8.93783714E-09  35118606.      35117233.      6.5369278      1366.8798    
 2.69526477E-06 8.99771211E-09  35812129.      35810728.      6.7085756      1394.8374    
 2.71332047E-06 9.05798819E-09  36552941.      36551509.      6.8975883      1424.4809    
 2.73149713E-06 9.11866806E-09  37277445.      37275985.      7.0797741      1453.0245    
 2.74979555E-06 9.17975443E-09  38027044.      38025555.      7.2709066      1482.2093    
 2.76821656E-06 9.24125002E-09  38802529.      38801010.      7.4714563      1511.9712    
 2.78676096E-06 9.30315757E-09  39568727.      39567179.      7.6676664      1541.0867    
 2.80542960E-06 9.36547984E-09  40381499.      40379919.      7.8814728      1572.9366    
 2.82422330E-06 9.42821962E-09  41187472.      41185858.      8.0919165      1605.4655    
 2.84314290E-06 9.49137968E-09  42009742.      42008096.      8.3080350      1638.3085    
 2.86218924E-06 9.55496287E-09  42872229.      42870548.      8.5395769      1672.3081    
 2.88136318E-06 9.61897199E-09  43718703.      43716989.      8.7638637      1705.2312    
 2.90066556E-06 9.68340992E-09  44610373.      44608624.      9.0056931      1739.4527    
 2.92009725E-06 9.74827952E-09  45506900.      45505118.      9.2487469      1773.5800    
 2.93965911E-06 9.81358368E-09  46408832.      46407013.      9.4930924      1809.0970    
 2.95935202E-06 9.87932532E-09  47368008.      47366150.      9.7603850      1847.8783    
 2.97917685E-06 9.94550737E-09  48303148.      48301253.      10.016766      1885.1579    
 2.99913449E-06 1.00121328E-08  49281317.      49279383.      10.290265      1923.7099    
 3.01922583E-06 1.00792045E-08  50278499.      50276526.      10.570947      1962.4589    
 3.03945176E-06 1.01467255E-08  51270847.      51268835.      10.848514      2000.5730    
 3.05981319E-06 1.02146989E-08  52331245.      52329193.      11.154360      2040.9716    
 3.08031101E-06 1.02831276E-08  53367436.      53365342.      11.448773      2082.0988    
 3.10094616E-06 1.03520148E-08  54440430.      54438293.      11.758057      2125.4105    
 3.12171953E-06 1.04213634E-08  55549480.      55547298.      12.082155      2169.6687    
 3.14263207E-06 1.04911766E-08  56645735.      56643510.      12.399439      2212.8269    
 3.16368471E-06 1.05614574E-08  57809060.      57806790.      12.745406      2258.0298    
 3.18487837E-06 1.06322091E-08  58961669.      58959354.      13.085485      2302.2226    
 3.20621402E-06 1.07034348E-08  60138604.      60136244.      13.435202      2347.2419    
 3.22769259E-06 1.07751376E-08  61371972.      61369562.      13.809386      2396.4362    
 3.24931505E-06 1.08473207E-08  62582987.      62580528.      14.172071      2445.2728    
 3.27108236E-06 1.09199874E-08  63859152.      63856641.      14.563384      2496.2104    
 3.29299549E-06 1.09931409E-08  65141157.      65138595.      14.956163      2546.6428    
 3.31505541E-06 1.10667844E-08  66432023.      66429411.      15.351557      2596.8198    
 3.33726312E-06 1.11409213E-08  67803533.      67800868.      15.783518      2649.3359    
 3.35961959E-06 1.12155548E-08  69141286.      69138569.      16.198100      2700.7736    
 3.38212584E-06 1.12906884E-08  70541147.      70538373.      16.640660      2756.7570    
 3.40478285E-06 1.13663252E-08  71966956.      71964125.      17.094248      2814.3488    
 3.42759164E-06 1.14424687E-08  73386481.      73383592.      17.543087      2870.9238    
 3.45055323E-06 1.15191223E-08  74903888.      74900940.      18.037981      2930.6458    
 3.47366865E-06 1.15962894E-08  76385421.      76382415.      18.513745      2988.1542    
 3.49693891E-06 1.16739735E-08  77920868.      77917802.      19.014212      3047.0185    
 3.52036506E-06 1.17521780E-08  79506478.      79503351.      19.537963      3108.1642    
 3.54394814E-06 1.18309064E-08  81074503.      81071311.      20.051026      3171.1258    
 3.56768921E-06 1.19101621E-08  82739068.      82735809.      20.610840      3238.4440    
 3.59158932E-06 1.19899488E-08  84386902.      84383577.      21.160402      3304.0589    
 3.61564954E-06 1.20702701E-08  86070963.      86067571.      21.726298      3370.3242    
 3.63987094E-06 1.21511293E-08  87834143.      87830682.      22.330990      3438.7269    
 3.66425460E-06 1.22325303E-08  89566153.      89562625.      22.917467      3505.1654    
 3.68880161E-06 1.23144766E-08  91392025.      91388426.      23.550658      3575.7483    
 3.71351306E-06 1.23969718E-08  93224672.      93220998.      24.185384      3649.8168    
 3.73839005E-06 1.24800197E-08  95071611.      95067862.      24.825195      3724.3549    
 3.76343369E-06 1.25636239E-08  97032083.      97028255.      25.523259      3802.5233    
 3.78864510E-06 1.26477882E-08  98945183.      98941279.      26.193652      3877.7104    
 3.81402541E-06 1.27325163E-08 1.00947868E+08 1.00943886E+08  26.909767      3955.4444    
 3.83957574E-06 1.28178120E-08 1.02985874E+08 1.02981813E+08  27.642765      4033.5222    
 3.86529723E-06 1.29036791E-08 1.05015796E+08 1.05011655E+08  28.368552      4112.3241    
 3.89119103E-06 1.29901214E-08 1.07186442E+08 1.07182212E+08  29.169331      4200.5497    
 3.91725829E-06 1.30771428E-08 1.09304026E+08 1.09299711E+08  29.938145      4285.8859    
 3.94350018E-06 1.31647472E-08 1.11500506E+08 1.11496101E+08  30.747965      4373.4190    
 3.96991787E-06 1.32529384E-08 1.13766693E+08 1.13762199E+08  31.594347      4462.4839    
 3.99651253E-06 1.33417205E-08 1.16008750E+08 1.16004168E+08  32.423983      4549.5256    
 4.02328535E-06 1.34310972E-08 1.18389686E+08 1.18385012E+08  33.329811      4640.6311    
 4.05023752E-06 1.35210728E-08 1.20744713E+08 1.20739946E+08  34.217883      4732.8371    
 4.07737024E-06 1.36116511E-08 1.23153577E+08 1.23148711E+08  35.133575      4830.8004    
 4.10468473E-06 1.37028361E-08 1.25673277E+08 1.25668309E+08  36.110763      4932.5623    
 4.13218219E-06 1.37946320E-08 1.28149567E+08 1.28144499E+08  37.059106      5031.1219    
