 OPTXAGNF AGN Spectrum Model Parameters: BLS, Astar 0.0                          
 M_BH:  2.0000E+08 M_0            L  :   1.000     L/Ledd 
 D   :  1.5000E+18 cm             z  :   0.000     redshift 
 Rcor:   60.00     Rg             Ro :   4.000     Rg 
 C_T :  0.2000     keV            Tau:   15.00     Optical Depth 
 gam :   1.800     (-slope)       fpl:  0.5000     Fraction 
 E              0.5DeltaE      E.FE total     E.FE Disk      E.FE Compton   E.FE NonThermal
 (keV)          (keV)          E.E/cm2/s/E    E.E/cm2/s/E    E.E/cm2/s/E    E.E/cm2/s/E    
 1.00334952E-06 3.34952256E-09 2.49974426E+08 2.49964109E+08  24.714719      10292.392    
 1.01007101E-06 3.37196116E-09 2.54927242E+08 2.54916713E+08  25.364027      10503.688    
 1.01683752E-06 3.39455008E-09 2.60088641E+08 2.60077893E+08  26.052492      10721.521    
 1.02364936E-06 3.41729032E-09 2.65392474E+08 2.65381505E+08  26.767435      10942.248    
 1.03050683E-06 3.44018290E-09 2.70649803E+08 2.70638617E+08  27.470407      11158.455    
 1.03741024E-06 3.46322884E-09 2.76248102E+08 2.76236679E+08  28.240440      11395.220    
 1.04435990E-06 3.48642917E-09 2.81760696E+08 2.81749031E+08  28.990520      11635.705    
 1.05135611E-06 3.50978492E-09 2.87424859E+08 2.87412948E+08  29.769036      11880.869    
 1.05839920E-06 3.53329712E-09 2.93326829E+08 2.93314665E+08  30.594525      12133.125    
 1.06548946E-06 3.55696684E-09 2.99137594E+08 2.99125185E+08  31.398103      12377.837    
 1.07262722E-06 3.58079512E-09 3.05282001E+08 3.05269336E+08  32.269117      12633.464    
 1.07981280E-06 3.60478303E-09 3.11417241E+08 3.11404322E+08  33.135497      12886.190    
 1.08704652E-06 3.62893164E-09 3.17632822E+08 3.17619638E+08  34.015754      13149.806    
 1.09432869E-06 3.65324201E-09 3.24199999E+08 3.24186527E+08  34.968772      13437.238    
 1.10165965E-06 3.67771524E-09 3.30622422E+08 3.30608672E+08  35.887353      13714.424    
 1.10903971E-06 3.70235243E-09 3.37365897E+08 3.37351858E+08  36.872495      14002.413    
 1.11646922E-06 3.72715465E-09 3.44193716E+08 3.44179389E+08  37.873085      14289.784    
 1.12394850E-06 3.75212303E-09 3.51014054E+08 3.50999441E+08  38.868274      14573.306    
 1.13147788E-06 3.77725867E-09 3.58320962E+08 3.58306048E+08  39.968399      14874.529    
 1.13905770E-06 3.80256270E-09 3.65419374E+08 3.65404155E+08  41.018440      15177.770    
 1.14668830E-06 3.82803623E-09 3.72819965E+08 3.72804422E+08  42.132557      15501.060    
 1.15437002E-06 3.85368042E-09 3.80418087E+08 3.80402215E+08  43.288005      15829.393    
 1.16210319E-06 3.87949640E-09 3.87952847E+08 3.87936652E+08  44.424827      16150.390    
 1.16988818E-06 3.90548532E-09 3.95979643E+08 3.95963109E+08  45.670919      16488.243    
 1.17772531E-06 3.93164835E-09 4.03876672E+08 4.03859810E+08  46.883125      16815.890    
 1.18561494E-06 3.95798663E-09 4.11997984E+08 4.11980784E+08  48.142975      17151.276    
 1.19355743E-06 3.98450137E-09 4.20452795E+08 4.20435231E+08  49.477090      17514.542    
 1.20155313E-06 4.01119372E-09 4.28780554E+08 4.28762625E+08  50.776608      17877.712    
 1.20960239E-06 4.03806489E-09 4.37590220E+08 4.37571909E+08  52.186116      18258.450    
 1.21770557E-06 4.06511607E-09 4.46379064E+08 4.46360378E+08  53.586285      18632.478    
 1.22586303E-06 4.09234846E-09 4.55290865E+08 4.55271803E+08  55.010787      19007.142    
 1.23407514E-06 4.11976329E-09 4.64698386E+08 4.64678932E+08  56.551018      19397.095    
 1.24234227E-06 4.14736177E-09 4.73902513E+08 4.73882677E+08  58.036512      19778.372    
 1.25066478E-06 4.17514513E-09 4.83570922E+08 4.83550667E+08  59.630717      20194.959    
 1.25904304E-06 4.20311462E-09 4.93351688E+08 4.93331005E+08  61.247793      20622.190    
 1.26747742E-06 4.23127147E-09 5.03130429E+08 5.03109322E+08  62.858297      21043.584    
 1.27596831E-06 4.25961695E-09 5.13597422E+08 5.13575868E+08  64.636285      21489.354    
 1.28451608E-06 4.28815232E-09 5.23770099E+08 5.23748117E+08  66.334370      21916.173    
 1.29312111E-06 4.31687884E-09 5.34380421E+08 5.34357997E+08  68.137296      22355.918    
 1.30178379E-06 4.34579781E-09 5.45264355E+08 5.45241477E+08  70.004654      22807.777    
 1.31050450E-06 4.37491051E-09 5.56062223E+08 5.56038876E+08  71.843077      23274.624    
 1.31928362E-06 4.40421823E-09 5.67570036E+08 5.67546184E+08  73.859532      23778.016    
 1.32812156E-06 4.43372228E-09 5.78881983E+08 5.78857642E+08  75.818572      24264.670    
 1.33701871E-06 4.46342399E-09 5.90525431E+08 5.90500593E+08  77.857342      24759.781    
 1.34597546E-06 4.49332467E-09 6.02636250E+08 6.02610902E+08  80.013463      25267.637    
 1.35499221E-06 4.52342565E-09 6.14570220E+08 6.14544376E+08  82.114987      25761.983    
 1.36406936E-06 4.55372829E-09 6.27200122E+08 6.27173751E+08  84.395898      26286.845    
 1.37320733E-06 4.58423392E-09 6.39789223E+08 6.39762302E+08  86.658718      26835.120    
 1.38240650E-06 4.61494391E-09 6.52565746E+08 6.52538265E+08  88.963950      27392.145    
 1.39166731E-06 4.64585962E-09 6.66040946E+08 6.66012882E+08  91.453199      27972.568    
 1.40099015E-06 4.67698245E-09 6.79230492E+08 6.79201866E+08  93.855473      28532.301    
 1.41037545E-06 4.70831376E-09 6.93091248E+08 6.93062038E+08  96.435277      29113.293    
 1.41982361E-06 4.73985497E-09 7.07100778E+08 7.07070986E+08  99.048659      29692.385    
 1.42933508E-06 4.77160747E-09 7.21119876E+08 7.21089498E+08  101.65491      30276.421    
 1.43891026E-06 4.80357269E-09 7.36112258E+08 7.36081220E+08  104.52842      30933.500    
 1.44854958E-06 4.83575204E-09 7.50689368E+08 7.50657693E+08  107.27449      31567.399    
 1.45825348E-06 4.86814696E-09 7.65900185E+08 7.65867853E+08  110.19207      32221.729    
 1.46802239E-06 4.90075889E-09 7.81489486E+08 7.81456490E+08  113.20995      32882.944    
 1.47785673E-06 4.93358930E-09 7.96962186E+08 7.96928538E+08  116.18296      33531.044    
 1.48775696E-06 4.96663964E-09 8.13459016E+08 8.13424684E+08  119.44602      34212.010    
 1.49772351E-06 4.99991138E-09 8.29661051E+08 8.29626035E+08  122.61199      34893.239    
 1.50775683E-06 5.03340601E-09 8.46352576E+08 8.46316827E+08  125.91124      35623.236    
 1.51785736E-06 5.06712502E-09 8.63698715E+08 8.63662207E+08  129.39583      36378.769    
 1.52802556E-06 5.10106992E-09 8.80798960E+08 8.80761715E+08  132.79431      37112.741    
 1.53826187E-06 5.13524222E-09 8.98903991E+08 8.98865974E+08  136.48533      37880.437    
 1.54856676E-06 5.16964344E-09 9.16934778E+08 9.16896004E+08  140.14226      38634.256    
 1.55894067E-06 5.20427512E-09 9.35250156E+08 9.35210621E+08  143.87273      39390.893    
 1.56938409E-06 5.23913879E-09 9.54549884E+08 9.54509529E+08  147.89572      40207.005    
 1.57989746E-06 5.27423602E-09 9.73448710E+08 9.73407524E+08  151.78055      41033.814    
 1.59048127E-06 5.30956836E-09 9.93317728E+08 9.93275673E+08  155.95527      41898.669    
 1.60113597E-06 5.34513740E-09 1.01338242E+09 1.01333950E+09  160.17877      42759.279    
 1.61186206E-06 5.38094472E-09 1.03347865E+09 1.03343488E+09  164.39639      43610.596    
 1.62265999E-06 5.41699191E-09 1.05495069E+09 1.05490601E+09  169.04043      44507.263    
 1.63353026E-06 5.45328058E-09 1.07583702E+09 1.07579147E+09  173.48121      45371.131    
 1.64447336E-06 5.48981235E-09 1.09764074E+09 1.09759427E+09  178.20255      46296.732    
 1.65548976E-06 5.52658885E-09 1.11996734E+09 1.11991988E+09  183.07980      47275.714    
 1.66657996E-06 5.56361172E-09 1.14213658E+09 1.14208815E+09  187.88758      48238.100    
 1.67774445E-06 5.60088261E-09 1.16578290E+09 1.16573345E+09  193.16788      49252.649    
 1.68898374E-06 5.63840317E-09 1.18898658E+09 1.18893615E+09  198.28434      50233.678    
 1.70029832E-06 5.67617509E-09 1.21291217E+09 1.21286074E+09  203.62333      51232.998    
 1.71168869E-06 5.71420004E-09 1.23775401E+09 1.23770154E+09  209.25486      52260.482    
 1.72315537E-06 5.75247973E-09 1.26225438E+09 1.26220086E+09  214.75067      53306.222    
 1.73469887E-06 5.79101585E-09 1.28820521E+09 1.28815054E+09  220.72353      54445.295    
 1.74631969E-06 5.82981012E-09 1.31402715E+09 1.31397136E+09  226.63345      55565.046    
 1.75801837E-06 5.86886429E-09 1.34027979E+09 1.34022287E+09  232.67030      56689.736    
 1.76979541E-06 5.90818007E-09 1.36791858E+09 1.36786048E+09  239.17198      57857.619    
 1.78165135E-06 5.94775924E-09 1.39499495E+09 1.39493572E+09  245.45429      58987.266    
 1.79358672E-06 5.98760354E-09 1.42347332E+09 1.42341290E+09  252.20990      60166.481    
 1.80560203E-06 6.02771477E-09 1.45220704E+09 1.45214538E+09  259.03548      61400.888    
 1.81769784E-06 6.06809470E-09 1.48101153E+09 1.48094861E+09  265.86069      62662.846    
 1.82987468E-06 6.10874514E-09 1.51176027E+09 1.51169600E+09  273.36613      63997.887    
 1.84213310E-06 6.14966790E-09 1.54168325E+09 1.54161769E+09  280.54747      65277.139    
 1.85447363E-06 6.19086481E-09 1.57293383E+09 1.57286695E+09  288.18766      66597.190    
 1.86689683E-06 6.23233769E-09 1.60490557E+09 1.60483734E+09  296.06982      67928.568    
 1.87940326E-06 6.27408840E-09 1.63666577E+09 1.63659622E+09  303.84464      69246.635    
 1.89199346E-06 6.31611880E-09 1.67055595E+09 1.67048493E+09  312.38919      70709.015    
 1.90466801E-06 6.35843077E-09 1.70378313E+09 1.70371064E+09  320.65773      72165.409    
 1.91742747E-06 6.40102618E-09 1.73807402E+09 1.73800004E+09  329.29748      73651.498    
 1.93027240E-06 6.44390694E-09 1.77364645E+09 1.77357094E+09  338.39866      75172.158    
 1.94320339E-06 6.48707497E-09 1.80874512E+09 1.80866812E+09  347.28611      76653.247    
 1.95622099E-06 6.53053217E-09 1.84593694E+09 1.84585838E+09  356.95140      78200.818    
 1.96932581E-06 6.57428050E-09 1.88291196E+09 1.88283186E+09  366.50228      79739.573    
 1.98251841E-06 6.61832191E-09 1.92053691E+09 1.92045516E+09  376.27137      81367.879    
 1.99579939E-06 6.66265834E-09 1.96011300E+09 1.96002950E+09  386.77888      83105.854    
 2.00916934E-06 6.70729179E-09 1.99890066E+09 1.99881548E+09  396.93817      84783.052    
 2.02262885E-06 6.75222424E-09 2.03971377E+09 2.03962684E+09  407.87016      86527.082    
 2.03617854E-06 6.79745770E-09 2.08085674E+09 2.08076806E+09  418.90088      88260.403    
 2.04981899E-06 6.84299417E-09 2.12213762E+09 2.12204721E+09  429.94577      89979.449    
 2.06355082E-06 6.88883570E-09 2.16616501E+09 2.16607276E+09  442.07554      91811.373    
 2.07737464E-06 6.93498432E-09 2.20902888E+09 2.20893475E+09  453.68866      93679.946    
 2.09129106E-06 6.98144209E-09 2.25381355E+09 2.25371744E+09  466.05214      95643.920    
 2.10530072E-06 7.02821109E-09 2.29959127E+09 2.29949316E+09  478.79044      97623.261    
 2.11940422E-06 7.07529339E-09 2.34508590E+09 2.34498584E+09  491.36327      99565.055    
 2.13360221E-06 7.12269110E-09 2.39365104E+09 2.39354893E+09  505.18992      101609.49    
 2.14789530E-06 7.17040633E-09 2.44122514E+09 2.44112103E+09  518.55232      103586.79    
 2.16228415E-06 7.21844121E-09 2.49036505E+09 2.49025889E+09  532.53337      105636.86    
 2.17676939E-06 7.26679787E-09 2.54129623E+09 2.54118781E+09  547.24181      107870.87    
 2.19135167E-06 7.31547848E-09 2.59157106E+09 2.59146043E+09  561.61386      110069.73    
 2.20603163E-06 7.36448520E-09 2.64486584E+09 2.64475289E+09  577.25414      112374.35    
 2.22080994E-06 7.41382021E-09 2.69780405E+09 2.69768882E+09  592.68897      114630.18    
 2.23568724E-06 7.46348573E-09 2.75171999E+09 2.75160249E+09  608.49760      116900.25    
 2.25066421E-06 7.51348396E-09 2.80838087E+09 2.80826100E+09  625.47889      119250.16    
 2.26574151E-06 7.56381713E-09 2.86393733E+09 2.86381511E+09  641.90763      121585.55    
 2.28091982E-06 7.61448748E-09 2.92241926E+09 2.92229444E+09  659.59773      124153.13    
 2.29619980E-06 7.66549727E-09 2.98132236E+09 2.98119496E+09  677.42418      126728.60    
 2.31158215E-06 7.71684879E-09 3.04047534E+09 3.04034536E+09  695.29744      129282.35    
 2.32706754E-06 7.76854430E-09 3.10350659E+09 3.10337390E+09  714.90056      131967.61    
 2.34265667E-06 7.82058613E-09 3.16489888E+09 3.16476360E+09  733.68028      134548.50    
 2.35835023E-06 7.87297659E-09 3.22906919E+09 3.22893123E+09  753.68690      137210.93    
 2.37414893E-06 7.92571802E-09 3.29460466E+09 3.29446390E+09  774.27301      139984.46    
 2.39005346E-06 7.97881276E-09 3.35976341E+09 3.35961978E+09  794.60466      142843.27    
 2.40606454E-06 8.03226319E-09 3.42934752E+09 3.42920081E+09  816.97853      145889.30    
 2.42218287E-06 8.08607168E-09 3.49745332E+09 3.49730365E+09  838.57271      148824.09    
 2.43840918E-06 8.14024064E-09 3.56786174E+09 3.56770906E+09  861.19697      151822.42    
 2.45474420E-06 8.19477248E-09 3.64077148E+09 3.64061572E+09  884.96711      154882.97    
 2.47118864E-06 8.24966963E-09 3.71277312E+09 3.71261434E+09  908.20825      157874.20    
 2.48774324E-06 8.30493454E-09 3.78913072E+09 3.78896867E+09  933.51696      161119.15    
 2.50440875E-06 8.36056967E-09 3.86491210E+09 3.86474669E+09  958.46041      164452.38    
 2.52118589E-06 8.41657750E-09 3.94216081E+09 3.94199200E+09  984.04218      167826.38    
 2.53807543E-06 8.47296053E-09 4.02326922E+09 4.02309689E+09  1011.4856      171323.03    
 2.55507811E-06 8.52972128E-09 4.10283156E+09 4.10265581E+09  1038.0525      174706.54    
 2.57219470E-06 8.58686227E-09 4.18661757E+09 4.18643828E+09  1066.6783      178222.83    
 2.58942595E-06 8.64438604E-09 4.27093335E+09 4.27075053E+09  1095.4869      181726.99    
 2.60677263E-06 8.70229518E-09 4.35568199E+09 4.35549552E+09  1124.4098      185343.77    
 2.62423551E-06 8.76059224E-09 4.44590491E+09 4.44571443E+09  1156.0905      189323.19    
 2.64181539E-06 8.81927985E-09 4.53382063E+09 4.53362629E+09  1186.4591      193154.54    
 2.65951303E-06 8.87836060E-09 4.62575287E+09 4.62555453E+09  1218.8336      197115.59    
 2.67732922E-06 8.93783714E-09 4.71955792E+09 4.71935556E+09  1252.1021      201100.35    
 2.69526477E-06 8.99771211E-09 4.81286432E+09 4.81265802E+09  1284.9803      205017.48    
 2.71332047E-06 9.05798819E-09 4.91254674E+09 4.91233626E+09  1321.1847      209158.60    
 2.73149713E-06 9.11866806E-09 5.01002851E+09 5.00981380E+09  1356.0815      213350.84    
 2.74979555E-06 9.17975443E-09 5.11089340E+09 5.11067421E+09  1392.6919      217794.69    
 2.76821656E-06 9.24125002E-09 5.21524840E+09 5.21502462E+09  1431.1062      222346.37    
 2.78676096E-06 9.30315757E-09 5.31834888E+09 5.31812063E+09  1468.6892      226782.00    
 2.80542960E-06 9.36547984E-09 5.42773010E+09 5.42749716E+09  1509.6428      231426.98    
 2.82422330E-06 9.42821962E-09 5.53619217E+09 5.53595465E+09  1549.9523      235971.22    
 2.84314290E-06 9.49137968E-09 5.64685106E+09 5.64660889E+09  1591.3487      240579.36    
 2.86218924E-06 9.55496287E-09 5.76293426E+09 5.76268703E+09  1635.6995      245596.70    
 2.88136318E-06 9.61897199E-09 5.87685511E+09 5.87660282E+09  1678.6605      250614.51    
 2.90066556E-06 9.68340992E-09 5.99687222E+09 5.99661465E+09  1724.9818      255848.52    
 2.92009725E-06 9.74827952E-09 6.11754293E+09 6.11728012E+09  1771.5377      261034.78    
 2.93965911E-06 9.81358368E-09 6.23894029E+09 6.23867228E+09  1818.3409      266189.83    
 2.95935202E-06 9.87932532E-09 6.36806065E+09 6.36778719E+09  1869.5397      271591.06    
 2.97917685E-06 9.94550737E-09 6.49393507E+09 6.49365630E+09  1918.6483      276848.16    
 2.99913449E-06 1.00121328E-08 6.62561473E+09 6.62533020E+09  1971.0357      282560.29    
 3.01922583E-06 1.00792045E-08 6.75985859E+09 6.75956808E+09  2024.7993      288483.23    
 3.03945176E-06 1.01467255E-08 6.89344730E+09 6.89315092E+09  2077.9660      294298.06    
 3.05981319E-06 1.02146989E-08 7.03621958E+09 7.03591701E+09  2136.5497      300435.35    
 3.08031101E-06 1.02831276E-08 7.17572127E+09 7.17541273E+09  2192.9431      306348.86    
 3.10094616E-06 1.03520148E-08 7.32018840E+09 7.31987375E+09  2252.1853      312397.15    
 3.12171953E-06 1.04213634E-08 7.46952084E+09 7.46919989E+09  2314.2649      318637.34    
 3.14263207E-06 1.04911766E-08 7.61712340E+09 7.61679595E+09  2375.0395      325076.86    
 3.16368471E-06 1.05614574E-08 7.77377924E+09 7.77344480E+09  2441.3083      331994.43    
 3.18487837E-06 1.06322091E-08 7.92898532E+09 7.92864407E+09  2506.4490      338742.01    
 3.20621402E-06 1.07034348E-08 8.08747300E+09 8.08712487E+09  2573.4360      345550.43    
 3.22769259E-06 1.07751376E-08 8.25357842E+09 8.25322319E+09  2645.1096      352585.52    
 3.24931505E-06 1.08473207E-08 8.41666181E+09 8.41629969E+09  2714.5807      359410.55    
 3.27108236E-06 1.09199874E-08 8.58854096E+09 8.58817157E+09  2789.5354      366599.87    
 3.29299549E-06 1.09931409E-08 8.76120633E+09 8.76082928E+09  2864.7707      374192.38    
 3.31505541E-06 1.10667844E-08 8.93506508E+09 8.93468029E+09  2940.5073      381850.39    
 3.33726312E-06 1.11409213E-08 9.11981422E+09 9.11942130E+09  3023.2479      389890.38    
 3.35961959E-06 1.12155548E-08 9.29999939E+09 9.29959867E+09  3102.6598      397618.43    
 3.38212584E-06 1.12906884E-08 9.48857093E+09 9.48816214E+09  3187.4307      405606.05    
 3.40478285E-06 1.13663252E-08 9.68064473E+09 9.68022783E+09  3274.3142      413628.05    
 3.42759164E-06 1.14424687E-08 9.87186516E+09 9.87144013E+09  3360.2881      421672.36    
 3.45055323E-06 1.15191223E-08 1.00763087E+10 1.00758745E+10  3455.0835      430696.33    
 3.47366865E-06 1.15962894E-08 1.02759006E+10 1.02754575E+10  3546.2147      439472.00    
 3.49693891E-06 1.16739735E-08 1.04827737E+10 1.04823216E+10  3642.0779      448466.08    
 3.52036506E-06 1.17521780E-08 1.06964222E+10 1.06959609E+10  3742.4009      457626.18    
 3.54394814E-06 1.18309064E-08 1.09076888E+10 1.09072184E+10  3840.6769      466572.84    
 3.56768921E-06 1.19101621E-08 1.11319994E+10 1.11315196E+10  3947.9079      475933.64    
 3.59158932E-06 1.19899488E-08 1.13540446E+10 1.13535551E+10  4053.1751      485354.92    
 3.61564954E-06 1.20702701E-08 1.15809819E+10 1.15804824E+10  4161.5711      495361.53    
 3.63987094E-06 1.21511293E-08 1.18186109E+10 1.18181008E+10  4277.3987      505828.13    
 3.66425460E-06 1.22325303E-08 1.20520207E+10 1.20515003E+10  4389.7369      515958.78    
 3.68880161E-06 1.23144766E-08 1.22981156E+10 1.22975846E+10  4511.0233      526509.94    
 3.71351306E-06 1.23969718E-08 1.25451211E+10 1.25445795E+10  4632.6038      536953.44    
 3.73839005E-06 1.24800197E-08 1.27940530E+10 1.27935009E+10  4755.1583      547357.62    
 3.76343369E-06 1.25636239E-08 1.30583336E+10 1.30577701E+10  4888.8712      558623.28    
 3.78864510E-06 1.26477882E-08 1.33162022E+10 1.33156271E+10  5017.2837      570018.81    
 3.81402541E-06 1.27325163E-08 1.35861811E+10 1.35855941E+10  5154.4544      581902.90    
 3.83957574E-06 1.28178120E-08 1.38609318E+10 1.38603327E+10  5294.8590      593825.70    
 3.86529723E-06 1.29036791E-08 1.41345819E+10 1.41339709E+10  5433.8823      605553.79    
 3.89119103E-06 1.29901214E-08 1.44272621E+10 1.44266386E+10  5587.2705      617918.13    
 3.91725829E-06 1.30771428E-08 1.47127574E+10 1.47121218E+10  5734.5358      629863.95    
 3.94350018E-06 1.31647472E-08 1.50089199E+10 1.50082715E+10  5889.6556      642542.47    
 3.96991787E-06 1.32529384E-08 1.53145086E+10 1.53138464E+10  6051.7791      656088.57    
 3.99651253E-06 1.33417205E-08 1.56168243E+10 1.56161488E+10  6210.6948      669368.59    
 4.02328535E-06 1.34310972E-08 1.59379268E+10 1.59372371E+10  6384.2055      683309.15    
 4.05023752E-06 1.35210728E-08 1.62555152E+10 1.62548118E+10  6554.3147      696900.24    
 4.07737024E-06 1.36116511E-08 1.65803810E+10 1.65796636E+10  6729.7147      710636.72    
 4.10468473E-06 1.37028361E-08 1.69202413E+10 1.69195096E+10  6916.8944      724852.38    
 4.13218219E-06 1.37946320E-08 1.72542177E+10 1.72534714E+10  7098.5488      739241.36    
