 OPTXAGNF AGN Spectrum Model Parameters: NLS, Astar 0.0                          
 M_BH:  2.0000E+08 M_0            L  :  0.5000     L/Ledd 
 D   :  1.5000E+18 cm             z  :   0.000     redshift 
 Rcor:   40.00     Rg             Ro :   4.000     Rg 
 C_T :  0.2000     keV            Tau:   15.00     Optical Depth 
 gam :   2.200     (-slope)       fpl:  0.2000     Fraction 
 E              0.5DeltaE      E.FE total     E.FE Disk      E.FE Compton   E.FE NonThermal
 (keV)          (keV)          E.E/cm2/s/E    E.E/cm2/s/E    E.E/cm2/s/E    E.E/cm2/s/E    
 1.00334952E-06 3.34952256E-09 2.11886595E+08 2.11880750E+08  8.6308159      5836.5322    
 1.01007101E-06 3.37196116E-09 2.16083815E+08 2.16077852E+08  8.8575678      5953.5252    
 1.01683752E-06 3.39455008E-09 2.20457727E+08 2.20451642E+08  9.0979938      6075.5395    
 1.02364936E-06 3.41729032E-09 2.24952307E+08 2.24946091E+08  9.3476665      6206.9127    
 1.03050683E-06 3.44018290E-09 2.29407516E+08 2.29401168E+08  9.5931588      6337.5004    
 1.03741024E-06 3.46322884E-09 2.34151537E+08 2.34145052E+08  9.8620704      6475.3899    
 1.04435990E-06 3.48642917E-09 2.38822972E+08 2.38816353E+08  10.124014      6608.8833    
 1.05135611E-06 3.50978492E-09 2.43622801E+08 2.43616046E+08  10.395888      6744.4591    
 1.05839920E-06 3.53329712E-09 2.48624066E+08 2.48617172E+08  10.684166      6883.8078    
 1.06548946E-06 3.55696684E-09 2.53548103E+08 2.53541070E+08  10.964793      7021.7397    
 1.07262722E-06 3.58079512E-09 2.58754750E+08 2.58747564E+08  11.268969      7174.2071    
 1.07981280E-06 3.60478303E-09 2.63953651E+08 2.63946313E+08  11.571528      7326.6168    
 1.08704652E-06 3.62893164E-09 2.69220609E+08 2.69213118E+08  11.878932      7479.0779    
 1.09432869E-06 3.65324201E-09 2.74785357E+08 2.74777706E+08  12.211747      7638.2773    
 1.10165965E-06 3.67771524E-09 2.80227527E+08 2.80219723E+08  12.532535      7791.6150    
 1.10903971E-06 3.70235243E-09 2.85941625E+08 2.85933662E+08  12.876569      7950.6744    
 1.11646922E-06 3.72715465E-09 2.91727180E+08 2.91719053E+08  13.225996      8113.7310    
 1.12394850E-06 3.75212303E-09 2.97506429E+08 2.97498133E+08  13.573538      8282.6910    
 1.13147788E-06 3.77725867E-09 3.03697780E+08 3.03689301E+08  13.957726      8464.6804    
 1.13905770E-06 3.80256270E-09 3.09712563E+08 3.09703910E+08  14.324424      8638.2959    
 1.14668830E-06 3.82803623E-09 3.15983273E+08 3.15974441E+08  14.713498      8817.3558    
 1.15437002E-06 3.85368042E-09 3.22421289E+08 3.22412275E+08  15.117006      8998.6278    
 1.16210319E-06 3.87949640E-09 3.28805671E+08 3.28796479E+08  15.514010      9176.2175    
 1.16988818E-06 3.90548532E-09 3.35606766E+08 3.35597382E+08  15.949174      9368.5161    
 1.17772531E-06 3.93164835E-09 3.42298004E+08 3.42288422E+08  16.372503      9564.9561    
 1.18561494E-06 3.95798663E-09 3.49179200E+08 3.49169417E+08  16.812472      9766.4010    
 1.19355743E-06 3.98450137E-09 3.56342823E+08 3.56332832E+08  17.278376      9973.4693    
 1.20155313E-06 4.01119372E-09 3.63398875E+08 3.63388683E+08  17.732197      10174.454    
 1.20960239E-06 4.03806489E-09 3.70863038E+08 3.70852636E+08  18.224430      10384.478    
 1.21770557E-06 4.06511607E-09 3.78309598E+08 3.78298988E+08  18.713402      10591.555    
 1.22586303E-06 4.09234846E-09 3.85860317E+08 3.85849492E+08  19.210871      10805.500    
 1.23407514E-06 4.11976329E-09 3.93830842E+08 3.93819781E+08  19.748756      11040.556    
 1.24234227E-06 4.14736177E-09 4.01629166E+08 4.01617878E+08  20.267525      11268.123    
 1.25066478E-06 4.17514513E-09 4.09820644E+08 4.09809119E+08  20.824259      11504.654    
 1.25904304E-06 4.20311462E-09 4.18107282E+08 4.18095520E+08  21.388981      11740.466    
 1.26747742E-06 4.23127147E-09 4.26392242E+08 4.26380246E+08  21.951407      11973.337    
 1.27596831E-06 4.25961695E-09 4.35260001E+08 4.35247758E+08  22.572324      12219.695    
 1.28451608E-06 4.28815232E-09 4.43878600E+08 4.43866111E+08  23.165336      12465.579    
 1.29312111E-06 4.31687884E-09 4.52867810E+08 4.52855056E+08  23.794961      12730.485    
 1.30178379E-06 4.34579781E-09 4.62088718E+08 4.62075694E+08  24.447088      12999.812    
 1.31050450E-06 4.37491051E-09 4.71236776E+08 4.71223488E+08  25.089111      13263.259    
 1.31928362E-06 4.40421823E-09 4.80985960E+08 4.80972393E+08  25.793306      13540.641    
 1.32812156E-06 4.43372228E-09 4.90569350E+08 4.90555514E+08  26.477451      13809.421    
 1.33701871E-06 4.46342399E-09 5.00433455E+08 5.00419345E+08  27.189441      14083.423    
 1.34597546E-06 4.49332467E-09 5.10693314E+08 5.10678908E+08  27.942412      14377.894    
 1.35499221E-06 4.52342565E-09 5.20803502E+08 5.20788798E+08  28.676317      14675.670    
 1.36406936E-06 4.55372829E-09 5.31502927E+08 5.31487910E+08  29.472869      14988.182    
 1.37320733E-06 4.58423392E-09 5.42167826E+08 5.42152501E+08  30.263103      15294.912    
 1.38240650E-06 4.61494391E-09 5.52991444E+08 5.52975810E+08  31.068148      15602.445    
 1.39166731E-06 4.64585962E-09 5.64406604E+08 5.64390650E+08  31.937458      15922.236    
 1.40099015E-06 4.67698245E-09 5.75579987E+08 5.75563722E+08  32.776394      16232.709    
 1.41037545E-06 4.70831376E-09 5.87321670E+08 5.87305065E+08  33.677328      16571.172    
 1.41982361E-06 4.73985497E-09 5.99189362E+08 5.99172406E+08  34.589989      16921.434    
 1.42933508E-06 4.77160747E-09 6.11065204E+08 6.11047901E+08  35.500159      17267.247    
 1.43891026E-06 4.80357269E-09 6.23764991E+08 6.23747322E+08  36.503667      17632.713    
 1.44854958E-06 4.83575204E-09 6.36113291E+08 6.36095270E+08  37.462664      17982.816    
 1.45825348E-06 4.86814696E-09 6.48998098E+08 6.48979715E+08  38.481560      18343.665    
 1.46802239E-06 4.90075889E-09 6.62203354E+08 6.62184604E+08  39.535486      18710.936    
 1.47785673E-06 4.93358930E-09 6.75309995E+08 6.75290863E+08  40.573740      19090.614    
 1.48775696E-06 4.96663964E-09 6.89283623E+08 6.89264078E+08  41.713288      19503.364    
 1.49772351E-06 4.99991138E-09 7.03007757E+08 7.02987812E+08  42.818932      19902.263    
 1.50775683E-06 5.03340601E-09 7.17146269E+08 7.17125917E+08  43.971120      20308.467    
 1.51785736E-06 5.06712502E-09 7.31838937E+08 7.31818167E+08  45.188032      20724.754    
 1.52802556E-06 5.10106992E-09 7.46323547E+08 7.46302371E+08  46.374873      21130.055    
 1.53826187E-06 5.13524222E-09 7.61658710E+08 7.61637105E+08  47.663880      21557.484    
 1.54856676E-06 5.16964344E-09 7.76931128E+08 7.76909077E+08  48.940984      22002.886    
 1.55894067E-06 5.20427512E-09 7.92444519E+08 7.92422009E+08  50.243768      22459.413    
 1.56938409E-06 5.23913879E-09 8.08791104E+08 8.08768117E+08  51.648707      22935.086    
 1.57989746E-06 5.27423602E-09 8.24798423E+08 8.24774976E+08  53.005399      23394.016    
 1.59048127E-06 5.30956836E-09 8.41626959E+08 8.41603034E+08  54.463329      23870.577    
 1.60113597E-06 5.34513740E-09 8.58621186E+08 8.58596785E+08  55.938296      24345.124    
 1.61186206E-06 5.38094472E-09 8.75642209E+08 8.75617330E+08  57.411208      24821.341    
 1.62265999E-06 5.41699191E-09 8.93827730E+08 8.93802317E+08  59.033042      25353.966    
 1.63353026E-06 5.45328058E-09 9.11517651E+08 9.11491717E+08  60.583890      25873.582    
 1.64447336E-06 5.48981235E-09 9.29984038E+08 9.29957566E+08  62.232718      26410.223    
 1.65548976E-06 5.52658885E-09 9.48892986E+08 9.48865970E+08  63.935997      26952.023    
 1.66657996E-06 5.56361172E-09 9.67668864E+08 9.67641315E+08  65.615014      27483.316    
 1.67774445E-06 5.60088261E-09 9.87694845E+08 9.87666736E+08  67.459051      28041.780    
 1.68898374E-06 5.63840317E-09 1.00734635E+09 1.00731769E+09  69.245870      28595.213    
 1.70029832E-06 5.67617509E-09 1.02760892E+09 1.02757966E+09  71.110407      29188.575    
 1.71168869E-06 5.71420004E-09 1.04864695E+09 1.04861706E+09  73.077104      29807.563    
 1.72315537E-06 5.75247973E-09 1.06939610E+09 1.06936561E+09  74.996407      30409.159    
 1.73469887E-06 5.79101585E-09 1.09137270E+09 1.09134158E+09  77.082310      31038.678    
 1.74631969E-06 5.82981012E-09 1.11324035E+09 1.11320861E+09  79.146236      31656.271    
 1.75801837E-06 5.86886429E-09 1.13547258E+09 1.13544023E+09  81.254488      32276.705    
 1.76979541E-06 5.90818007E-09 1.15887785E+09 1.15884483E+09  83.525075      32937.936    
 1.78165135E-06 5.94775924E-09 1.18180739E+09 1.18177370E+09  85.719050      33611.431    
 1.79358672E-06 5.98760354E-09 1.20592335E+09 1.20588894E+09  88.078319      34320.550    
 1.80560203E-06 6.02771477E-09 1.23025545E+09 1.23022033E+09  90.462027      35025.535    
 1.81769784E-06 6.06809470E-09 1.25464754E+09 1.25461173E+09  92.845603      35723.529    
 1.82987468E-06 6.10874514E-09 1.28068476E+09 1.28064821E+09  95.466738      36458.095    
 1.84213310E-06 6.14966790E-09 1.30602348E+09 1.30598622E+09  97.974690      37165.214    
 1.85447363E-06 6.19086481E-09 1.33248561E+09 1.33244760E+09  100.64289      37915.015    
 1.86689683E-06 6.23233769E-09 1.35955806E+09 1.35951924E+09  103.39559      38713.620    
 1.87940326E-06 6.27408840E-09 1.38645171E+09 1.38641210E+09  106.11081      39502.239    
 1.89199346E-06 6.31611880E-09 1.41514745E+09 1.41510700E+09  109.09484      40334.006    
 1.90466801E-06 6.35843077E-09 1.44328241E+09 1.44324116E+09  111.98248      41137.540    
 1.91742747E-06 6.40102618E-09 1.47231744E+09 1.47227537E+09  114.99977      41956.786    
 1.93027240E-06 6.44390694E-09 1.50243679E+09 1.50239387E+09  118.17820      42796.178    
 1.94320339E-06 6.48707497E-09 1.53215557E+09 1.53211181E+09  121.28199      43642.571    
 1.95622099E-06 6.53053217E-09 1.56364527E+09 1.56360057E+09  124.65743      44573.911    
 1.96932581E-06 6.57428050E-09 1.59495174E+09 1.59490612E+09  127.99292      45490.970    
 1.98251841E-06 6.61832191E-09 1.62680814E+09 1.62676159E+09  131.40461      46412.919    
 1.99579939E-06 6.66265834E-09 1.66031513E+09 1.66026763E+09  135.07419      47369.473    
 2.00916934E-06 6.70729179E-09 1.69315544E+09 1.69310701E+09  138.62216      48295.061    
 2.02262885E-06 6.75222424E-09 1.72770921E+09 1.72765981E+09  142.43999      49257.644    
 2.03617854E-06 6.79745770E-09 1.76254224E+09 1.76249184E+09  146.29229      50256.599    
 2.04981899E-06 6.84299417E-09 1.79749221E+09 1.79744077E+09  150.14955      51289.662    
 2.06355082E-06 6.88883570E-09 1.83476542E+09 1.83471288E+09  154.38569      52383.037    
 2.07737464E-06 6.93498432E-09 1.87105467E+09 1.87100108E+09  158.44139      53431.114    
 2.09129106E-06 6.98144209E-09 1.90896871E+09 1.90891404E+09  162.75916      54513.123    
 2.10530072E-06 7.02821109E-09 1.94772288E+09 1.94766711E+09  167.20782      55603.485    
 2.11940422E-06 7.07529339E-09 1.98623792E+09 1.98618107E+09  171.59870      56676.731    
 2.13360221E-06 7.12269110E-09 2.02735008E+09 2.02729205E+09  176.42746      57862.063    
 2.14789530E-06 7.17040633E-09 2.06762442E+09 2.06756518E+09  181.09409      59054.607    
 2.16228415E-06 7.21844121E-09 2.10922324E+09 2.10916278E+09  185.97677      60272.642    
 2.17676939E-06 7.26679787E-09 2.15233704E+09 2.15227533E+09  191.11349      61517.929    
 2.19135167E-06 7.31547848E-09 2.19489609E+09 2.19483316E+09  196.13274      62731.277    
 2.20603163E-06 7.36448520E-09 2.24000924E+09 2.23994503E+09  201.59490      63999.702    
 2.22080994E-06 7.41382021E-09 2.28482117E+09 2.28475571E+09  206.98531      65250.262    
 2.23568724E-06 7.46348573E-09 2.33046030E+09 2.33039351E+09  212.50627      66572.403    
 2.25066421E-06 7.51348396E-09 2.37842088E+09 2.37835266E+09  218.43677      67994.533    
 2.26574151E-06 7.56381713E-09 2.42544788E+09 2.42537829E+09  224.17430      69368.448    
 2.28091982E-06 7.61448748E-09 2.47494877E+09 2.47487774E+09  230.35235      70797.827    
 2.29619980E-06 7.66549727E-09 2.52480610E+09 2.52473364E+09  236.57802      72217.147    
 2.31158215E-06 7.71684879E-09 2.57487510E+09 2.57480124E+09  242.82004      73625.942    
 2.32706754E-06 7.76854430E-09 2.62822355E+09 2.62814818E+09  249.66621      75115.975    
 2.34265667E-06 7.82058613E-09 2.68018675E+09 2.68010986E+09  256.22480      76632.336    
 2.35835023E-06 7.87297659E-09 2.73449914E+09 2.73442064E+09  263.21189      78239.953    
 2.37414893E-06 7.92571802E-09 2.78996600E+09 2.78988587E+09  270.40137      79860.639    
 2.39005346E-06 7.97881276E-09 2.84511472E+09 2.84503299E+09  277.50197      81451.212    
 2.40606454E-06 8.03226319E-09 2.90400504E+09 2.90392163E+09  285.31581      83126.741    
 2.42218287E-06 8.08607168E-09 2.96164606E+09 2.96156102E+09  292.85735      84745.599    
 2.43840918E-06 8.14024064E-09 3.02123415E+09 3.02114744E+09  300.75864      86416.910    
 2.45474420E-06 8.19477248E-09 3.08293727E+09 3.08284874E+09  309.06013      88225.957    
 2.47118864E-06 8.24966963E-09 3.14387328E+09 3.14378294E+09  317.17686      90025.792    
 2.48774324E-06 8.30493454E-09 3.20849184E+09 3.20839960E+09  326.01570      91914.503    
 2.50440875E-06 8.36056967E-09 3.27262366E+09 3.27252957E+09  334.72696      93761.434    
 2.52118589E-06 8.41657750E-09 3.33799634E+09 3.33790038E+09  343.66116      95621.660    
 2.53807543E-06 8.47296053E-09 3.40663193E+09 3.40653403E+09  353.24554      97545.836    
 2.55507811E-06 8.52972128E-09 3.47396132E+09 3.47386151E+09  362.52381      99444.812    
 2.57219470E-06 8.58686227E-09 3.54486131E+09 3.54475940E+09  372.52113      101528.07    
 2.58942595E-06 8.64438604E-09 3.61620962E+09 3.61610560E+09  382.58229      103636.63    
 2.60677263E-06 8.70229518E-09 3.68792431E+09 3.68781819E+09  392.68339      105729.24    
 2.62423551E-06 8.76059224E-09 3.76426600E+09 3.76415767E+09  403.74763      107927.94    
 2.64181539E-06 8.81927985E-09 3.83865843E+09 3.83854798E+09  414.35364      110041.82    
 2.65951303E-06 8.87836060E-09 3.91644594E+09 3.91633329E+09  425.66020      112223.53    
 2.67732922E-06 8.93783714E-09 3.99581681E+09 3.99570190E+09  437.27900      114471.77    
 2.69526477E-06 8.99771211E-09 4.07476714E+09 4.07464989E+09  448.76149      116795.93    
 2.71332047E-06 9.05798819E-09 4.15910620E+09 4.15898644E+09  461.40565      119292.16    
 2.73149713E-06 9.11866806E-09 4.24158616E+09 4.24146399E+09  473.59311      121694.71    
 2.74979555E-06 9.17975443E-09 4.32692554E+09 4.32680090E+09  486.37909      124151.60    
 2.76821656E-06 9.24125002E-09 4.41521468E+09 4.41508753E+09  499.79506      126657.43    
 2.78676096E-06 9.30315757E-09 4.50244464E+09 4.50231502E+09  512.92073      129106.06    
 2.80542960E-06 9.36547984E-09 4.59498227E+09 4.59485001E+09  527.22356      131733.76    
 2.82422330E-06 9.42821962E-09 4.68674421E+09 4.68660922E+09  541.30143      134449.41    
 2.84314290E-06 9.49137968E-09 4.78036318E+09 4.78022541E+09  555.75894      137214.07    
 2.86218924E-06 9.55496287E-09 4.87856556E+09 4.87842491E+09  571.24825      140076.89    
 2.88136318E-06 9.61897199E-09 4.97494187E+09 4.97479844E+09  586.25222      142847.97    
 2.90066556E-06 9.68340992E-09 5.07646936E+09 5.07632303E+09  602.42975      145729.29    
 2.92009725E-06 9.74827952E-09 5.17854990E+09 5.17840069E+09  618.68921      148592.31    
 2.93965911E-06 9.81358368E-09 5.28124545E+09 5.28109329E+09  635.03509      151519.61    
 2.95935202E-06 9.87932532E-09 5.39046613E+09 5.39031071E+09  652.91609      154767.14    
 2.97917685E-06 9.94550737E-09 5.49694582E+09 5.49678725E+09  670.06713      157904.92    
 2.99913449E-06 1.00121328E-08 5.60833013E+09 5.60816829E+09  688.36332      161150.62    
 3.01922583E-06 1.00792045E-08 5.72188122E+09 5.72171610E+09  707.14011      164412.87    
 3.03945176E-06 1.01467255E-08 5.83488015E+09 5.83471180E+09  725.70846      167620.90    
 3.05981319E-06 1.02146989E-08 5.95563690E+09 5.95546515E+09  746.16873      171002.48    
 3.08031101E-06 1.02831276E-08 6.07363252E+09 6.07345736E+09  765.86405      174392.71    
 3.10094616E-06 1.03520148E-08 6.19582336E+09 6.19564455E+09  786.55431      178027.02    
 3.12171953E-06 1.04213634E-08 6.32212436E+09 6.32194180E+09  808.23558      181753.35    
 3.14263207E-06 1.04911766E-08 6.44696544E+09 6.44677922E+09  829.46106      185385.94    
 3.16368471E-06 1.05614574E-08 6.57945325E+09 6.57926320E+09  852.60540      189192.11    
 3.18487837E-06 1.06322091E-08 6.71071803E+09 6.71052424E+09  875.35579      192912.15    
 3.20621402E-06 1.07034348E-08 6.84475550E+09 6.84455793E+09  898.75102      196668.38    
 3.22769259E-06 1.07751376E-08 6.98522714E+09 6.98502549E+09  923.78307      200728.33    
 3.24931505E-06 1.08473207E-08 7.12314859E+09 7.12294281E+09  948.04589      204835.55    
 3.27108236E-06 1.09199874E-08 7.26849852E+09 7.26828842E+09  974.22392      209124.32    
 3.29299549E-06 1.09931409E-08 7.41451331E+09 7.41429894E+09  1000.5000      213369.90    
 3.31505541E-06 1.10667844E-08 7.56153735E+09 7.56131873E+09  1026.9511      217593.47    
 3.33726312E-06 1.11409213E-08 7.71775769E+09 7.71753461E+09  1055.8484      222015.63    
 3.35961959E-06 1.12155548E-08 7.87012641E+09 7.86989903E+09  1083.5832      226293.23    
 3.38212584E-06 1.12906884E-08 8.02957737E+09 8.02934533E+09  1113.1897      230926.01    
 3.40478285E-06 1.13663252E-08 8.19198683E+09 8.19174992E+09  1143.5340      235770.41    
 3.42759164E-06 1.14424687E-08 8.35367769E+09 8.35343599E+09  1173.5606      240532.33    
 3.45055323E-06 1.15191223E-08 8.52653243E+09 8.52628567E+09  1206.6683      245561.37    
 3.47366865E-06 1.15962894E-08 8.69529339E+09 8.69504175E+09  1238.4962      250401.99    
 3.49693891E-06 1.16739735E-08 8.87020268E+09 8.86994605E+09  1271.9768      255357.50    
 3.52036506E-06 1.17521780E-08 9.05083293E+09 9.05057119E+09  1307.0151      260435.93    
 3.54394814E-06 1.18309064E-08 9.22945501E+09 9.22918801E+09  1341.3384      265657.09    
 3.56768921E-06 1.19101621E-08 9.41908906E+09 9.41881637E+09  1378.7894      271316.66    
 3.59158932E-06 1.19899488E-08 9.60681276E+09 9.60653450E+09  1415.5546      276840.01    
 3.61564954E-06 1.20702701E-08 9.79866742E+09 9.79838355E+09  1453.4125      282418.24    
 3.63987094E-06 1.21511293E-08 9.99954723E+09 9.99925756E+09  1493.8660      288177.79    
 3.66425460E-06 1.22325303E-08 1.01968688E+10 1.01965735E+10  1533.1008      293766.73    
 3.68880161E-06 1.23144766E-08 1.04048977E+10 1.04045965E+10  1575.4609      299630.94    
 3.71351306E-06 1.23969718E-08 1.06136977E+10 1.06133903E+10  1617.9238      305776.16    
 3.73839005E-06 1.24800197E-08 1.08241261E+10 1.08238124E+10  1660.7268      312042.39    
 3.76343369E-06 1.25636239E-08 1.10475079E+10 1.10471876E+10  1707.4272      318624.67    
 3.78864510E-06 1.26477882E-08 1.12654816E+10 1.12651549E+10  1752.2762      324953.24    
 3.81402541E-06 1.27325163E-08 1.14936762E+10 1.14933429E+10  1800.1843      331497.83    
 3.83957574E-06 1.28178120E-08 1.17258993E+10 1.17255594E+10  1849.2218      338064.97    
 3.86529723E-06 1.29036791E-08 1.19571971E+10 1.19568506E+10  1897.7769      344613.45    
 3.89119103E-06 1.29901214E-08 1.22045529E+10 1.22041990E+10  1951.3493      351926.58    
 3.91725829E-06 1.30771428E-08 1.24458504E+10 1.24454893E+10  2002.7831      359109.61    
 3.94350018E-06 1.31647472E-08 1.26961496E+10 1.26957811E+10  2056.9603      366478.77    
 3.96991787E-06 1.32529384E-08 1.29544028E+10 1.29540268E+10  2113.5837      373977.65    
 3.99651253E-06 1.33417205E-08 1.32098987E+10 1.32095153E+10  2169.0867      381304.12    
 4.02328535E-06 1.34310972E-08 1.34812444E+10 1.34808532E+10  2229.6873      388974.07    
 4.05023752E-06 1.35210728E-08 1.37496295E+10 1.37492306E+10  2289.0999      396618.23    
 4.07737024E-06 1.36116511E-08 1.40241569E+10 1.40237498E+10  2350.3605      404746.68    
 4.10468473E-06 1.37028361E-08 1.43113343E+10 1.43109185E+10  2415.7354      413315.20    
 4.13218219E-06 1.37946320E-08 1.45935526E+10 1.45931285E+10  2479.1804      421611.19    
