 OPTXAGNF AGN Spectrum Model Parameters: BLS, Astar 0.0                          
 M_BH:  2.0000E+08 M_0            L  :  0.2000     L/Ledd 
 D   :  1.5000E+18 cm             z  :   0.000     redshift 
 Rcor:   60.00     Rg             Ro :   4.000     Rg 
 C_T :  0.2000     keV            Tau:   15.00     Optical Depth 
 gam :   1.800     (-slope)       fpl:  0.5000     Fraction 
 E              0.5DeltaE      E.FE total     E.FE Disk      E.FE Compton   E.FE NonThermal
 (keV)          (keV)          E.E/cm2/s/E    E.E/cm2/s/E    E.E/cm2/s/E    E.E/cm2/s/E    
 1.00334952E-06 3.34952256E-09 1.66930454E+08 1.66917491E+08  65.130931      12897.692    
 1.01007101E-06 3.37196116E-09 1.70235937E+08 1.70222718E+08  66.841982      13151.971    
 1.01683752E-06 3.39455008E-09 1.73680480E+08 1.73666997E+08  68.656210      13413.645    
 1.02364936E-06 3.41729032E-09 1.77219988E+08 1.77206237E+08  70.540208      13680.725    
 1.03050683E-06 3.44018290E-09 1.80728545E+08 1.80714516E+08  72.392663      13956.910    
 1.03741024E-06 3.46322884E-09 1.84464392E+08 1.84450061E+08  74.421825      14256.219    
 1.04435990E-06 3.48642917E-09 1.88143136E+08 1.88128513E+08  76.398410      14546.357    
 1.05135611E-06 3.50978492E-09 1.91922930E+08 1.91908010E+08  78.449925      14840.963    
 1.05839920E-06 3.53329712E-09 1.95861240E+08 1.95846016E+08  80.625213      15143.609    
 1.06548946E-06 3.55696684E-09 1.99738801E+08 1.99723281E+08  82.742764      15438.004    
 1.07262722E-06 3.58079512E-09 2.03838744E+08 2.03822911E+08  85.038010      15748.116    
 1.07981280E-06 3.60478303E-09 2.07932628E+08 2.07916468E+08  87.321046      16072.455    
 1.08704652E-06 3.62893164E-09 2.12080087E+08 2.12063593E+08  89.640646      16403.638    
 1.09432869E-06 3.65324201E-09 2.16461865E+08 2.16445023E+08  92.151970      16749.499    
 1.10165965E-06 3.67771524E-09 2.20747221E+08 2.20730044E+08  94.572552      17082.873    
 1.10903971E-06 3.70235243E-09 2.25246545E+08 2.25229020E+08  97.168523      17428.510    
 1.11646922E-06 3.72715465E-09 2.29802104E+08 2.29784231E+08  99.805194      17773.602    
 1.12394850E-06 3.75212303E-09 2.34352727E+08 2.34334505E+08  102.42764      18119.313    
 1.13147788E-06 3.77725867E-09 2.39227602E+08 2.39208989E+08  105.32658      18507.034    
 1.13905770E-06 3.80256270E-09 2.43963598E+08 2.43944605E+08  108.09355      18884.535    
 1.14668830E-06 3.82803623E-09 2.48900960E+08 2.48881575E+08  111.02936      19273.784    
 1.15437002E-06 3.85368042E-09 2.53969961E+08 2.53950179E+08  114.07407      19667.816    
 1.16210319E-06 3.87949640E-09 2.58996799E+08 2.58976628E+08  117.06971      20053.779    
 1.16988818E-06 3.90548532E-09 2.64351470E+08 2.64330890E+08  120.35326      20458.835    
 1.17772531E-06 3.93164835E-09 2.69619749E+08 2.69598763E+08  123.54753      20861.805    
 1.18561494E-06 3.95798663E-09 2.75037507E+08 2.75016088E+08  126.86733      21292.636    
 1.19355743E-06 3.98450137E-09 2.80677462E+08 2.80655589E+08  130.38282      21742.844    
 1.20155313E-06 4.01119372E-09 2.86232832E+08 2.86210518E+08  133.80714      22179.903    
 1.20960239E-06 4.03806489E-09 2.92109249E+08 2.92086475E+08  137.52127      22636.535    
 1.21770557E-06 4.06511607E-09 2.97971849E+08 2.97948622E+08  141.21080      23085.768    
 1.22586303E-06 4.09234846E-09 3.03916407E+08 3.03892726E+08  144.96444      23535.923    
 1.23407514E-06 4.11976329E-09 3.10191196E+08 3.10167029E+08  149.02301      24017.335    
 1.24234227E-06 4.14736177E-09 3.16330603E+08 3.16305943E+08  152.93736      24507.052    
 1.25066478E-06 4.17514513E-09 3.22779275E+08 3.22754097E+08  157.13814      25021.451    
 1.25904304E-06 4.20311462E-09 3.29302824E+08 3.29277128E+08  161.39919      25534.288    
 1.26747742E-06 4.23127147E-09 3.35825096E+08 3.35798889E+08  165.64292      26040.729    
 1.27596831E-06 4.25961695E-09 3.42805757E+08 3.42779012E+08  170.32794      26574.931    
 1.28451608E-06 4.28815232E-09 3.49590496E+08 3.49563233E+08  174.80243      27088.761    
 1.29312111E-06 4.31687884E-09 3.56666751E+08 3.56638938E+08  179.55316      27633.427    
 1.30178379E-06 4.34579781E-09 3.63925286E+08 3.63896887E+08  184.47365      28214.656    
 1.31050450E-06 4.37491051E-09 3.71126581E+08 3.71097604E+08  189.31791      28787.633    
 1.31928362E-06 4.40421823E-09 3.78800643E+08 3.78771057E+08  194.63124      29391.028    
 1.32812156E-06 4.43372228E-09 3.86344369E+08 3.86314193E+08  199.79330      29975.622    
 1.33701871E-06 4.46342399E-09 3.94108892E+08 3.94078116E+08  205.16543      30570.047    
 1.34597546E-06 4.49332467E-09 4.02184648E+08 4.02153257E+08  210.84675      31180.725    
 1.35499221E-06 4.52342565E-09 4.10142779E+08 4.10110766E+08  216.38422      31796.618    
 1.36406936E-06 4.55372829E-09 4.18564319E+08 4.18531624E+08  222.39434      32472.474    
 1.37320733E-06 4.58423392E-09 4.26958762E+08 4.26925394E+08  228.35679      33139.698    
 1.38240650E-06 4.61494391E-09 4.35478063E+08 4.35444020E+08  234.43098      33808.644    
 1.39166731E-06 4.64585962E-09 4.44462526E+08 4.44427780E+08  240.99001      34504.432    
 1.40099015E-06 4.67698245E-09 4.53256947E+08 4.53221522E+08  247.31988      35176.943    
 1.41037545E-06 4.70831376E-09 4.62498234E+08 4.62462104E+08  254.11750      35875.646    
 1.41982361E-06 4.73985497E-09 4.71838668E+08 4.71801803E+08  261.00359      36603.342    
 1.42933508E-06 4.77160747E-09 4.81185609E+08 4.81147988E+08  267.87087      37353.074    
 1.43891026E-06 4.80357269E-09 4.91180386E+08 4.91141962E+08  275.44234      38148.445    
 1.44854958E-06 4.83575204E-09 5.00898895E+08 5.00859702E+08  282.67800      38909.972    
 1.45825348E-06 4.86814696E-09 5.11039254E+08 5.10999268E+08  290.36556      39695.074    
 1.46802239E-06 4.90075889E-09 5.21431589E+08 5.21390802E+08  298.31739      40488.264    
 1.47785673E-06 4.93358930E-09 5.31746464E+08 5.31704889E+08  306.15098      41268.620    
 1.48775696E-06 4.96663964E-09 5.42742975E+08 5.42700531E+08  314.74876      42129.683    
 1.49772351E-06 4.99991138E-09 5.53543468E+08 5.53500148E+08  323.09075      42997.449    
 1.50775683E-06 5.03340601E-09 5.64669775E+08 5.64625562E+08  331.78388      43881.235    
 1.51785736E-06 5.06712502E-09 5.76231745E+08 5.76186616E+08  340.96530      44787.184    
 1.52802556E-06 5.10106992E-09 5.87630259E+08 5.87584241E+08  349.91986      45668.811    
 1.53826187E-06 5.13524222E-09 5.99697396E+08 5.99650447E+08  359.64517      46589.210    
 1.54856676E-06 5.16964344E-09 6.11715282E+08 6.11667413E+08  369.28067      47499.279    
 1.55894067E-06 5.20427512E-09 6.23922702E+08 6.23873863E+08  379.10990      48459.926    
 1.56938409E-06 5.23913879E-09 6.36785094E+08 6.36735210E+08  389.70980      49494.878    
 1.57989746E-06 5.27423602E-09 6.49380935E+08 6.49330042E+08  399.94571      50493.187    
 1.59048127E-06 5.30956836E-09 6.62622287E+08 6.62570346E+08  410.94536      51530.358    
 1.60113597E-06 5.34513740E-09 6.75993944E+08 6.75940959E+08  422.07354      52562.971    
 1.61186206E-06 5.38094472E-09 6.89386767E+08 6.89332749E+08  433.18621      53585.332    
 1.62265999E-06 5.41699191E-09 7.03694801E+08 7.03639686E+08  445.42233      54669.617    
 1.63353026E-06 5.45328058E-09 7.17613531E+08 7.17557301E+08  457.12294      55773.061    
 1.64447336E-06 5.48981235E-09 7.32142574E+08 7.32085164E+08  469.56269      56939.741    
 1.65548976E-06 5.52658885E-09 7.47019485E+08 7.46960884E+08  482.41320      58118.920    
 1.66657996E-06 5.56361172E-09 7.61791956E+08 7.61732187E+08  495.08069      59274.666    
 1.67774445E-06 5.60088261E-09 7.77546827E+08 7.77485828E+08  508.99304      60490.495    
 1.68898374E-06 5.63840317E-09 7.93007563E+08 7.92945372E+08  522.47375      61668.321    
 1.70029832E-06 5.67617509E-09 8.08948552E+08 8.08885133E+08  536.54074      62881.862    
 1.71168869E-06 5.71420004E-09 8.25499003E+08 8.25434252E+08  551.37839      64199.601    
 1.72315537E-06 5.75247973E-09 8.41822656E+08 8.41756583E+08  565.85851      65507.542    
 1.73469887E-06 5.79101585E-09 8.59110806E+08 8.59043346E+08  581.59541      66878.014    
 1.74631969E-06 5.82981012E-09 8.76313493E+08 8.76244674E+08  597.16649      68221.843    
 1.75801837E-06 5.86886429E-09 8.93802764E+08 8.93732580E+08  613.07196      69571.780    
 1.76979541E-06 5.90818007E-09 9.12213687E+08 9.12142085E+08  630.20201      70971.573    
 1.78165135E-06 5.94775924E-09 9.30251048E+08 9.30178049E+08  646.75411      72352.782    
 1.79358672E-06 5.98760354E-09 9.49220639E+08 9.49146108E+08  664.55312      73865.944    
 1.80560203E-06 6.02771477E-09 9.68360188E+08 9.68284105E+08  682.53647      75400.208    
 1.81769784E-06 6.06809470E-09 9.87547054E+08 9.87469435E+08  700.51882      76918.694    
 1.82987468E-06 6.10874514E-09 1.00802631E+09 1.00794707E+09  720.29317      78518.280    
 1.84213310E-06 6.14966790E-09 1.02795708E+09 1.02787628E+09  739.21372      80054.283    
 1.85447363E-06 6.19086481E-09 1.04877041E+09 1.04868801E+09  759.34308      81637.564    
 1.86689683E-06 6.23233769E-09 1.07006328E+09 1.06997922E+09  780.10985      83274.972    
 1.87940326E-06 6.27408840E-09 1.09121600E+09 1.09113023E+09  800.59384      84965.339    
 1.89199346E-06 6.31611880E-09 1.11378427E+09 1.11369667E+09  823.10562      86776.616    
 1.90466801E-06 6.35843077E-09 1.13591231E+09 1.13582294E+09  844.89025      88524.816    
 1.91742747E-06 6.40102618E-09 1.15874745E+09 1.15865627E+09  867.65279      90307.697    
 1.93027240E-06 6.44390694E-09 1.18243429E+09 1.18234127E+09  891.63090      92130.752    
 1.94320339E-06 6.48707497E-09 1.20580680E+09 1.20571197E+09  915.04595      93910.197    
 1.95622099E-06 6.53053217E-09 1.23057017E+09 1.23047341E+09  940.51010      95819.380    
 1.96932581E-06 6.57428050E-09 1.25518999E+09 1.25509123E+09  965.67285      97796.463    
 1.98251841E-06 6.61832191E-09 1.28024190E+09 1.28014110E+09  991.41041      99802.543    
 1.99579939E-06 6.66265834E-09 1.30659008E+09 1.30648718E+09  1019.0932      101885.42    
 2.00916934E-06 6.70729179E-09 1.33241504E+09 1.33231010E+09  1045.8587      103898.95    
 2.02262885E-06 6.75222424E-09 1.35958560E+09 1.35947854E+09  1074.6596      105989.89    
 2.03617854E-06 6.79745770E-09 1.38697563E+09 1.38686645E+09  1103.7207      108073.25    
 2.04981899E-06 6.84299417E-09 1.41445779E+09 1.41434646E+09  1132.8191      110200.24    
 2.06355082E-06 6.88883570E-09 1.44376426E+09 1.44365053E+09  1164.7753      112564.02    
 2.07737464E-06 6.93498432E-09 1.47229854E+09 1.47218250E+09  1195.3705      114843.98    
 2.09129106E-06 6.98144209E-09 1.50210866E+09 1.50199024E+09  1227.9423      117199.19    
 2.10530072E-06 7.02821109E-09 1.53257856E+09 1.53245773E+09  1261.5015      119572.68    
 2.11940422E-06 7.07529339E-09 1.56286108E+09 1.56273788E+09  1294.6248      121903.68    
 2.13360221E-06 7.12269110E-09 1.59518249E+09 1.59505680E+09  1331.0509      124358.49    
 2.14789530E-06 7.17040633E-09 1.62684662E+09 1.62671843E+09  1366.2540      126828.55    
 2.16228415E-06 7.21844121E-09 1.65955085E+09 1.65941998E+09  1403.0868      129466.31    
 2.17676939E-06 7.26679787E-09 1.69344447E+09 1.69331085E+09  1441.8357      132177.55    
 2.19135167E-06 7.31547848E-09 1.72690307E+09 1.72676677E+09  1479.6984      134817.02    
 2.20603163E-06 7.36448520E-09 1.76236656E+09 1.76222746E+09  1520.9018      137579.02    
 2.22080994E-06 7.41382021E-09 1.79759399E+09 1.79745214E+09  1561.5640      140285.55    
 2.23568724E-06 7.46348573E-09 1.83347097E+09 1.83332635E+09  1603.2109      143012.63    
 2.25066421E-06 7.51348396E-09 1.87117015E+09 1.87102253E+09  1647.9467      145970.15    
 2.26574151E-06 7.56381713E-09 1.90813726E+09 1.90798661E+09  1691.2269      148955.06    
 2.28091982E-06 7.61448748E-09 1.94704607E+09 1.94689226E+09  1737.8297      152067.04    
 2.29619980E-06 7.66549727E-09 1.98623495E+09 1.98607801E+09  1784.7916      155156.04    
 2.31158215E-06 7.71684879E-09 2.02559041E+09 2.02543036E+09  1831.8769      158220.91    
 2.32706754E-06 7.76854430E-09 2.06751937E+09 2.06735604E+09  1883.5187      161437.96    
 2.34265667E-06 7.82058613E-09 2.10836188E+09 2.10819540E+09  1932.9915      164546.89    
 2.35835023E-06 7.87297659E-09 2.15104811E+09 2.15087821E+09  1985.6961      167912.92    
 2.37414893E-06 7.92571802E-09 2.19464063E+09 2.19446715E+09  2039.9270      171438.91    
 2.39005346E-06 7.97881276E-09 2.23798412E+09 2.23780713E+09  2093.4876      174898.87    
 2.40606454E-06 8.03226319E-09 2.28426329E+09 2.28408259E+09  2152.4275      178548.11    
 2.42218287E-06 8.08607168E-09 2.32956294E+09 2.32937866E+09  2209.3136      182069.99    
 2.43840918E-06 8.14024064E-09 2.37639051E+09 2.37620257E+09  2268.9129      185666.10    
 2.45474420E-06 8.19477248E-09 2.42487752E+09 2.42468583E+09  2331.5304      189361.79    
 2.47118864E-06 8.24966963E-09 2.47276362E+09 2.47256807E+09  2392.7545      193161.01    
 2.48774324E-06 8.30493454E-09 2.52353877E+09 2.52333904E+09  2459.4245      197268.41    
 2.50440875E-06 8.36056967E-09 2.57393273E+09 2.57372892E+09  2525.1323      201287.17    
 2.52118589E-06 8.41657750E-09 2.62530055E+09 2.62509263E+09  2592.5215      205334.83    
 2.53807543E-06 8.47296053E-09 2.67922786E+09 2.67901567E+09  2664.8139      209524.88    
 2.55507811E-06 8.52972128E-09 2.73213148E+09 2.73191516E+09  2734.7979      213585.67    
 2.57219470E-06 8.58686227E-09 2.78783574E+09 2.78761508E+09  2810.2045      217843.28    
 2.58942595E-06 8.64438604E-09 2.84389241E+09 2.84366720E+09  2886.0925      222319.70    
 2.60677263E-06 8.70229518E-09 2.90023726E+09 2.90000743E+09  2962.2817      226866.85    
 2.62423551E-06 8.76059224E-09 2.96021077E+09 2.95997607E+09  3045.7344      231655.59    
 2.64181539E-06 8.81927985E-09 3.01865669E+09 3.01841731E+09  3125.7313      236253.70    
 2.65951303E-06 8.87836060E-09 3.07976525E+09 3.07952104E+09  3211.0112      241002.68    
 2.67732922E-06 8.93783714E-09 3.14211585E+09 3.14186677E+09  3298.6458      245780.14    
 2.69526477E-06 8.99771211E-09 3.20413764E+09 3.20388371E+09  3385.2523      250542.21    
 2.71332047E-06 9.05798819E-09 3.27038485E+09 3.27012551E+09  3480.6193      255854.18    
 2.73149713E-06 9.11866806E-09 3.33517563E+09 3.33491098E+09  3572.5421      261080.56    
 2.74979555E-06 9.17975443E-09 3.40220880E+09 3.40193870E+09  3668.9784      266427.40    
 2.76821656E-06 9.24125002E-09 3.47155492E+09 3.47127926E+09  3770.1654      271882.85    
 2.78676096E-06 9.30315757E-09 3.54007183E+09 3.53979075E+09  3869.1632      277205.87    
 2.80542960E-06 9.36547984E-09 3.61274960E+09 3.61246285E+09  3977.0379      282771.60    
 2.82422330E-06 9.42821962E-09 3.68482038E+09 3.68452796E+09  4083.2161      288338.16    
 2.84314290E-06 9.49137968E-09 3.75834790E+09 3.75804947E+09  4192.2571      294241.27    
 2.86218924E-06 9.55496287E-09 3.83546836E+09 3.83516357E+09  4309.0787      300475.05    
 2.88136318E-06 9.61897199E-09 3.91115893E+09 3.91084800E+09  4422.2402      306502.34    
 2.90066556E-06 9.68340992E-09 3.99088708E+09 3.99056976E+09  4544.2514      312775.24    
 2.92009725E-06 9.74827952E-09 4.07104962E+09 4.07072596E+09  4666.8801      318994.49    
 2.93965911E-06 9.81358368E-09 4.15169527E+09 4.15136530E+09  4790.1605      325179.54    
 2.95935202E-06 9.87932532E-09 4.23745441E+09 4.23711767E+09  4925.0167      331820.11    
 2.97917685E-06 9.94550737E-09 4.32106766E+09 4.32072404E+09  5054.3682      338566.32    
 2.99913449E-06 1.00121328E-08 4.40852474E+09 4.40817391E+09  5192.3548      345630.98    
 3.01922583E-06 1.00792045E-08 4.49768042E+09 4.49732236E+09  5333.9653      352731.44    
 3.03945176E-06 1.01467255E-08 4.58640502E+09 4.58603984E+09  5474.0038      359708.94    
 3.05981319E-06 1.02146989E-08 4.68120771E+09 4.68083502E+09  5628.3082      367060.27    
 3.08031101E-06 1.02831276E-08 4.77384892E+09 4.77346898E+09  5776.8443      374164.92    
 3.10094616E-06 1.03520148E-08 4.86977763E+09 4.86939008E+09  5932.8826      381620.57    
 3.12171953E-06 1.04213634E-08 4.96892720E+09 4.96853144E+09  6096.3931      389660.13    
 3.14263207E-06 1.04911766E-08 5.06693508E+09 5.06653127E+09  6256.4667      397560.70    
 3.16368471E-06 1.05614574E-08 5.17093289E+09 5.17052061E+09  6431.0088      405848.39    
 3.18487837E-06 1.06322091E-08 5.27397445E+09 5.27355391E+09  6602.5801      413941.63    
 3.20621402E-06 1.07034348E-08 5.37918900E+09 5.37876012E+09  6779.0135      422107.33    
 3.22769259E-06 1.07751376E-08 5.48944301E+09 5.48900549E+09  6967.7884      430550.99    
 3.24931505E-06 1.08473207E-08 5.59770222E+09 5.59725605E+09  7150.7630      439019.01    
 3.27108236E-06 1.09199874E-08 5.71177974E+09 5.71132410E+09  7348.1781      448294.42    
 3.29299549E-06 1.09931409E-08 5.82637954E+09 5.82591446E+09  7546.3319      457532.55    
 3.31505541E-06 1.10667844E-08 5.94177153E+09 5.94129707E+09  7745.8054      466719.38    
 3.33726312E-06 1.11409213E-08 6.06436434E+09 6.06388003E+09  7963.7230      476349.54    
 3.35961959E-06 1.12155548E-08 6.18394414E+09 6.18345035E+09  8172.8745      485621.96    
 3.38212584E-06 1.12906884E-08 6.30906951E+09 6.30856590E+09  8396.1380      495206.34    
 3.40478285E-06 1.13663252E-08 6.43651268E+09 6.43599881E+09  8624.9643      505246.50    
 3.42759164E-06 1.14424687E-08 6.56339627E+09 6.56287185E+09  8851.3950      515568.81    
 3.45055323E-06 1.15191223E-08 6.69901905E+09 6.69848343E+09  9101.0551      526520.84    
 3.47366865E-06 1.15962894E-08 6.83144029E+09 6.83089390E+09  9341.0661      537048.79    
 3.49693891E-06 1.16739735E-08 6.96867538E+09 6.96811796E+09  9593.5374      547831.92    
 3.52036506E-06 1.17521780E-08 7.11038926E+09 7.10982059E+09  9857.7518      558809.14    
 3.54394814E-06 1.18309064E-08 7.25053431E+09 7.24995463E+09  10116.576      569557.67    
 3.56768921E-06 1.19101621E-08 7.39929806E+09 7.39870632E+09  10398.980      581347.21    
 3.59158932E-06 1.19899488E-08 7.54657018E+09 7.54596615E+09  10676.212      593354.38    
 3.61564954E-06 1.20702701E-08 7.69707702E+09 7.69646057E+09  10961.683      605489.49    
 3.63987094E-06 1.21511293E-08 7.85464658E+09 7.85401729E+09  11266.722      618028.58    
 3.66425460E-06 1.22325303E-08 8.00943562E+09 8.00879388E+09  11562.573      630182.67    
 3.68880161E-06 1.23144766E-08 8.17260287E+09 8.17194817E+09  11881.985      642825.32    
 3.71351306E-06 1.23969718E-08 8.33637572E+09 8.33570810E+09  12202.171      655416.16    
 3.73839005E-06 1.24800197E-08 8.50142615E+09 8.50074506E+09  12524.921      668564.77    
 3.76343369E-06 1.25636239E-08 8.67661028E+09 8.67591453E+09  12877.051      682874.20    
 3.78864510E-06 1.26477882E-08 8.84756836E+09 8.84685851E+09  13215.225      696635.98    
 3.81402541E-06 1.27325163E-08 9.02652241E+09 9.02579796E+09  13576.459      710878.78    
 3.83957574E-06 1.28178120E-08 9.20862964E+09 9.20789053E+09  13946.207      725169.49    
 3.86529723E-06 1.29036791E-08 9.39001715E+09 9.38926360E+09  14312.318      739239.31    
 3.89119103E-06 1.29901214E-08 9.58396249E+09 9.58319360E+09  14716.250      754170.34    
 3.91725829E-06 1.30771428E-08 9.77317577E+09 9.77239130E+09  15104.061      769368.03    
 3.94350018E-06 1.31647472E-08 9.96943067E+09 9.96862978E+09  15512.552      785374.73    
 3.96991787E-06 1.32529384E-08 1.01719067E+10 1.01710891E+10  15939.481      801695.60    
 3.99651253E-06 1.33417205E-08 1.03722318E+10 1.03713979E+10  16357.965      817626.67    
 4.02328535E-06 1.34310972E-08 1.05849491E+10 1.05840979E+10  16814.875      834324.66    
 4.05023752E-06 1.35210728E-08 1.07953564E+10 1.07944885E+10  17262.829      850623.07    
 4.07737024E-06 1.36116511E-08 1.10105686E+10 1.10096836E+10  17724.711      867268.10    
 4.10468473E-06 1.37028361E-08 1.12356710E+10 1.12347673E+10  18217.607      885443.68    
 4.13218219E-06 1.37946320E-08 1.14569035E+10 1.14559814E+10  18695.955      903470.65    
