 OPTXAGNF AGN Spectrum Model Parameters: BLS, Astar 0.0                          
 M_BH:  2.0000E+08 M_0            L  :  0.5000     L/Ledd 
 D   :  1.5000E+18 cm             z  :   0.000     redshift 
 Rcor:   60.00     Rg             Ro :   4.000     Rg 
 C_T :  0.2000     keV            Tau:   15.00     Optical Depth 
 gam :   1.800     (-slope)       fpl:  0.5000     Fraction 
 E              0.5DeltaE      E.FE total     E.FE Disk      E.FE Compton   E.FE NonThermal
 (keV)          (keV)          E.E/cm2/s/E    E.E/cm2/s/E    E.E/cm2/s/E    E.E/cm2/s/E    
 1.00334952E-06 3.34952256E-09 2.10118634E+08 2.10106060E+08  42.783305      12531.735    
 1.01007101E-06 3.37196116E-09 2.14280840E+08 2.14268008E+08  43.907294      12788.412    
 1.01683752E-06 3.39455008E-09 2.18618262E+08 2.18605164E+08  45.099062      13053.005    
 1.02364936E-06 3.41729032E-09 2.23075335E+08 2.23061968E+08  46.336663      13321.104    
 1.03050683E-06 3.44018290E-09 2.27493361E+08 2.27479730E+08  47.553544      13583.533    
 1.03741024E-06 3.46322884E-09 2.32197788E+08 2.32183880E+08  48.886507      13859.291    
 1.04435990E-06 3.48642917E-09 2.36830243E+08 2.36816055E+08  50.184931      14137.592    
 1.05135611E-06 3.50978492E-09 2.41590032E+08 2.41575547E+08  51.532579      14433.826    
 1.05839920E-06 3.53329712E-09 2.46549577E+08 2.46534784E+08  52.961538      14740.185    
 1.06548946E-06 3.55696684E-09 2.51432532E+08 2.51417441E+08  54.352567      15037.390    
 1.07262722E-06 3.58079512E-09 2.56595730E+08 2.56580326E+08  55.860328      15347.844    
 1.07981280E-06 3.60478303E-09 2.61751242E+08 2.61735531E+08  57.360069      15653.490    
 1.08704652E-06 3.62893164E-09 2.66974241E+08 2.66958222E+08  58.883830      15959.489    
 1.09432869E-06 3.65324201E-09 2.72492556E+08 2.72476203E+08  60.533541      16292.984    
 1.10165965E-06 3.67771524E-09 2.77889329E+08 2.77872638E+08  62.123640      16629.204    
 1.10903971E-06 3.70235243E-09 2.83555761E+08 2.83538718E+08  63.828958      16978.929    
 1.11646922E-06 3.72715465E-09 2.89293046E+08 2.89275652E+08  65.561014      17327.896    
 1.12394850E-06 3.75212303E-09 2.95024067E+08 2.95006328E+08  67.283723      17672.167    
 1.13147788E-06 3.77725867E-09 3.01163745E+08 3.01145640E+08  69.188073      18035.706    
 1.13905770E-06 3.80256270E-09 3.07128329E+08 3.07109872E+08  71.005729      18385.856    
 1.14668830E-06 3.82803623E-09 3.13346719E+08 3.13327883E+08  72.934300      18763.324    
 1.15437002E-06 3.85368042E-09 3.19731031E+08 3.19711794E+08  74.934414      19161.409    
 1.16210319E-06 3.87949640E-09 3.26062154E+08 3.26042526E+08  76.902287      19551.116    
 1.16988818E-06 3.90548532E-09 3.32806506E+08 3.32786466E+08  79.059304      19961.393    
 1.17772531E-06 3.93164835E-09 3.39441904E+08 3.39421463E+08  81.157664      20359.191    
 1.18561494E-06 3.95798663E-09 3.46265671E+08 3.46244824E+08  83.338497      20763.338    
 1.19355743E-06 3.98450137E-09 3.53369507E+08 3.53348241E+08  85.647880      21180.724    
 1.20155313E-06 4.01119372E-09 3.60366689E+08 3.60344993E+08  87.897375      21607.902    
 1.20960239E-06 4.03806489E-09 3.67768589E+08 3.67746429E+08  90.337262      22069.337    
 1.21770557E-06 4.06511607E-09 3.75153029E+08 3.75130413E+08  92.760982      22523.412    
 1.22586303E-06 4.09234846E-09 3.82640749E+08 3.82617675E+08  95.226822      22978.237    
 1.23407514E-06 4.11976329E-09 3.90544757E+08 3.90521208E+08  97.892985      23451.757    
 1.24234227E-06 4.14736177E-09 3.98277999E+08 3.98253989E+08  100.46440      23909.202    
 1.25066478E-06 4.17514513E-09 4.06401113E+08 4.06376622E+08  103.22399      24387.545    
 1.25904304E-06 4.20311462E-09 4.14618617E+08 4.14593618E+08  106.02317      24892.254    
 1.26747742E-06 4.23127147E-09 4.22834466E+08 4.22808954E+08  108.81097      25403.024    
 1.27596831E-06 4.25961695E-09 4.31628250E+08 4.31602194E+08  111.88868      25944.343    
 1.28451608E-06 4.28815232E-09 4.40174938E+08 4.40148361E+08  114.82809      26462.376    
 1.29312111E-06 4.31687884E-09 4.49089131E+08 4.49062017E+08  117.94896      26996.228    
 1.30178379E-06 4.34579781E-09 4.58233083E+08 4.58205425E+08  121.18137      27536.042    
 1.31050450E-06 4.37491051E-09 4.67304796E+08 4.67276600E+08  124.36369      28072.215    
 1.31928362E-06 4.40421823E-09 4.76972647E+08 4.76943851E+08  127.85418      28668.158    
 1.32812156E-06 4.43372228E-09 4.86476096E+08 4.86446706E+08  131.24528      29258.788    
 1.33701871E-06 4.46342399E-09 4.96257914E+08 4.96227920E+08  134.77439      29859.756    
 1.34597546E-06 4.49332467E-09 5.06432166E+08 5.06401552E+08  138.50663      30476.344    
 1.35499221E-06 4.52342565E-09 5.16457982E+08 5.16426764E+08  142.14437      31076.116    
 1.36406936E-06 4.55372829E-09 5.27068111E+08 5.27036263E+08  146.09261      31702.004    
 1.37320733E-06 4.58423392E-09 5.37644010E+08 5.37611530E+08  150.00954      32329.959    
 1.38240650E-06 4.61494391E-09 5.48377333E+08 5.48344186E+08  153.99988      32992.424    
 1.39166731E-06 4.64585962E-09 5.59697274E+08 5.59663418E+08  158.30875      33697.158    
 1.40099015E-06 4.67698245E-09 5.70777447E+08 5.70742908E+08  162.46706      34376.352    
 1.41037545E-06 4.70831376E-09 5.82421157E+08 5.82385909E+08  166.93267      35081.656    
 1.41982361E-06 4.73985497E-09 5.94189808E+08 5.94153852E+08  171.45640      35784.482    
 1.42933508E-06 4.77160747E-09 6.05966538E+08 6.05929882E+08  175.96778      36479.747    
 1.43891026E-06 4.80357269E-09 6.18560346E+08 6.18522936E+08  180.94179      37228.562    
 1.44854958E-06 4.83575204E-09 6.30805635E+08 6.30767461E+08  185.69518      37988.430    
 1.45825348E-06 4.86814696E-09 6.43582964E+08 6.43543990E+08  190.74545      38782.638    
 1.46802239E-06 4.90075889E-09 6.56678059E+08 6.56638278E+08  195.96934      39585.257    
 1.47785673E-06 4.93358930E-09 6.69675336E+08 6.69634764E+08  201.11556      40371.607    
 1.48775696E-06 4.96663964E-09 6.83532348E+08 6.83490942E+08  206.76382      41198.423    
 1.49772351E-06 4.99991138E-09 6.97141944E+08 6.97099731E+08  212.24405      42001.017    
 1.50775683E-06 5.03340601E-09 7.11162475E+08 7.11119420E+08  217.95496      42837.298    
 1.51785736E-06 5.06712502E-09 7.25732582E+08 7.25688612E+08  223.98667      43745.700    
 1.52802556E-06 5.10106992E-09 7.40096367E+08 7.40051501E+08  229.86934      44636.159    
 1.53826187E-06 5.13524222E-09 7.55303600E+08 7.55257796E+08  236.25837      45568.153    
 1.54856676E-06 5.16964344E-09 7.70448580E+08 7.70401854E+08  242.58840      46482.904    
 1.55894067E-06 5.20427512E-09 7.85832505E+08 7.85784855E+08  249.04572      47401.013    
 1.56938409E-06 5.23913879E-09 8.02042664E+08 8.01994053E+08  256.00935      48354.772    
 1.57989746E-06 5.27423602E-09 8.17916414E+08 8.17866844E+08  262.73384      49307.435    
 1.59048127E-06 5.30956836E-09 8.34604576E+08 8.34553956E+08  269.96010      50350.031    
 1.60113597E-06 5.34513740E-09 8.51457045E+08 8.51405373E+08  277.27080      51394.448    
 1.61186206E-06 5.38094472E-09 8.68336071E+08 8.68283359E+08  284.57132      52427.233    
 1.62265999E-06 5.41699191E-09 8.86369844E+08 8.86316035E+08  292.60993      53515.977    
 1.63353026E-06 5.45328058E-09 9.03912136E+08 9.03857275E+08  300.29672      54561.152    
 1.64447336E-06 5.48981235E-09 9.22224407E+08 9.22168460E+08  308.46912      55637.977    
 1.65548976E-06 5.52658885E-09 9.40975582E+08 9.40918494E+08  316.91139      56770.598    
 1.66657996E-06 5.56361172E-09 9.59594842E+08 9.59536583E+08  325.23341      57934.257    
 1.67774445E-06 5.60088261E-09 9.79453778E+08 9.79394278E+08  334.37330      59166.043    
 1.68898374E-06 5.63840317E-09 9.98941340E+08 9.98880640E+08  343.22961      60356.193    
 1.70029832E-06 5.67617509E-09 1.01903483E+09 1.01897291E+09  352.47110      61568.811    
 1.71168869E-06 5.71420004E-09 1.03989728E+09 1.03983411E+09  362.21892      62809.741    
 1.72315537E-06 5.75247973E-09 1.06047327E+09 1.06040888E+09  371.73184      64021.701    
 1.73469887E-06 5.79101585E-09 1.08226651E+09 1.08220078E+09  382.07047      65344.939    
 1.74631969E-06 5.82981012E-09 1.10395176E+09 1.10388466E+09  392.30016      66701.119    
 1.75801837E-06 5.86886429E-09 1.12599854E+09 1.12593007E+09  402.74954      68065.599    
 1.76979541E-06 5.90818007E-09 1.14920854E+09 1.14913864E+09  414.00348      69483.405    
 1.78165135E-06 5.94775924E-09 1.17194675E+09 1.17187547E+09  424.87771      70853.630    
 1.79358672E-06 5.98760354E-09 1.19586145E+09 1.19578874E+09  436.57117      72275.761    
 1.80560203E-06 6.02771477E-09 1.21999048E+09 1.21991633E+09  448.38574      73698.726    
 1.81769784E-06 6.06809470E-09 1.24417907E+09 1.24410344E+09  460.19966      75174.066    
 1.82987468E-06 6.10874514E-09 1.26999911E+09 1.26992184E+09  473.19095      76791.246    
 1.84213310E-06 6.14966790E-09 1.29512646E+09 1.29504763E+09  485.62128      78342.842    
 1.85447363E-06 6.19086481E-09 1.32136783E+09 1.32128738E+09  498.84582      79944.769    
 1.86689683E-06 6.23233769E-09 1.34821436E+09 1.34813229E+09  512.48914      81560.527    
 1.87940326E-06 6.27408840E-09 1.37488357E+09 1.37479990E+09  525.94669      83146.860    
 1.89199346E-06 6.31611880E-09 1.40333983E+09 1.40325447E+09  540.73652      84825.893    
 1.90466801E-06 6.35843077E-09 1.43124008E+09 1.43115298E+09  555.04861      86540.431    
 1.91742747E-06 6.40102618E-09 1.46003293E+09 1.45994402E+09  570.00322      88339.885    
 1.93027240E-06 6.44390694E-09 1.48990103E+09 1.48981026E+09  585.75648      90185.591    
 1.94320339E-06 6.48707497E-09 1.51937187E+09 1.51927929E+09  601.13980      91981.915    
 1.95622099E-06 6.53053217E-09 1.55059879E+09 1.55050432E+09  617.86943      93860.477    
 1.96932581E-06 6.57428050E-09 1.58164400E+09 1.58154767E+09  634.40104      95703.131    
 1.98251841E-06 6.61832191E-09 1.61323455E+09 1.61313633E+09  651.31032      97573.718    
 1.99579939E-06 6.66265834E-09 1.64646203E+09 1.64636173E+09  669.49768      99624.713    
 2.00916934E-06 6.70729179E-09 1.67902840E+09 1.67892606E+09  687.08233      101657.59    
 2.02262885E-06 6.75222424E-09 1.71329395E+09 1.71318947E+09  706.00437      103774.27    
 2.03617854E-06 6.79745770E-09 1.74783636E+09 1.74772976E+09  725.09731      105877.35    
 2.04981899E-06 6.84299417E-09 1.78249468E+09 1.78238598E+09  744.21477      107962.32    
 2.06355082E-06 6.88883570E-09 1.81945683E+09 1.81934591E+09  765.20993      110152.17    
 2.07737464E-06 6.93498432E-09 1.85544325E+09 1.85533017E+09  785.31088      112293.24    
 2.09129106E-06 6.98144209E-09 1.89304102E+09 1.89292559E+09  806.71056      114619.08    
 2.10530072E-06 7.02821109E-09 1.93147194E+09 1.93135409E+09  828.75896      117020.99    
 2.11940422E-06 7.07529339E-09 1.96966570E+09 1.96954547E+09  850.52097      119375.87    
 2.13360221E-06 7.12269110E-09 2.01043485E+09 2.01031212E+09  874.45308      121857.89    
 2.14789530E-06 7.17040633E-09 2.05037310E+09 2.05024794E+09  897.58167      124255.93    
 2.16228415E-06 7.21844121E-09 2.09162477E+09 2.09149714E+09  921.78100      126702.23    
 2.17676939E-06 7.26679787E-09 2.13437880E+09 2.13424860E+09  947.23929      129251.19    
 2.19135167E-06 7.31547848E-09 2.17658283E+09 2.17644999E+09  972.11537      131872.38    
 2.20603163E-06 7.36448520E-09 2.22131970E+09 2.22118403E+09  999.18645      134669.81    
 2.22080994E-06 7.41382021E-09 2.26575782E+09 2.26561939E+09  1025.9020      137406.20    
 2.23568724E-06 7.46348573E-09 2.31101617E+09 2.31087495E+09  1053.2644      140159.79    
 2.25066421E-06 7.51348396E-09 2.35857652E+09 2.35843242E+09  1082.6565      143012.24    
 2.26574151E-06 7.56381713E-09 2.40521107E+09 2.40506418E+09  1111.0922      145777.78    
 2.28091982E-06 7.61448748E-09 2.45429891E+09 2.45414906E+09  1141.7110      148710.23    
 2.29619980E-06 7.66549727E-09 2.50374036E+09 2.50358739E+09  1172.5659      151799.33    
 2.31158215E-06 7.71684879E-09 2.55339174E+09 2.55323564E+09  1203.5017      154896.37    
 2.32706754E-06 7.76854430E-09 2.60629517E+09 2.60613578E+09  1237.4315      158156.38    
 2.34265667E-06 7.82058613E-09 2.65782482E+09 2.65766226E+09  1269.9362      161286.10    
 2.35835023E-06 7.87297659E-09 2.71168398E+09 2.71151816E+09  1304.5643      164516.67    
 2.37414893E-06 7.92571802E-09 2.76668796E+09 2.76651884E+09  1340.1954      167772.08    
 2.39005346E-06 7.97881276E-09 2.82137651E+09 2.82120408E+09  1375.3861      171052.40    
 2.40606454E-06 8.03226319E-09 2.87977563E+09 2.87959950E+09  1414.1113      174718.74    
 2.42218287E-06 8.08607168E-09 2.93693586E+09 2.93675613E+09  1451.4871      178277.84    
 2.43840918E-06 8.14024064E-09 2.99602689E+09 2.99584349E+09  1490.6457      181915.28    
 2.45474420E-06 8.19477248E-09 3.05721517E+09 3.05702801E+09  1531.7874      185629.56    
 2.47118864E-06 8.24966963E-09 3.11764269E+09 3.11745186E+09  1572.0137      189252.81    
 2.48774324E-06 8.30493454E-09 3.18172198E+09 3.18152733E+09  1615.8183      193038.83    
 2.50440875E-06 8.36056967E-09 3.24531872E+09 3.24512018E+09  1658.9907      196883.59    
 2.52118589E-06 8.41657750E-09 3.31014614E+09 3.30994348E+09  1703.2679      200954.30    
 2.53807543E-06 8.47296053E-09 3.37820925E+09 3.37800230E+09  1750.7670      205198.51    
 2.55507811E-06 8.52972128E-09 3.44497698E+09 3.44476588E+09  1796.7493      209301.27    
 2.57219470E-06 8.58686227E-09 3.51528539E+09 3.51506998E+09  1846.2947      213568.51    
 2.58942595E-06 8.64438604E-09 3.58603831E+09 3.58581862E+09  1896.1565      217803.30    
 2.60677263E-06 8.70229518E-09 3.65715454E+09 3.65693058E+09  1946.2162      222011.60    
 2.62423551E-06 8.76059224E-09 3.73285931E+09 3.73263069E+09  2001.0488      226616.07    
 2.64181539E-06 8.81927985E-09 3.80663125E+09 3.80639795E+09  2053.6106      231249.84    
 2.65951303E-06 8.87836060E-09 3.88376994E+09 3.88353178E+09  2109.6439      236055.91    
 2.67732922E-06 8.93783714E-09 3.96247870E+09 3.96223564E+09  2167.2244      240890.74    
 2.69526477E-06 8.99771211E-09 4.04077028E+09 4.04052242E+09  2224.1295      245640.45    
 2.71332047E-06 9.05798819E-09 4.12440555E+09 4.12415262E+09  2286.7911      250641.09    
 2.73149713E-06 9.11866806E-09 4.20619722E+09 4.20593938E+09  2347.1896      255490.33    
 2.74979555E-06 9.17975443E-09 4.29082464E+09 4.29056157E+09  2410.5539      260661.56    
 2.76821656E-06 9.24125002E-09 4.37837741E+09 4.37810876E+09  2477.0401      266169.53    
 2.78676096E-06 9.30315757E-09 4.46487978E+09 4.46460569E+09  2542.0876      271547.77    
 2.80542960E-06 9.36547984E-09 4.55664546E+09 4.55636566E+09  2612.9684      277185.62    
 2.82422330E-06 9.42821962E-09 4.64764174E+09 4.64735636E+09  2682.7344      282697.09    
 2.84314290E-06 9.49137968E-09 4.74047949E+09 4.74018848E+09  2754.3816      288253.06    
 2.86218924E-06 9.55496287E-09 4.83786239E+09 4.83756553E+09  2831.1417      294028.44    
 2.88136318E-06 9.61897199E-09 4.93343470E+09 4.93313189E+09  2905.4967      299907.03    
 2.90066556E-06 9.68340992E-09 5.03411541E+09 5.03380618E+09  2985.6671      306241.67    
 2.92009725E-06 9.74827952E-09 5.13534451E+09 5.13502891E+09  3066.2433      312532.83    
 2.93965911E-06 9.81358368E-09 5.23718336E+09 5.23686143E+09  3147.2478      318783.92    
 2.95935202E-06 9.87932532E-09 5.34549269E+09 5.34516412E+09  3235.8591      325340.58    
 2.97917685E-06 9.94550737E-09 5.45108385E+09 5.45074888E+09  3320.8533      331652.88    
 2.99913449E-06 1.00121328E-08 5.56153870E+09 5.56119707E+09  3411.5218      338220.31    
 3.01922583E-06 1.00792045E-08 5.67414258E+09 5.67379389E+09  3504.5719      345187.91    
 3.03945176E-06 1.01467255E-08 5.78619903E+09 5.78584321E+09  3596.5889      352227.25    
 3.05981319E-06 1.02146989E-08 5.90594859E+09 5.90558522E+09  3697.9808      359677.56    
 3.08031101E-06 1.02831276E-08 6.02295985E+09 6.02258921E+09  3795.5821      366848.00    
 3.10094616E-06 1.03520148E-08 6.14413113E+09 6.14375304E+09  3898.1134      374184.90    
 3.12171953E-06 1.04213634E-08 6.26937818E+09 6.26899251E+09  4005.5552      381659.58    
 3.14263207E-06 1.04911766E-08 6.39317755E+09 6.39278439E+09  4110.7385      389048.50    
 3.16368471E-06 1.05614574E-08 6.52456022E+09 6.52415878E+09  4225.4299      397209.66    
 3.18487837E-06 1.06322091E-08 6.65473021E+09 6.65432048E+09  4338.1691      405392.79    
 3.20621402E-06 1.07034348E-08 6.78764971E+09 6.78723160E+09  4454.1035      413650.05    
 3.22769259E-06 1.07751376E-08 6.92694948E+09 6.92652271E+09  4578.1484      422188.26    
 3.24931505E-06 1.08473207E-08 7.06372009E+09 7.06328493E+09  4698.3815      430462.82    
 3.27108236E-06 1.09199874E-08 7.20785713E+09 7.20741324E+09  4828.1046      439064.54    
 3.29299549E-06 1.09931409E-08 7.35265359E+09 7.35220089E+09  4958.3131      447737.72    
 3.31505541E-06 1.10667844E-08 7.49845126E+09 7.49798935E+09  5089.3891      456820.31    
 3.33726312E-06 1.11409213E-08 7.65336871E+09 7.65289689E+09  5232.5860      466579.78    
 3.35961959E-06 1.12155548E-08 7.80446655E+09 7.80398523E+09  5370.0222      475949.20    
 3.38212584E-06 1.12906884E-08 7.96258729E+09 7.96209613E+09  5516.7326      485640.14    
 3.40478285E-06 1.13663252E-08 8.12364158E+09 8.12314054E+09  5667.0988      495372.28    
 3.42759164E-06 1.14424687E-08 8.28398323E+09 8.28347246E+09  5815.8908      504952.20    
 3.45055323E-06 1.15191223E-08 8.45539570E+09 8.45487449E+09  5979.9488      515230.07    
 3.47366865E-06 1.15962894E-08 8.62274908E+09 8.62221721E+09  6137.6658      525729.55    
 3.49693891E-06 1.16739735E-08 8.79619960E+09 8.79565666E+09  6303.5716      536639.34    
 3.52036506E-06 1.17521780E-08 8.97532325E+09 8.97476902E+09  6477.1950      547754.08    
 3.54394814E-06 1.18309064E-08 9.15245515E+09 9.15188990E+09  6647.2760      558600.77    
 3.56768921E-06 1.19101621E-08 9.34050688E+09 9.33993008E+09  6832.8538      569961.71    
 3.59158932E-06 1.19899488E-08 9.52666414E+09 9.52607605E+09  7015.0331      581069.23    
 3.61564954E-06 1.20702701E-08 9.71691805E+09 9.71631833E+09  7202.6268      592518.50    
 3.63987094E-06 1.21511293E-08 9.91612248E+09 9.91550999E+09  7403.0808      605088.19    
 3.66425460E-06 1.22325303E-08 1.01117983E+10 1.01111733E+10  7597.4965      617369.95    
 3.68880161E-06 1.23144766E-08 1.03180922E+10 1.03174542E+10  7807.3967      630173.13    
 3.71351306E-06 1.23969718E-08 1.05251501E+10 1.05244992E+10  8017.8060      642840.00    
 3.73839005E-06 1.24800197E-08 1.07338228E+10 1.07331591E+10  8229.9006      655455.23    
 3.76343369E-06 1.25636239E-08 1.09553406E+10 1.09546635E+10  8461.3045      668642.50    
 3.78864510E-06 1.26477882E-08 1.11714957E+10 1.11708053E+10  8683.5362      681744.93    
 3.81402541E-06 1.27325163E-08 1.13977871E+10 1.13970822E+10  8920.9234      696057.69    
 3.83957574E-06 1.28178120E-08 1.16280735E+10 1.16273539E+10  9163.9068      710521.25    
 3.86529723E-06 1.29036791E-08 1.18574421E+10 1.18567079E+10  9404.4999      724739.42    
 3.89119103E-06 1.29901214E-08 1.21027343E+10 1.21019848E+10  9669.9508      739748.04    
 3.91725829E-06 1.30771428E-08 1.23420184E+10 1.23412542E+10  9924.8059      754194.00    
 3.94350018E-06 1.31647472E-08 1.25902290E+10 1.25894498E+10  10193.253      768990.75    
 3.96991787E-06 1.32529384E-08 1.28463278E+10 1.28455327E+10  10473.819      784630.68    
 3.99651253E-06 1.33417205E-08 1.30996928E+10 1.30988815E+10  10748.835      800646.56    
 4.02328535E-06 1.34310972E-08 1.33687755E+10 1.33679469E+10  11049.106      817565.28    
 4.05023752E-06 1.35210728E-08 1.36349221E+10 1.36340767E+10  11343.490      834045.80    
 4.07737024E-06 1.36116511E-08 1.39071591E+10 1.39062967E+10  11647.030      850704.15    
 4.10468473E-06 1.37028361E-08 1.41919403E+10 1.41910604E+10  11970.954      867880.97    
 4.13218219E-06 1.37946320E-08 1.44718038E+10 1.44709069E+10  12285.316      884598.67    
