 OPTXAGNF AGN Spectrum Model Parameters: NLS, Astar 0.0                          
 M_BH:  2.0000E+08 M_0            L  :  3.0000E-02 L/Ledd 
 D   :  1.5000E+18 cm             z  :   0.000     redshift 
 Rcor:   40.00     Rg             Ro :   4.000     Rg 
 C_T :  0.2000     keV            Tau:   15.00     Optical Depth 
 gam :   2.200     (-slope)       fpl:  0.2000     Fraction 
 E              0.5DeltaE      E.FE total     E.FE Disk      E.FE Compton   E.FE NonThermal
 (keV)          (keV)          E.E/cm2/s/E    E.E/cm2/s/E    E.E/cm2/s/E    E.E/cm2/s/E    
 1.00334952E-06 3.34952256E-09 1.04442943E+08 1.04435270E+08  30.123913      7643.2637    
 1.01007101E-06 3.37196116E-09 1.06508840E+08 1.06501010E+08  30.915279      7799.7558    
 1.01683752E-06 3.39455008E-09 1.08661483E+08 1.08653490E+08  31.754364      7961.2658    
 1.02364936E-06 3.41729032E-09 1.10873368E+08 1.10865211E+08  32.625716      8124.9175    
 1.03050683E-06 3.44018290E-09 1.13065982E+08 1.13057664E+08  33.482479      8285.1005    
 1.03741024E-06 3.46322884E-09 1.15400330E+08 1.15391843E+08  34.420968      8453.2107    
 1.04435990E-06 3.48642917E-09 1.17699114E+08 1.17690462E+08  35.335141      8617.4156    
 1.05135611E-06 3.50978492E-09 1.20060940E+08 1.20052112E+08  36.283967      8791.7089    
 1.05839920E-06 3.53329712E-09 1.22521624E+08 1.22512608E+08  37.290038      8978.3021    
 1.06548946E-06 3.55696684E-09 1.24944479E+08 1.24935281E+08  38.269405      9159.6829    
 1.07262722E-06 3.58079512E-09 1.27505988E+08 1.27496599E+08  39.330954      9349.1766    
 1.07981280E-06 3.60478303E-09 1.30063745E+08 1.30054169E+08  40.386856      9535.7196    
 1.08704652E-06 3.62893164E-09 1.32654937E+08 1.32645173E+08  41.459667      9722.4736    
 1.09432869E-06 3.65324201E-09 1.35392201E+08 1.35382240E+08  42.621150      9918.0521    
 1.10165965E-06 3.67771524E-09 1.38069431E+08 1.38059270E+08  43.740664      10116.974    
 1.10903971E-06 3.70235243E-09 1.40880052E+08 1.40869677E+08  44.941293      10329.951    
 1.11646922E-06 3.72715465E-09 1.43725758E+08 1.43715169E+08  46.160745      10542.919    
 1.12394850E-06 3.75212303E-09 1.46568439E+08 1.46557639E+08  47.373617      10752.995    
 1.13147788E-06 3.77725867E-09 1.49613183E+08 1.49602159E+08  48.714365      10974.892    
 1.13905770E-06 3.80256270E-09 1.52571446E+08 1.52560208E+08  49.994080      11187.775    
 1.14668830E-06 3.82803623E-09 1.55655219E+08 1.55643758E+08  51.351878      11408.791    
 1.15437002E-06 3.85368042E-09 1.58821061E+08 1.58809363E+08  52.760042      11645.264    
 1.16210319E-06 3.87949640E-09 1.61960703E+08 1.61948766E+08  54.145509      11882.753    
 1.16988818E-06 3.90548532E-09 1.65304612E+08 1.65292423E+08  55.664131      12133.157    
 1.17772531E-06 3.93164835E-09 1.68594757E+08 1.68582324E+08  57.141459      12375.876    
 1.18561494E-06 3.95798663E-09 1.71978056E+08 1.71965375E+08  58.676847      12622.486    
 1.19355743E-06 3.98450137E-09 1.75499793E+08 1.75486858E+08  60.302733      12875.437    
 1.20155313E-06 4.01119372E-09 1.78968922E+08 1.78955735E+08  61.886457      13125.140    
 1.20960239E-06 4.03806489E-09 1.82638060E+08 1.82624597E+08  63.604215      13400.072    
 1.21770557E-06 4.06511607E-09 1.86298662E+08 1.86284920E+08  65.310591      13677.119    
 1.22586303E-06 4.09234846E-09 1.90010373E+08 1.89996351E+08  67.046618      13954.609    
 1.23407514E-06 4.11976329E-09 1.93927757E+08 1.93913444E+08  68.923669      14243.596    
 1.24234227E-06 4.14736177E-09 1.97760906E+08 1.97746313E+08  70.734018      14522.664    
 1.25066478E-06 4.17514513E-09 2.01786669E+08 2.01771785E+08  72.676837      14811.835    
 1.25904304E-06 4.20311462E-09 2.05859122E+08 2.05843941E+08  74.647526      15106.003    
 1.26747742E-06 4.23127147E-09 2.09930881E+08 2.09915393E+08  76.610207      15411.857    
 1.27596831E-06 4.25961695E-09 2.14288055E+08 2.14272234E+08  78.776975      15742.233    
 1.28451608E-06 4.28815232E-09 2.18523358E+08 2.18507219E+08  80.846375      16058.230    
 1.29312111E-06 4.31687884E-09 2.22940181E+08 2.22923714E+08  83.043528      16383.957    
 1.30178379E-06 4.34579781E-09 2.27470510E+08 2.27453711E+08  85.319194      16713.340    
 1.31050450E-06 4.37491051E-09 2.31965311E+08 2.31948187E+08  87.559600      17036.486    
 1.31928362E-06 4.40421823E-09 2.36754402E+08 2.36736929E+08  90.016943      17382.899    
 1.32812156E-06 4.43372228E-09 2.41462502E+08 2.41444670E+08  92.404322      17738.845    
 1.33701871E-06 4.46342399E-09 2.46308095E+08 2.46289894E+08  94.888854      18105.469    
 1.34597546E-06 4.49332467E-09 2.51347421E+08 2.51328842E+08  97.516380      18481.708    
 1.35499221E-06 4.52342565E-09 2.56313660E+08 2.56294712E+08  100.07738      18847.534    
 1.36406936E-06 4.55372829E-09 2.61568271E+08 2.61548939E+08  102.85696      19229.457    
 1.37320733E-06 4.58423392E-09 2.66806125E+08 2.66786414E+08  105.61449      19605.499    
 1.38240650E-06 4.61494391E-09 2.72121775E+08 2.72101675E+08  108.42370      19991.390    
 1.39166731E-06 4.64585962E-09 2.77726877E+08 2.77706349E+08  111.45714      20417.369    
 1.40099015E-06 4.67698245E-09 2.83213902E+08 2.83192956E+08  114.38460      20831.602    
 1.41037545E-06 4.70831376E-09 2.88978963E+08 2.88957584E+08  117.52837      21261.931    
 1.41982361E-06 4.73985497E-09 2.94805775E+08 2.94783963E+08  120.71305      21690.694    
 1.42933508E-06 4.77160747E-09 3.00636753E+08 3.00614514E+08  123.88904      22114.739    
 1.43891026E-06 4.80357269E-09 3.06870665E+08 3.06847976E+08  127.39069      22561.213    
 1.44854958E-06 4.83575204E-09 3.12932951E+08 3.12909816E+08  130.73704      23004.633    
 1.45825348E-06 4.86814696E-09 3.19257679E+08 3.19234058E+08  134.29238      23486.010    
 1.46802239E-06 4.90075889E-09 3.25739185E+08 3.25715071E+08  137.96993      23975.674    
 1.47785673E-06 4.93358930E-09 3.32172692E+08 3.32148095E+08  141.59279      24455.227    
 1.48775696E-06 4.96663964E-09 3.39030014E+08 3.39004909E+08  145.56907      24959.770    
 1.49772351E-06 4.99991138E-09 3.45765624E+08 3.45740026E+08  149.42706      25448.733    
 1.50775683E-06 5.03340601E-09 3.52703900E+08 3.52677800E+08  153.44743      25946.195    
 1.51785736E-06 5.06712502E-09 3.59913091E+08 3.59886457E+08  157.69361      26476.949    
 1.52802556E-06 5.10106992E-09 3.67020904E+08 3.66993724E+08  161.83488      27018.016    
 1.53826187E-06 5.13524222E-09 3.74544359E+08 3.74516606E+08  166.33258      27586.671    
 1.54856676E-06 5.16964344E-09 3.82037369E+08 3.82009053E+08  170.78876      28144.600    
 1.55894067E-06 5.20427512E-09 3.89648303E+08 3.89619423E+08  175.33453      28704.547    
 1.56938409E-06 5.23913879E-09 3.97666282E+08 3.97636815E+08  180.23669      29285.888    
 1.57989746E-06 5.27423602E-09 4.05518871E+08 4.05488836E+08  184.97053      29850.062    
 1.59048127E-06 5.30956836E-09 4.13772651E+08 4.13742001E+08  190.05756      30460.791    
 1.60113597E-06 5.34513740E-09 4.22107578E+08 4.22076286E+08  195.20403      31096.222    
 1.61186206E-06 5.38094472E-09 4.30455875E+08 4.30423949E+08  200.34332      31726.002    
 1.62265999E-06 5.41699191E-09 4.39372734E+08 4.39340138E+08  206.00216      32390.384    
 1.63353026E-06 5.45328058E-09 4.48048010E+08 4.48014771E+08  211.41334      33027.702    
 1.64447336E-06 5.48981235E-09 4.57102471E+08 4.57068570E+08  217.16635      33684.561    
 1.65548976E-06 5.52658885E-09 4.66373132E+08 4.66338558E+08  223.10931      34351.292    
 1.66657996E-06 5.56361172E-09 4.75579235E+08 4.75543970E+08  228.96763      35036.168    
 1.67774445E-06 5.60088261E-09 4.85395468E+08 4.85359447E+08  235.40163      35785.740    
 1.68898374E-06 5.63840317E-09 4.95029347E+08 4.94992594E+08  241.63602      36511.482    
 1.70029832E-06 5.67617509E-09 5.04961590E+08 5.04924091E+08  248.14154      37251.063    
 1.71168869E-06 5.71420004E-09 5.15272292E+08 5.15234029E+08  255.00344      38008.123    
 1.72315537E-06 5.75247973E-09 5.25442504E+08 5.25403496E+08  261.70000      38745.926    
 1.73469887E-06 5.79101585E-09 5.36211519E+08 5.36171728E+08  268.97775      39521.590    
 1.74631969E-06 5.82981012E-09 5.46927809E+08 5.46887208E+08  276.17883      40324.717    
 1.75801837E-06 5.86886429E-09 5.57822256E+08 5.57780817E+08  283.53453      41155.109    
 1.76979541E-06 5.90818007E-09 5.69288786E+08 5.69246474E+08  291.45653      42020.152    
 1.78165135E-06 5.94775924E-09 5.80523859E+08 5.80480704E+08  299.11127      42855.589    
 1.79358672E-06 5.98760354E-09 5.92337484E+08 5.92293453E+08  307.34262      43723.127    
 1.80560203E-06 6.02771477E-09 6.04256809E+08 6.04211907E+08  315.65922      44586.388    
 1.81769784E-06 6.06809470E-09 6.16205854E+08 6.16160080E+08  323.97535      45450.004    
 1.82987468E-06 6.10874514E-09 6.28956754E+08 6.28910010E+08  333.12018      46410.386    
 1.84213310E-06 6.14966790E-09 6.41367891E+08 6.41320192E+08  341.87017      47356.215    
 1.85447363E-06 6.19086481E-09 6.54326660E+08 6.54277976E+08  351.17917      48333.288    
 1.86689683E-06 6.23233769E-09 6.67583057E+08 6.67533377E+08  360.78292      49318.839    
 1.87940326E-06 6.27408840E-09 6.80752927E+08 6.80702271E+08  370.25590      50285.999    
 1.89199346E-06 6.31611880E-09 6.94800651E+08 6.94748968E+08  380.66660      51302.532    
 1.90466801E-06 6.35843077E-09 7.08575896E+08 7.08523202E+08  390.74104      52303.040    
 1.91742747E-06 6.40102618E-09 7.22789894E+08 7.22736116E+08  401.26770      53376.234    
 1.93027240E-06 6.44390694E-09 7.37532152E+08 7.37477237E+08  412.35648      54502.152    
 1.94320339E-06 6.48707497E-09 7.52080059E+08 7.52024038E+08  423.18488      55597.287    
 1.95622099E-06 6.53053217E-09 7.67490218E+08 7.67433039E+08  434.96084      56743.342    
 1.96932581E-06 6.57428050E-09 7.82811789E+08 7.82753475E+08  446.59743      57866.968    
 1.98251841E-06 6.61832191E-09 7.98401554E+08 7.98342099E+08  458.49982      58996.759    
 1.99579939E-06 6.66265834E-09 8.14794787E+08 8.14734127E+08  471.30174      60189.457    
 2.00916934E-06 6.70729179E-09 8.30864492E+08 8.30802598E+08  483.67946      61409.743    
 2.02262885E-06 6.75222424E-09 8.47768157E+08 8.47704959E+08  496.99845      62700.874    
 2.03617854E-06 6.79745770E-09 8.64808216E+08 8.64743722E+08  510.43771      63983.422    
 2.04981899E-06 6.84299417E-09 8.81905881E+08 8.81840103E+08  523.89422      65254.554    
 2.06355082E-06 6.88883570E-09 9.00133563E+08 9.00066434E+08  538.67226      66590.692    
 2.07737464E-06 6.93498432E-09 9.17883709E+08 9.17815279E+08  552.82094      67876.765    
 2.09129106E-06 6.98144209E-09 9.36424336E+08 9.36354539E+08  567.88366      69229.601    
 2.10530072E-06 7.02821109E-09 9.55374009E+08 9.55302748E+08  583.40294      70677.888    
 2.11940422E-06 7.07529339E-09 9.74208374E+08 9.74135662E+08  598.72065      72113.439    
 2.13360221E-06 7.12269110E-09 9.94305205E+08 9.94230961E+08  615.56566      73627.773    
 2.14789530E-06 7.17040633E-09 1.01399584E+09 1.01392012E+09  631.84514      75089.761    
 2.16228415E-06 7.21844121E-09 1.03433070E+09 1.03425347E+09  648.87818      76581.530    
 2.17676939E-06 7.26679787E-09 1.05540209E+09 1.05532331E+09  666.79725      78105.527    
 2.19135167E-06 7.31547848E-09 1.07620511E+09 1.07612479E+09  684.30655      79631.831    
 2.20603163E-06 7.36448520E-09 1.09824916E+09 1.09816713E+09  703.36065      81324.194    
 2.22080994E-06 7.41382021E-09 1.12014789E+09 1.12006418E+09  722.16447      82992.625    
 2.23568724E-06 7.46348573E-09 1.14244919E+09 1.14236377E+09  741.42360      84671.511    
 2.25066421E-06 7.51348396E-09 1.16587798E+09 1.16579081E+09  762.11109      86411.630    
 2.26574151E-06 7.56381713E-09 1.18885483E+09 1.18876596E+09  782.12552      88096.474    
 2.28091982E-06 7.61448748E-09 1.21303304E+09 1.21294239E+09  803.67633      89845.239    
 2.29619980E-06 7.66549727E-09 1.23738524E+09 1.23729277E+09  825.39319      91647.286    
 2.31158215E-06 7.71684879E-09 1.26184145E+09 1.26174708E+09  847.16706      93523.988    
 2.32706754E-06 7.76854430E-09 1.28788916E+09 1.28779278E+09  871.04793      95512.961    
 2.34265667E-06 7.82058613E-09 1.31326629E+09 1.31316798E+09  893.92584      97420.730    
 2.35835023E-06 7.87297659E-09 1.33978367E+09 1.33968336E+09  918.29813      99390.921    
 2.37414893E-06 7.92571802E-09 1.36686185E+09 1.36675953E+09  943.37621      101374.61    
 2.39005346E-06 7.97881276E-09 1.39378724E+09 1.39368294E+09  968.14432      103325.99    
 2.40606454E-06 8.03226319E-09 1.42252722E+09 1.42242075E+09  995.39982      105465.46    
 2.42218287E-06 8.08607168E-09 1.45066324E+09 1.45055459E+09  1021.7056      107628.61    
 2.43840918E-06 8.14024064E-09 1.47974413E+09 1.47963323E+09  1049.2660      109846.58    
 2.45474420E-06 8.19477248E-09 1.50985081E+09 1.50973762E+09  1078.2221      112112.04    
 2.47118864E-06 8.24966963E-09 1.53958750E+09 1.53947208E+09  1106.5337      114320.58    
 2.48774324E-06 8.30493454E-09 1.57110901E+09 1.57099124E+09  1137.3636      116630.08    
 2.50440875E-06 8.36056967E-09 1.60239632E+09 1.60227625E+09  1167.7485      118902.26    
 2.52118589E-06 8.41657750E-09 1.63428622E+09 1.63416374E+09  1198.9109      121288.15    
 2.53807543E-06 8.47296053E-09 1.66775713E+09 1.66763203E+09  1232.3405      123868.51    
 2.55507811E-06 8.52972128E-09 1.70059758E+09 1.70046994E+09  1264.7027      126369.25    
 2.57219470E-06 8.58686227E-09 1.73516756E+09 1.73503728E+09  1299.5723      128971.90    
 2.58942595E-06 8.64438604E-09 1.76995608E+09 1.76982319E+09  1334.6645      131554.05    
 2.60677263E-06 8.70229518E-09 1.80492387E+09 1.80478838E+09  1369.8959      134119.33    
 2.62423551E-06 8.76059224E-09 1.84213132E+09 1.84199308E+09  1408.4858      136823.55    
 2.64181539E-06 8.81927985E-09 1.87839816E+09 1.87825716E+09  1445.4779      139558.48    
 2.65951303E-06 8.87836060E-09 1.91630878E+09 1.91616482E+09  1484.9127      142481.08    
 2.67732922E-06 8.93783714E-09 1.95498672E+09 1.95483976E+09  1525.4363      145429.42    
 2.69526477E-06 8.99771211E-09 1.99346362E+09 1.99331373E+09  1565.4845      148324.42    
 2.71332047E-06 9.05798819E-09 2.03454676E+09 2.03439378E+09  1609.5834      151375.13    
 2.73149713E-06 9.11866806E-09 2.07473372E+09 2.07457775E+09  1652.0898      154320.30    
 2.74979555E-06 9.17975443E-09 2.11630461E+09 2.11614556E+09  1696.6830      157352.41    
 2.76821656E-06 9.24125002E-09 2.15930265E+09 2.15914029E+09  1743.4730      160614.87    
 2.78676096E-06 9.30315757E-09 2.20179178E+09 2.20162610E+09  1789.2506      163888.78    
 2.80542960E-06 9.36547984E-09 2.24684624E+09 2.24667708E+09  1839.1328      167327.71    
 2.82422330E-06 9.42821962E-09 2.29152852E+09 2.29135595E+09  1888.2305      170687.63    
 2.84314290E-06 9.49137968E-09 2.33711005E+09 2.33693403E+09  1938.6518      174074.71    
 2.86218924E-06 9.55496287E-09 2.38490608E+09 2.38472651E+09  1992.6707      177575.21    
 2.88136318E-06 9.61897199E-09 2.43182381E+09 2.43164075E+09  2044.9973      181012.49    
 2.90066556E-06 9.68340992E-09 2.48122983E+09 2.48104296E+09  2101.4157      184776.89    
 2.92009725E-06 9.74827952E-09 2.53090542E+09 2.53071465E+09  2158.1196      188612.55    
 2.93965911E-06 9.81358368E-09 2.58088087E+09 2.58068624E+09  2215.1248      192422.74    
 2.95935202E-06 9.87932532E-09 2.63400545E+09 2.63380675E+09  2277.4823      196422.50    
 2.97917685E-06 9.94550737E-09 2.68581165E+09 2.68560905E+09  2337.2945      200269.69    
 2.99913449E-06 1.00121328E-08 2.73998542E+09 2.73977878E+09  2401.0994      204241.92    
 3.01922583E-06 1.00792045E-08 2.79520657E+09 2.79499580E+09  2466.5797      208301.07    
 3.03945176E-06 1.01467255E-08 2.85016559E+09 2.84995055E+09  2531.3332      212506.87    
 3.05981319E-06 1.02146989E-08 2.90886540E+09 2.90864574E+09  2602.6827      217051.79    
 3.08031101E-06 1.02831276E-08 2.96623861E+09 2.96601451E+09  2671.3651      221422.11    
 3.10094616E-06 1.03520148E-08 3.02563610E+09 3.02540746E+09  2743.5162      225895.33    
 3.12171953E-06 1.04213634E-08 3.08701604E+09 3.08678276E+09  2819.1222      230453.72    
 3.14263207E-06 1.04911766E-08 3.14769731E+09 3.14745951E+09  2893.1390      234908.38    
 3.16368471E-06 1.05614574E-08 3.21206297E+09 3.21182034E+09  2973.8454      239649.54    
 3.18487837E-06 1.06322091E-08 3.27584425E+09 3.27559662E+09  3053.1782      244571.16    
 3.20621402E-06 1.07034348E-08 3.34096423E+09 3.34071149E+09  3134.7590      249604.64    
 3.22769259E-06 1.07751376E-08 3.40918308E+09 3.40892505E+09  3222.0459      254812.22    
 3.24931505E-06 1.08473207E-08 3.47617994E+09 3.47591678E+09  3306.6510      259855.05    
 3.27108236E-06 1.09199874E-08 3.54675332E+09 3.54648482E+09  3397.9326      265100.77    
 3.29299549E-06 1.09931409E-08 3.61765071E+09 3.61737692E+09  3489.5557      270300.94    
 3.31505541E-06 1.10667844E-08 3.68903862E+09 3.68875945E+09  3581.7889      275580.85    
 3.33726312E-06 1.11409213E-08 3.76485064E+09 3.76456548E+09  3682.5496      281473.41    
 3.35961959E-06 1.12155548E-08 3.83881721E+09 3.83852625E+09  3779.2573      287183.29    
 3.38212584E-06 1.12906884E-08 3.91619118E+09 3.91589420E+09  3882.4896      293092.30    
 3.40478285E-06 1.13663252E-08 3.99499083E+09 3.99468781E+09  3988.2938      299026.19    
 3.42759164E-06 1.14424687E-08 4.07345148E+09 4.07314252E+09  4092.9903      304863.92    
 3.45055323E-06 1.15191223E-08 4.15727660E+09 4.15696138E+09  4208.4266      311008.97    
 3.47366865E-06 1.15962894E-08 4.23914269E+09 4.23882125E+09  4319.4017      317123.94    
 3.49693891E-06 1.16739735E-08 4.32396588E+09 4.32363773E+09  4436.1376      323720.29    
 3.52036506E-06 1.17521780E-08 4.41153934E+09 4.41120428E+09  4558.3027      330497.97    
 3.54394814E-06 1.18309064E-08 4.49815615E+09 4.49781436E+09  4677.9757      337107.95    
 3.56768921E-06 1.19101621E-08 4.59005982E+09 4.58971098E+09  4808.5503      344037.01    
 3.59158932E-06 1.19899488E-08 4.68105390E+09 4.68069816E+09  4936.7340      350803.25    
 3.61564954E-06 1.20702701E-08 4.77403555E+09 4.77367285E+09  5068.7264      357635.54    
 3.63987094E-06 1.21511293E-08 4.87134891E+09 4.87097874E+09  5209.7656      364959.09    
 3.66425460E-06 1.22325303E-08 4.96696519E+09 4.96658744E+09  5346.5568      372404.09    
 3.68880161E-06 1.23144766E-08 5.06771797E+09 5.06733227E+09  5494.2407      380211.51    
 3.71351306E-06 1.23969718E-08 5.16884689E+09 5.16845331E+09  5642.2825      387933.15    
 3.73839005E-06 1.24800197E-08 5.27076407E+09 5.27036266E+09  5791.5097      395621.47    
 3.76343369E-06 1.25636239E-08 5.37888906E+09 5.37847944E+09  5954.3198      403664.90    
 3.78864510E-06 1.26477882E-08 5.48443411E+09 5.48401656E+09  6110.6775      411441.61    
 3.81402541E-06 1.27325163E-08 5.59487867E+09 5.59445259E+09  6277.6961      419799.93    
 3.83957574E-06 1.28178120E-08 5.70725869E+09 5.70682366E+09  6448.6509      428582.79    
 3.86529723E-06 1.29036791E-08 5.81920595E+09 5.81876209E+09  6617.9241      437246.81    
 3.89119103E-06 1.29901214E-08 5.93883922E+09 5.93838602E+09  6804.6827      446401.43    
 3.91725829E-06 1.30771428E-08 6.05558555E+09 6.05512337E+09  6983.9877      455204.68    
 3.94350018E-06 1.31647472E-08 6.17664425E+09 6.17617285E+09  7172.8533      464224.94    
 3.96991787E-06 1.32529384E-08 6.30151230E+09 6.30103149E+09  7370.2433      473443.50    
 3.99651253E-06 1.33417205E-08 6.42507459E+09 6.42458417E+09  7563.7287      482856.09    
 4.02328535E-06 1.34310972E-08 6.55621637E+09 6.55571546E+09  7774.9782      493137.22    
 4.05023752E-06 1.35210728E-08 6.68595487E+09 6.68544371E+09  7982.0872      503181.45    
 4.07737024E-06 1.36116511E-08 6.81863703E+09 6.81811550E+09  8195.6356      513334.77    
 4.10468473E-06 1.37028361E-08 6.95736584E+09 6.95683361E+09  8423.5211      523809.46    
 4.13218219E-06 1.37946320E-08 7.09374095E+09 7.09319832E+09  8644.6810      533977.60    
