 OPTXAGNF AGN Spectrum Model Parameters: BLS, Astar 0.0                          
 M_BH:  2.0000E+08 M_0            L  :  0.1000     L/Ledd 
 D   :  1.5000E+18 cm             z  :   0.000     redshift 
 Rcor:   60.00     Rg             Ro :   4.000     Rg 
 C_T :  0.2000     keV            Tau:   15.00     Optical Depth 
 gam :   1.800     (-slope)       fpl:  0.5000     Fraction 
 E              0.5DeltaE      E.FE total     E.FE Disk      E.FE Compton   E.FE NonThermal
 (keV)          (keV)          E.E/cm2/s/E    E.E/cm2/s/E    E.E/cm2/s/E    E.E/cm2/s/E    
 1.00334952E-06 3.34952256E-09 1.40225154E+08 1.40214650E+08  64.665622      10439.290    
 1.01007101E-06 3.37196116E-09 1.43000896E+08 1.42990181E+08  66.364418      10649.158    
 1.01683752E-06 3.39455008E-09 1.45893344E+08 1.45882410E+08  68.165650      10865.319    
 1.02364936E-06 3.41729032E-09 1.48865489E+08 1.48854335E+08  70.036150      11084.290    
 1.03050683E-06 3.44018290E-09 1.51811667E+08 1.51800296E+08  71.875334      11298.927    
 1.03741024E-06 3.46322884E-09 1.54948573E+08 1.54936970E+08  73.889956      11529.417    
 1.04435990E-06 3.48642917E-09 1.58037594E+08 1.58025752E+08  75.852377      11766.315    
 1.05135611E-06 3.50978492E-09 1.61211423E+08 1.61199335E+08  77.889190      12009.606    
 1.05839920E-06 3.53329712E-09 1.64518271E+08 1.64505931E+08  80.048886      12259.747    
 1.06548946E-06 3.55696684E-09 1.67774164E+08 1.67761579E+08  82.151261      12502.719    
 1.07262722E-06 3.58079512E-09 1.71216659E+08 1.71203818E+08  84.430052      12756.201    
 1.07981280E-06 3.60478303E-09 1.74654069E+08 1.74640976E+08  86.696720      13006.278    
 1.08704652E-06 3.62893164E-09 1.78136451E+08 1.78123099E+08  88.999690      13263.030    
 1.09432869E-06 3.65324201E-09 1.81815458E+08 1.81801820E+08  91.493006      13546.477    
 1.10165965E-06 3.67771524E-09 1.85413588E+08 1.85399673E+08  93.896230      13821.610    
 1.10903971E-06 3.70235243E-09 1.89191252E+08 1.89177049E+08  96.473582      14107.206    
 1.11646922E-06 3.72715465E-09 1.93016113E+08 1.93001622E+08  99.091342      14392.260    
 1.12394850E-06 3.75212303E-09 1.96836851E+08 1.96822076E+08  101.69498      14673.672    
 1.13147788E-06 3.77725867E-09 2.00929615E+08 2.00914540E+08  104.57312      14970.693    
 1.13905770E-06 3.80256270E-09 2.04905898E+08 2.04890524E+08  107.32024      15266.029    
 1.14668830E-06 3.82803623E-09 2.09051146E+08 2.09035450E+08  110.23498      15585.649    
 1.15437002E-06 3.85368042E-09 2.13306849E+08 2.13290825E+08  113.25785      15911.217    
 1.16210319E-06 3.87949640E-09 2.17527206E+08 2.17510860E+08  116.23199      16229.745    
 1.16988818E-06 3.90548532E-09 2.22022595E+08 2.22005910E+08  119.49197      16564.625    
 1.17772531E-06 3.93164835E-09 2.26445528E+08 2.26428516E+08  122.66331      16889.695    
 1.18561494E-06 3.95798663E-09 2.30993860E+08 2.30976514E+08  125.95928      17219.863    
 1.19355743E-06 3.98450137E-09 2.35728607E+08 2.35710904E+08  129.44952      17573.546    
 1.20155313E-06 4.01119372E-09 2.40392448E+08 2.40374381E+08  132.84926      17933.442    
 1.20960239E-06 4.03806489E-09 2.45325611E+08 2.45307163E+08  136.53672      18310.857    
 1.21770557E-06 4.06511607E-09 2.50247210E+08 2.50228388E+08  140.19975      18681.806    
 1.22586303E-06 4.09234846E-09 2.55237584E+08 2.55218387E+08  143.92643      19053.431    
 1.23407514E-06 4.11976329E-09 2.60504958E+08 2.60485370E+08  147.95585      19439.937    
 1.24234227E-06 4.14736177E-09 2.65658792E+08 2.65638825E+08  151.84208      19814.791    
 1.25066478E-06 4.17514513E-09 2.71072059E+08 2.71051681E+08  156.01268      20221.161    
 1.25904304E-06 4.20311462E-09 2.76548173E+08 2.76527368E+08  160.24311      20644.031    
 1.26747742E-06 4.23127147E-09 2.82023252E+08 2.82002025E+08  164.45634      21061.986    
 1.27596831E-06 4.25961695E-09 2.87882806E+08 2.87861133E+08  169.10769      21503.729    
 1.28451608E-06 4.28815232E-09 2.93578078E+08 2.93555978E+08  173.55002      21927.072    
 1.29312111E-06 4.31687884E-09 2.99517856E+08 2.99495315E+08  178.26660      22363.052    
 1.30178379E-06 4.34579781E-09 3.05610512E+08 3.05587522E+08  183.15172      22806.567    
 1.31050450E-06 4.37491051E-09 3.11655224E+08 3.11631774E+08  187.96114      23262.738    
 1.31928362E-06 4.40421823E-09 3.18096456E+08 3.18072502E+08  193.23627      23760.527    
 1.32812156E-06 4.43372228E-09 3.24428426E+08 3.24403985E+08  198.36120      24243.079    
 1.33701871E-06 4.46342399E-09 3.30945596E+08 3.30920658E+08  203.69469      24733.943    
 1.34597546E-06 4.49332467E-09 3.37723792E+08 3.37698345E+08  209.33514      25237.298    
 1.35499221E-06 4.52342565E-09 3.44403379E+08 3.44377437E+08  214.83278      25727.401    
 1.36406936E-06 4.55372829E-09 3.51471568E+08 3.51445104E+08  220.79965      26242.704    
 1.37320733E-06 4.58423392E-09 3.58517104E+08 3.58490099E+08  226.71919      26778.043    
 1.38240650E-06 4.61494391E-09 3.65667399E+08 3.65639837E+08  232.74967      27329.340    
 1.39166731E-06 4.64585962E-09 3.73207769E+08 3.73179625E+08  239.26149      27904.525    
 1.40099015E-06 4.67698245E-09 3.80588843E+08 3.80560138E+08  245.54580      28459.495    
 1.41037545E-06 4.70831376E-09 3.88344644E+08 3.88315356E+08  252.29448      29035.326    
 1.41982361E-06 4.73985497E-09 3.96183593E+08 3.96153724E+08  259.13098      29609.284    
 1.42933508E-06 4.77160747E-09 4.04028038E+08 4.03997588E+08  265.94883      30183.172    
 1.43891026E-06 4.80357269E-09 4.12415706E+08 4.12384609E+08  273.46576      30823.278    
 1.44854958E-06 4.83575204E-09 4.20571826E+08 4.20540093E+08  280.64931      31451.636    
 1.45825348E-06 4.86814696E-09 4.29081672E+08 4.29049284E+08  288.28148      32100.145    
 1.46802239E-06 4.90075889E-09 4.37802817E+08 4.37769765E+08  296.17602      32755.449    
 1.47785673E-06 4.93358930E-09 4.46459087E+08 4.46425385E+08  303.95317      33397.934    
 1.48775696E-06 4.96663964E-09 4.55686807E+08 4.55652422E+08  312.48898      34072.701    
 1.49772351E-06 4.99991138E-09 4.64750251E+08 4.64715191E+08  320.77086      34739.151    
 1.50775683E-06 5.03340601E-09 4.74086923E+08 4.74051141E+08  329.40134      35452.828    
 1.51785736E-06 5.06712502E-09 4.83788874E+08 4.83752334E+08  338.51656      36201.504    
 1.52802556E-06 5.10106992E-09 4.93353880E+08 4.93316603E+08  347.40656      36929.016    
 1.53826187E-06 5.13524222E-09 5.03479414E+08 5.03441367E+08  357.06173      37689.727    
 1.54856676E-06 5.16964344E-09 5.13563728E+08 5.13524924E+08  366.62775      38436.833    
 1.55894067E-06 5.20427512E-09 5.23806951E+08 5.23767388E+08  376.38609      39186.754    
 1.56938409E-06 5.23913879E-09 5.34599206E+08 5.34558837E+08  386.90952      39981.610    
 1.57989746E-06 5.27423602E-09 5.45168177E+08 5.45126986E+08  397.07159      40793.463    
 1.59048127E-06 5.30956836E-09 5.56278270E+08 5.56236211E+08  407.99186      41650.436    
 1.60113597E-06 5.34513740E-09 5.67497650E+08 5.67454728E+08  419.03973      42503.257    
 1.61186206E-06 5.38094472E-09 5.78734863E+08 5.78691086E+08  430.07220      43346.963    
 1.62265999E-06 5.41699191E-09 5.90739169E+08 5.90694492E+08  442.21998      44235.365    
 1.63353026E-06 5.45328058E-09 6.02417252E+08 6.02371708E+08  453.83612      45089.948    
 1.64447336E-06 5.48981235E-09 6.14606894E+08 6.14560438E+08  466.18605      45990.219    
 1.65548976E-06 5.52658885E-09 6.27088199E+08 6.27040766E+08  478.94376      46954.163    
 1.66657996E-06 5.56361172E-09 6.39482097E+08 6.39433697E+08  491.51976      47907.846    
 1.67774445E-06 5.60088261E-09 6.52699326E+08 6.52649907E+08  505.33161      48913.020    
 1.68898374E-06 5.63840317E-09 6.65670176E+08 6.65619772E+08  518.71493      49885.154    
 1.70029832E-06 5.67617509E-09 6.79043555E+08 6.78992147E+08  532.68028      50875.364    
 1.71168869E-06 5.71420004E-09 6.92927653E+08 6.92875217E+08  547.41070      51889.198    
 1.72315537E-06 5.75247973E-09 7.06621843E+08 7.06568375E+08  561.78617      52905.996    
 1.73469887E-06 5.79101585E-09 7.21124338E+08 7.21069731E+08  577.40929      54029.977    
 1.74631969E-06 5.82981012E-09 7.35555345E+08 7.35499613E+08  592.86781      55139.443    
 1.75801837E-06 5.86886429E-09 7.50226596E+08 7.50169734E+08  608.65827      56253.813    
 1.76979541E-06 5.90818007E-09 7.65670143E+08 7.65612106E+08  625.66442      57410.871    
 1.78165135E-06 5.94775924E-09 7.80800825E+08 7.80741653E+08  642.09682      58530.184    
 1.79358672E-06 5.98760354E-09 7.96712577E+08 7.96652226E+08  659.76706      59691.043    
 1.80560203E-06 6.02771477E-09 8.12766860E+08 8.12705291E+08  677.62029      60891.790    
 1.81769784E-06 6.06809470E-09 8.28860996E+08 8.28798161E+08  695.47253      62139.438    
 1.82987468E-06 6.10874514E-09 8.46037924E+08 8.45973747E+08  715.10374      63462.027    
 1.84213310E-06 6.14966790E-09 8.62755527E+08 8.62690064E+08  733.88735      64729.456    
 1.85447363E-06 6.19086481E-09 8.80212595E+08 8.80145803E+08  753.87098      66037.249    
 1.86689683E-06 6.23233769E-09 8.98071448E+08 8.98003317E+08  774.48737      67356.259    
 1.87940326E-06 6.27408840E-09 9.15813018E+08 9.15743570E+08  794.82304      68652.852    
 1.89199346E-06 6.31611880E-09 9.34740447E+08 9.34669553E+08  817.17173      70076.556    
 1.90466801E-06 6.35843077E-09 9.53299370E+08 9.53227015E+08  838.79856      71516.505    
 1.91742747E-06 6.40102618E-09 9.72450717E+08 9.72376867E+08  861.39619      72988.710    
 1.93027240E-06 6.44390694E-09 9.92315571E+08 9.92240191E+08  885.20052      74495.145    
 1.94320339E-06 6.48707497E-09 1.01191734E+09 1.01184047E+09  908.44589      75962.414    
 1.95622099E-06 6.53053217E-09 1.03268411E+09 1.03260568E+09  933.72543      77495.504    
 1.96932581E-06 6.57428050E-09 1.05333074E+09 1.05325078E+09  958.70575      79006.983    
 1.98251841E-06 6.61832191E-09 1.07433950E+09 1.07425792E+09  984.25669      80594.768    
 1.99579939E-06 6.66265834E-09 1.09643404E+09 1.09635072E+09  1011.7387      82311.890    
 2.00916934E-06 6.70729179E-09 1.11809064E+09 1.11800563E+09  1038.3100      83973.300    
 2.02262885E-06 6.75222424E-09 1.14087425E+09 1.14078748E+09  1066.9020      85700.927    
 2.03617854E-06 6.79745770E-09 1.16384182E+09 1.16375330E+09  1095.7522      87417.941    
 2.04981899E-06 6.84299417E-09 1.18688673E+09 1.18679649E+09  1124.6394      89120.806    
 2.06355082E-06 6.88883570E-09 1.21145926E+09 1.21136718E+09  1156.3636      90920.110    
 2.07737464E-06 6.93498432E-09 1.23538557E+09 1.23529165E+09  1186.7367      92742.026    
 2.09129106E-06 6.98144209E-09 1.26038041E+09 1.26028451E+09  1219.0721      94682.824    
 2.10530072E-06 7.02821109E-09 1.28592787E+09 1.28582997E+09  1252.3875      96643.438    
 2.11940422E-06 7.07529339E-09 1.31131873E+09 1.31121887E+09  1285.2702      98566.803    
 2.13360221E-06 7.12269110E-09 1.33841676E+09 1.33831485E+09  1321.4316      100591.94    
 2.14789530E-06 7.17040633E-09 1.36496472E+09 1.36486082E+09  1356.3790      102550.35    
 2.16228415E-06 7.21844121E-09 1.39238360E+09 1.39227764E+09  1392.9441      104565.22    
 2.17676939E-06 7.26679787E-09 1.42079850E+09 1.42069033E+09  1431.4113      106739.99    
 2.19135167E-06 7.31547848E-09 1.44884961E+09 1.44873922E+09  1468.9988      108915.55    
 2.20603163E-06 7.36448520E-09 1.47857923E+09 1.47846652E+09  1509.9025      111198.30    
 2.22080994E-06 7.41382021E-09 1.50811155E+09 1.50799656E+09  1550.2690      113432.61    
 2.23568724E-06 7.46348573E-09 1.53818788E+09 1.53807061E+09  1591.6129      115681.01    
 2.25066421E-06 7.51348396E-09 1.56978955E+09 1.56966991E+09  1636.0232      118008.62    
 2.26574151E-06 7.56381713E-09 1.60077879E+09 1.60065682E+09  1678.9885      120296.02    
 2.28091982E-06 7.61448748E-09 1.63339355E+09 1.63326903E+09  1725.2521      122800.19    
 2.29619980E-06 7.66549727E-09 1.66624310E+09 1.66611597E+09  1771.8722      125350.98    
 2.31158215E-06 7.71684879E-09 1.69923245E+09 1.69910275E+09  1818.6146      127880.15    
 2.32706754E-06 7.76854430E-09 1.73437576E+09 1.73424335E+09  1869.8802      130539.86    
 2.34265667E-06 7.82058613E-09 1.76861028E+09 1.76847526E+09  1918.9927      133095.89    
 2.35835023E-06 7.87297659E-09 1.80438788E+09 1.80425017E+09  1971.3133      135732.84    
 2.37414893E-06 7.92571802E-09 1.84092414E+09 1.84078368E+09  2025.1490      138437.68    
 2.39005346E-06 7.97881276E-09 1.87725262E+09 1.87710931E+09  2078.3194      141236.83    
 2.40606454E-06 8.03226319E-09 1.91603787E+09 1.91589148E+09  2136.8295      144253.75    
 2.42218287E-06 8.08607168E-09 1.95400399E+09 1.95385464E+09  2193.3009      147160.11    
 2.43840918E-06 8.14024064E-09 1.99324893E+09 1.99309655E+09  2252.4655      150129.53    
 2.45474420E-06 8.19477248E-09 2.03388260E+09 2.03372713E+09  2314.6262      153160.71    
 2.47118864E-06 8.24966963E-09 2.07401389E+09 2.07385540E+09  2375.4037      156120.70    
 2.48774324E-06 8.30493454E-09 2.11656247E+09 2.11640075E+09  2441.5871      159276.01    
 2.50440875E-06 8.36056967E-09 2.15879283E+09 2.15862777E+09  2506.8154      162552.55    
 2.52118589E-06 8.41657750E-09 2.20183844E+09 2.20166997E+09  2573.7126      165893.75    
 2.53807543E-06 8.47296053E-09 2.24702548E+09 2.24685348E+09  2645.4771      169356.76    
 2.55507811E-06 8.52972128E-09 2.29135680E+09 2.29118138E+09  2714.9500      172707.25    
 2.57219470E-06 8.58686227E-09 2.33803116E+09 2.33785218E+09  2789.8058      176189.61    
 2.58942595E-06 8.64438604E-09 2.38500059E+09 2.38481808E+09  2865.1393      179648.93    
 2.60677263E-06 8.70229518E-09 2.43221168E+09 2.43202558E+09  2940.7718      183163.06    
 2.62423551E-06 8.76059224E-09 2.48245827E+09 2.48226817E+09  3023.6143      187084.65    
 2.64181539E-06 8.81927985E-09 2.53142798E+09 2.53123399E+09  3103.0264      190878.36    
 2.65951303E-06 8.87836060E-09 2.58262503E+09 2.58242704E+09  3187.6826      194800.91    
 2.67732922E-06 8.93783714E-09 2.63486131E+09 2.63465929E+09  3274.6761      198746.93    
 2.69526477E-06 8.99771211E-09 2.68682332E+09 2.68661733E+09  3360.6492      202625.58    
 2.71332047E-06 9.05798819E-09 2.74231887E+09 2.74210871E+09  3455.3181      206705.12    
 2.73149713E-06 9.11866806E-09 2.79659739E+09 2.79638306E+09  3546.5682      210779.25    
 2.74979555E-06 9.17975443E-09 2.85275178E+09 2.85253297E+09  3642.2984      215166.00    
 2.76821656E-06 9.24125002E-09 2.91084066E+09 2.91061725E+09  3742.7444      219673.33    
 2.78676096E-06 9.30315757E-09 2.96823711E+09 2.96800920E+09  3841.0172      224065.13    
 2.80542960E-06 9.36547984E-09 3.02911282E+09 3.02888021E+09  3948.1015      228664.99    
 2.82422330E-06 9.42821962E-09 3.08948177E+09 3.08924456E+09  4053.5017      233164.53    
 2.84314290E-06 9.49137968E-09 3.15106913E+09 3.15082727E+09  4161.7435      237700.32    
 2.86218924E-06 9.55496287E-09 3.21566069E+09 3.21541383E+09  4277.7084      242581.73    
 2.88136318E-06 9.61897199E-09 3.27905818E+09 3.27880626E+09  4390.0403      247535.07    
 2.90066556E-06 9.68340992E-09 3.34583138E+09 3.34557415E+09  4511.1564      252717.84    
 2.92009725E-06 9.74827952E-09 3.41296850E+09 3.41270601E+09  4632.8855      257852.96    
 2.93965911E-06 9.81358368E-09 3.48051043E+09 3.48024271E+09  4755.2613      262956.86    
 2.95935202E-06 9.87932532E-09 3.55232662E+09 3.55205343E+09  4889.1274      268305.53    
 2.97917685E-06 9.94550737E-09 3.62235022E+09 3.62207172E+09  5017.5294      273474.14    
 2.99913449E-06 1.00121328E-08 3.69558717E+09 3.69530298E+09  5154.5026      279036.88    
 3.01922583E-06 1.00792045E-08 3.77024476E+09 3.76995459E+09  5295.0728      284882.90    
 3.03945176E-06 1.01467255E-08 3.84454334E+09 3.84424726E+09  5434.0826      290639.55    
 3.05981319E-06 1.02146989E-08 3.92392155E+09 3.92361924E+09  5587.2526      296716.88    
 3.08031101E-06 1.02831276E-08 4.00149487E+09 4.00118656E+09  5734.6970      302571.33    
 3.10094616E-06 1.03520148E-08 4.08181597E+09 4.08150152E+09  5889.5879      308559.69    
 3.12171953E-06 1.04213634E-08 4.16482869E+09 4.16450794E+09  6051.8956      314693.31    
 3.14263207E-06 1.04911766E-08 4.24688919E+09 4.24656201E+09  6210.7918      320964.35    
 3.16368471E-06 1.05614574E-08 4.33395499E+09 4.33362082E+09  6384.0492      327793.11    
 3.18487837E-06 1.06322091E-08 4.42022326E+09 4.41988223E+09  6554.3578      334473.16    
 3.20621402E-06 1.07034348E-08 4.50830809E+09 4.50796014E+09  6729.4923      341213.49    
 3.22769259E-06 1.07751376E-08 4.60060342E+09 4.60024833E+09  6916.8766      348179.20    
 3.24931505E-06 1.08473207E-08 4.69123388E+09 4.69087185E+09  7098.5036      354935.32    
 3.27108236E-06 1.09199874E-08 4.78672482E+09 4.78635552E+09  7294.4638      362006.07    
 3.29299549E-06 1.09931409E-08 4.88265367E+09 4.88227679E+09  7491.1571      369390.72    
 3.31505541E-06 1.10667844E-08 4.97924600E+09 4.97886136E+09  7689.1603      376956.26    
 3.33726312E-06 1.11409213E-08 5.08185296E+09 5.08146014E+09  7905.4703      384916.86    
 3.35961959E-06 1.12155548E-08 5.18194556E+09 5.18154488E+09  8113.0793      392566.69    
 3.38212584E-06 1.12906884E-08 5.28667040E+09 5.28626159E+09  8334.6954      400474.61    
 3.40478285E-06 1.13663252E-08 5.39333171E+09 5.39291473E+09  8561.8326      408416.48    
 3.42759164E-06 1.14424687E-08 5.49952745E+09 5.49910236E+09  8786.5920      416307.54    
 3.45055323E-06 1.15191223E-08 5.61302129E+09 5.61258716E+09  9034.4077      425090.34    
 3.47366865E-06 1.15962894E-08 5.72384443E+09 5.72340138E+09  9272.6461      433776.78    
 3.49693891E-06 1.16739735E-08 5.83868818E+09 5.83823597E+09  9523.2519      442680.28    
 3.52036506E-06 1.17521780E-08 5.95727234E+09 5.95681081E+09  9785.5131      451748.73    
 3.54394814E-06 1.18309064E-08 6.07454911E+09 6.07407846E+09  10042.424      460604.31    
 3.56768921E-06 1.19101621E-08 6.19902111E+09 6.19854091E+09  10322.739      469871.92    
 3.59158932E-06 1.19899488E-08 6.32224990E+09 6.32176023E+09  10597.921      479071.39    
 3.61564954E-06 1.20702701E-08 6.44818117E+09 6.44768144E+09  10881.280      488846.03    
 3.63987094E-06 1.21511293E-08 6.58000878E+09 6.57949839E+09  11184.060      499207.74    
 3.66425460E-06 1.22325303E-08 6.70951843E+09 6.70899771E+09  11477.721      509234.63    
 3.68880161E-06 1.23144766E-08 6.84602162E+09 6.84549014E+09  11794.766      519679.77    
 3.71351306E-06 1.23969718E-08 6.98303231E+09 6.98249018E+09  12112.580      530017.34    
 3.73839005E-06 1.24800197E-08 7.12111119E+09 7.12055845E+09  12432.939      540315.29    
 3.76343369E-06 1.25636239E-08 7.26764677E+09 7.26708271E+09  12782.458      551272.64    
 3.78864510E-06 1.26477882E-08 7.41065997E+09 7.41008440E+09  13118.125      562451.93    
 3.81402541E-06 1.27325163E-08 7.56034660E+09 7.55975891E+09  13476.678      574215.45    
 3.83957574E-06 1.28178120E-08 7.71266610E+09 7.71206623E+09  13843.683      586017.10    
 3.86529723E-06 1.29036791E-08 7.86438836E+09 7.86377653E+09  14207.077      597624.35    
 3.89119103E-06 1.29901214E-08 8.02658753E+09 8.02596305E+09  14608.009      609864.75    
 3.91725829E-06 1.30771428E-08 8.18484220E+09 8.18420555E+09  14992.940      621662.84    
 3.94350018E-06 1.31647472E-08 8.34897272E+09 8.34832334E+09  15398.395      633979.00    
 3.96991787E-06 1.32529384E-08 8.51829499E+09 8.51763187E+09  15822.152      647306.82    
 3.99651253E-06 1.33417205E-08 8.68582718E+09 8.68515049E+09  16237.525      660449.16    
 4.02328535E-06 1.34310972E-08 8.86369579E+09 8.86300485E+09  16691.036      674248.63    
 4.05023752E-06 1.35210728E-08 9.03964165E+09 9.03893682E+09  17135.657      687699.59    
 4.07737024E-06 1.36116511E-08 9.21959725E+09 9.21887836E+09  17594.103      701294.73    
 4.10468473E-06 1.37028361E-08 9.40780084E+09 9.40706745E+09  18083.328      715305.72    
 4.13218219E-06 1.37946320E-08 9.59278224E+09 9.59203440E+09  18558.115      729279.48    
