 OPTXAGNF AGN Spectrum Model Parameters: NLS, Astar 0.0                          
 M_BH:  2.0000E+08 M_0            L  :  0.2000     L/Ledd 
 D   :  1.5000E+18 cm             z  :   0.000     redshift 
 Rcor:   40.00     Rg             Ro :   4.000     Rg 
 C_T :  0.2000     keV            Tau:   15.00     Optical Depth 
 gam :   2.200     (-slope)       fpl:  0.2000     Fraction 
 E              0.5DeltaE      E.FE total     E.FE Disk      E.FE Compton   E.FE NonThermal
 (keV)          (keV)          E.E/cm2/s/E    E.E/cm2/s/E    E.E/cm2/s/E    E.E/cm2/s/E    
 1.00334952E-06 3.34952256E-09 1.68368375E+08 1.68360136E+08  17.787376      8221.3221    
 1.01007101E-06 3.37196116E-09 1.71702330E+08 1.71693931E+08  18.254682      8381.4050    
 1.01683752E-06 3.39455008E-09 1.75176549E+08 1.75167980E+08  18.750168      8551.0974    
 1.02364936E-06 3.41729032E-09 1.78746561E+08 1.78737809E+08  19.264710      8732.4365    
 1.03050683E-06 3.44018290E-09 1.82285341E+08 1.82276411E+08  19.770637      8910.9193    
 1.03741024E-06 3.46322884E-09 1.86053362E+08 1.86044243E+08  20.324826      9098.8225    
 1.04435990E-06 3.48642917E-09 1.89763790E+08 1.89754489E+08  20.864655      9281.1073    
 1.05135611E-06 3.50978492E-09 1.93576140E+08 1.93566652E+08  21.424950      9466.1536    
 1.05839920E-06 3.53329712E-09 1.97548373E+08 1.97538695E+08  22.019050      9656.6544    
 1.06548946E-06 3.55696684E-09 2.01459343E+08 2.01449471E+08  22.597380      9848.6639    
 1.07262722E-06 3.58079512E-09 2.05594618E+08 2.05584536E+08  23.224244      10059.119    
 1.07981280E-06 3.60478303E-09 2.09723765E+08 2.09713474E+08  23.847772      10267.183    
 1.08704652E-06 3.62893164E-09 2.13906944E+08 2.13896444E+08  24.481287      10475.387    
 1.09432869E-06 3.65324201E-09 2.18326461E+08 2.18315743E+08  25.167168      10692.411    
 1.10165965E-06 3.67771524E-09 2.22648728E+08 2.22637800E+08  25.828264      10901.892    
 1.10903971E-06 3.70235243E-09 2.27186808E+08 2.27175662E+08  26.537263      11119.469    
 1.11646922E-06 3.72715465E-09 2.31781619E+08 2.31770245E+08  27.257379      11346.549    
 1.12394850E-06 3.75212303E-09 2.36371456E+08 2.36359848E+08  27.973609      11579.890    
 1.13147788E-06 3.77725867E-09 2.41288321E+08 2.41276464E+08  28.765358      11827.976    
 1.13905770E-06 3.80256270E-09 2.46065105E+08 2.46053011E+08  29.521063      12065.177    
 1.14668830E-06 3.82803623E-09 2.51044992E+08 2.51032652E+08  30.322882      12309.567    
 1.15437002E-06 3.85368042E-09 2.56157654E+08 2.56145066E+08  31.154446      12556.911    
 1.16210319E-06 3.87949640E-09 2.61227792E+08 2.61214960E+08  31.972606      12800.071    
 1.16988818E-06 3.90548532E-09 2.66628602E+08 2.66615501E+08  32.869404      13068.321    
 1.17772531E-06 3.93164835E-09 2.71942278E+08 2.71928906E+08  33.741815      13338.885    
 1.18561494E-06 3.95798663E-09 2.77406702E+08 2.77393053E+08  34.648515      13613.948    
 1.19355743E-06 3.98450137E-09 2.83095231E+08 2.83081299E+08  35.608661      13896.464    
 1.20155313E-06 4.01119372E-09 2.88698449E+08 2.88684241E+08  36.543908      14171.067    
 1.20960239E-06 4.03806489E-09 2.94625481E+08 2.94610986E+08  37.558312      14457.602    
 1.21770557E-06 4.06511607E-09 3.00538581E+08 3.00523801E+08  38.565995      14741.389    
 1.22586303E-06 4.09234846E-09 3.06534362E+08 3.06519282E+08  39.591190      15040.569    
 1.23407514E-06 4.11976329E-09 3.12863221E+08 3.12847817E+08  40.699672      15363.366    
 1.24234227E-06 4.14736177E-09 3.19055507E+08 3.19039791E+08  41.768761      15674.306    
 1.25066478E-06 4.17514513E-09 3.25559719E+08 3.25543679E+08  42.916086      15997.143    
 1.25904304E-06 4.20311462E-09 3.32139455E+08 3.32123091E+08  44.079870      16319.103    
 1.26747742E-06 4.23127147E-09 3.38717905E+08 3.38701222E+08  45.238925      16637.272    
 1.27596831E-06 4.25961695E-09 3.45758699E+08 3.45741677E+08  46.518513      16975.457    
 1.28451608E-06 4.28815232E-09 3.52601904E+08 3.52584537E+08  47.740597      17319.421    
 1.29312111E-06 4.31687884E-09 3.59739132E+08 3.59721400E+08  49.038132      17682.555    
 1.30178379E-06 4.34579781E-09 3.67060183E+08 3.67042083E+08  50.382036      18050.230    
 1.31050450E-06 4.37491051E-09 3.74323501E+08 3.74305039E+08  51.705117      18410.203    
 1.31928362E-06 4.40421823E-09 3.82063659E+08 3.82044817E+08  53.156320      18788.681    
 1.32812156E-06 4.43372228E-09 3.89672363E+08 3.89653152E+08  54.566205      19155.866    
 1.33701871E-06 4.46342399E-09 3.97503772E+08 3.97484183E+08  56.033468      19533.684    
 1.34597546E-06 4.49332467E-09 4.05649123E+08 4.05629120E+08  57.585185      19944.817    
 1.35499221E-06 4.52342565E-09 4.13675822E+08 4.13655410E+08  59.097610      20352.213    
 1.36406936E-06 4.55372829E-09 4.22169894E+08 4.22149054E+08  60.739133      20778.776    
 1.37320733E-06 4.58423392E-09 4.30636636E+08 4.30615375E+08  62.367637      21197.739    
 1.38240650E-06 4.61494391E-09 4.39229314E+08 4.39207632E+08  64.026662      21617.856    
 1.39166731E-06 4.64585962E-09 4.48291164E+08 4.48269044E+08  65.818118      22054.301    
 1.40099015E-06 4.67698245E-09 4.57161347E+08 4.57138795E+08  67.546981      22484.738    
 1.41037545E-06 4.70831376E-09 4.66482273E+08 4.66459248E+08  69.403605      22955.926    
 1.41982361E-06 4.73985497E-09 4.75903181E+08 4.75879675E+08  71.284394      23434.288    
 1.42933508E-06 4.77160747E-09 4.85330624E+08 4.85306644E+08  73.160049      23906.815    
 1.43891026E-06 4.80357269E-09 4.95411483E+08 4.95387003E+08  75.228046      24405.572    
 1.44854958E-06 4.83575204E-09 5.05213700E+08 5.05188739E+08  77.204320      24883.977    
 1.45825348E-06 4.86814696E-09 5.15441403E+08 5.15415947E+08  79.304026      25376.762    
 1.46802239E-06 4.90075889E-09 5.25923270E+08 5.25897301E+08  81.475919      25887.547    
 1.47785673E-06 4.93358930E-09 5.36327037E+08 5.36300539E+08  83.615515      26414.298    
 1.48775696E-06 4.96663964E-09 5.47418287E+08 5.47391223E+08  85.963847      26978.044    
 1.49772351E-06 4.99991138E-09 5.58311799E+08 5.58284188E+08  88.242313      27523.064    
 1.50775683E-06 5.03340601E-09 5.69533934E+08 5.69505766E+08  90.616691      28077.922    
 1.51785736E-06 5.06712502E-09 5.81195490E+08 5.81166751E+08  93.124444      28646.302    
 1.52802556E-06 5.10106992E-09 5.92692188E+08 5.92662892E+08  95.570230      29200.572    
 1.53826187E-06 5.13524222E-09 6.04863289E+08 6.04833395E+08  98.226547      29795.187    
 1.54856676E-06 5.16964344E-09 6.16984744E+08 6.16954232E+08  100.85833      30411.762    
 1.55894067E-06 5.20427512E-09 6.29297330E+08 6.29266191E+08  103.54304      31036.032    
 1.56938409E-06 5.23913879E-09 6.42270499E+08 6.42238707E+08  106.43825      31685.449    
 1.57989746E-06 5.27423602E-09 6.54974828E+08 6.54942406E+08  109.23404      32312.588    
 1.59048127E-06 5.30956836E-09 6.68330231E+08 6.68297155E+08  112.23845      32963.372    
 1.60113597E-06 5.34513740E-09 6.81817069E+08 6.81783341E+08  115.27796      33612.935    
 1.61186206E-06 5.38094472E-09 6.95325279E+08 6.95290885E+08  118.31324      34275.298    
 1.62265999E-06 5.41699191E-09 7.09756623E+08 7.09721489E+08  121.65540      35012.484    
 1.63353026E-06 5.45328058E-09 7.23795252E+08 7.23759404E+08  124.85128      35722.612    
 1.64447336E-06 5.48981235E-09 7.38449427E+08 7.38412844E+08  128.24906      36455.594    
 1.65548976E-06 5.52658885E-09 7.53454473E+08 7.53417146E+08  131.75904      37195.570    
 1.66657996E-06 5.56361172E-09 7.68354186E+08 7.68316129E+08  135.21903      37921.599    
 1.67774445E-06 5.60088261E-09 7.84244767E+08 7.84205942E+08  139.01906      38685.809    
 1.68898374E-06 5.63840317E-09 7.99838715E+08 7.99799116E+08  142.70118      39456.423    
 1.70029832E-06 5.67617509E-09 8.15917082E+08 8.15876658E+08  146.54346      40277.411    
 1.71168869E-06 5.71420004E-09 8.32610099E+08 8.32568826E+08  150.59624      41122.737    
 1.72315537E-06 5.75247973E-09 8.49074343E+08 8.49032244E+08  154.55137      41944.851    
 1.73469887E-06 5.79101585E-09 8.66511396E+08 8.66468433E+08  158.84979      42804.497    
 1.74631969E-06 5.82981012E-09 8.83862258E+08 8.83818447E+08  163.10293      43648.265    
 1.75801837E-06 5.86886429E-09 9.01502181E+08 9.01457516E+08  167.44740      44497.178    
 1.76979541E-06 5.90818007E-09 9.20071744E+08 9.20026152E+08  172.12639      45419.896    
 1.78165135E-06 5.94775924E-09 9.38264544E+08 9.38218017E+08  176.64750      46349.733    
 1.79358672E-06 5.98760354E-09 9.57397536E+08 9.57350036E+08  181.50922      47318.246    
 1.80560203E-06 6.02771477E-09 9.76701928E+08 9.76653460E+08  186.42130      48281.314    
 1.81769784E-06 6.06809470E-09 9.96054054E+08 9.96004628E+08  191.33310      49235.124    
 1.82987468E-06 6.10874514E-09 1.01670971E+09 1.01665927E+09  196.73442      50238.105    
 1.84213310E-06 6.14966790E-09 1.03681216E+09 1.03676075E+09  201.90251      51206.622    
 1.85447363E-06 6.19086481E-09 1.05780484E+09 1.05775238E+09  207.40080      52254.940    
 1.86689683E-06 6.23233769E-09 1.07928120E+09 1.07922763E+09  213.07322      53354.490    
 1.87940326E-06 6.27408840E-09 1.10061612E+09 1.10056147E+09  218.66839      54432.196    
 1.89199346E-06 6.31611880E-09 1.12337877E+09 1.12332298E+09  224.81749      55568.000    
 1.90466801E-06 6.35843077E-09 1.14569741E+09 1.14564051E+09  230.76796      56665.992    
 1.91742747E-06 6.40102618E-09 1.16872923E+09 1.16867121E+09  236.98556      57785.224    
 1.93027240E-06 6.44390694E-09 1.19262013E+09 1.19256095E+09  243.53523      58937.618    
 1.94320339E-06 6.48707497E-09 1.21619404E+09 1.21613366E+09  249.93108      60121.982    
 1.95622099E-06 6.53053217E-09 1.24117080E+09 1.24110915E+09  256.88669      61400.466    
 1.96932581E-06 6.57428050E-09 1.26600268E+09 1.26593976E+09  263.75996      62653.454    
 1.98251841E-06 6.61832191E-09 1.29127035E+09 1.29120617E+09  270.79026      63913.164    
 1.99579939E-06 6.66265834E-09 1.31784548E+09 1.31777999E+09  278.35195      65219.529    
 2.00916934E-06 6.70729179E-09 1.34389289E+09 1.34382612E+09  285.66305      66484.409    
 2.02262885E-06 6.75222424E-09 1.37129752E+09 1.37122941E+09  293.53020      67809.967    
 2.03617854E-06 6.79745770E-09 1.39892358E+09 1.39885407E+09  301.46840      69206.552    
 2.04981899E-06 6.84299417E-09 1.42664256E+09 1.42657162E+09  309.41680      70621.760    
 2.06355082E-06 6.88883570E-09 1.45620144E+09 1.45612901E+09  318.14589      72114.876    
 2.07737464E-06 6.93498432E-09 1.48498149E+09 1.48490762E+09  326.50319      73547.152    
 2.09129106E-06 6.98144209E-09 1.51504838E+09 1.51497302E+09  335.40047      75025.249    
 2.10530072E-06 7.02821109E-09 1.54578074E+09 1.54570388E+09  344.56747      76514.723    
 2.11940422E-06 7.07529339E-09 1.57632413E+09 1.57624578E+09  353.61539      77998.845    
 2.13360221E-06 7.12269110E-09 1.60892409E+09 1.60884407E+09  363.56558      79653.111    
 2.14789530E-06 7.17040633E-09 1.64086105E+09 1.64077940E+09  373.18170      81282.711    
 2.16228415E-06 7.21844121E-09 1.67384696E+09 1.67376363E+09  383.24299      82946.824    
 2.17676939E-06 7.26679787E-09 1.70803251E+09 1.70794747E+09  393.82772      84647.791    
 2.19135167E-06 7.31547848E-09 1.74177930E+09 1.74169259E+09  404.17039      86305.916    
 2.20603163E-06 7.36448520E-09 1.77754827E+09 1.77745981E+09  415.42568      88038.353    
 2.22080994E-06 7.41382021E-09 1.81307919E+09 1.81298899E+09  426.53314      89774.835    
 2.23568724E-06 7.46348573E-09 1.84926536E+09 1.84917331E+09  437.90957      91612.980    
 2.25066421E-06 7.51348396E-09 1.88728936E+09 1.88719535E+09  450.12987      93556.761    
 2.26574151E-06 7.56381713E-09 1.92457487E+09 1.92447897E+09  461.95254      95434.315    
 2.28091982E-06 7.61448748E-09 1.96381880E+09 1.96372094E+09  474.68290      97386.804    
 2.29619980E-06 7.66549727E-09 2.00334524E+09 2.00324543E+09  487.51136      99325.904    
 2.31158215E-06 7.71684879E-09 2.04303971E+09 2.04293796E+09  500.37352      101251.03    
 2.32706754E-06 7.76854430E-09 2.08532991E+09 2.08522607E+09  514.48049      103322.75    
 2.34265667E-06 7.82058613E-09 2.12652442E+09 2.12641847E+09  527.99493      105425.30    
 2.35835023E-06 7.87297659E-09 2.16957841E+09 2.16947025E+09  542.39225      107624.16    
 2.37414893E-06 7.92571802E-09 2.21354639E+09 2.21343600E+09  557.20657      109838.18    
 2.39005346E-06 7.97881276E-09 2.25726321E+09 2.25715063E+09  571.83778      112011.80    
 2.40606454E-06 8.03226319E-09 2.30394101E+09 2.30382612E+09  587.93857      114300.14    
 2.42218287E-06 8.08607168E-09 2.34963088E+09 2.34951376E+09  603.47829      116515.49    
 2.43840918E-06 8.14024064E-09 2.39686191E+09 2.39674245E+09  619.75925      118837.71    
 2.45474420E-06 8.19477248E-09 2.44576681E+09 2.44564483E+09  636.86477      121345.31    
 2.47118864E-06 8.24966963E-09 2.49406545E+09 2.49394099E+09  653.58963      123806.57    
 2.48774324E-06 8.30493454E-09 2.54527792E+09 2.54515086E+09  671.80231      126386.31    
 2.50440875E-06 8.36056967E-09 2.59610594E+09 2.59597634E+09  689.75213      128909.88    
 2.52118589E-06 8.41657750E-09 2.64791624E+09 2.64778408E+09  708.16129      131451.63    
 2.53807543E-06 8.47296053E-09 2.70230809E+09 2.70217328E+09  727.91006      134084.72    
 2.55507811E-06 8.52972128E-09 2.75566754E+09 2.75553007E+09  747.02814      136725.00    
 2.57219470E-06 8.58686227E-09 2.81185188E+09 2.81171150E+09  767.62773      139612.63    
 2.58942595E-06 8.64438604E-09 2.86839146E+09 2.86824818E+09  788.35884      142493.43    
 2.60677263E-06 8.70229518E-09 2.92522162E+09 2.92507546E+09  809.17224      145352.95    
 2.62423551E-06 8.76059224E-09 2.98571171E+09 2.98556252E+09  831.97007      148355.87    
 2.64181539E-06 8.81927985E-09 3.04466107E+09 3.04450897E+09  853.82378      151244.59    
 2.65951303E-06 8.87836060E-09 3.10629604E+09 3.10614094E+09  877.12086      154228.72    
 2.67732922E-06 8.93783714E-09 3.16918390E+09 3.16902564E+09  901.06126      157361.75    
 2.69526477E-06 8.99771211E-09 3.23174021E+09 3.23157871E+09  924.72080      160578.15    
 2.71332047E-06 9.05798819E-09 3.29855810E+09 3.29839317E+09  950.77379      163987.43    
 2.73149713E-06 9.11866806E-09 3.36390695E+09 3.36373870E+09  975.88583      167270.48    
 2.74979555E-06 9.17975443E-09 3.43151751E+09 3.43134588E+09  1002.2310      170627.17    
 2.76821656E-06 9.24125002E-09 3.50146097E+09 3.50128589E+09  1029.8742      174050.16    
 2.78676096E-06 9.30315757E-09 3.57056811E+09 3.57038966E+09  1056.9192      177399.35    
 2.80542960E-06 9.36547984E-09 3.64387217E+09 3.64369001E+09  1086.3895      181071.97    
 2.82422330E-06 9.42821962E-09 3.71656406E+09 3.71637813E+09  1115.3964      184817.30    
 2.84314290E-06 9.49137968E-09 3.79072497E+09 3.79053523E+09  1145.1854      188594.78    
 2.86218924E-06 9.55496287E-09 3.86850968E+09 3.86831599E+09  1177.1003      192505.12    
 2.88136318E-06 9.61897199E-09 3.94485222E+09 3.94465472E+09  1208.0152      196291.88    
 2.90066556E-06 9.68340992E-09 4.02526715E+09 4.02506569E+09  1241.3479      200227.77    
 2.92009725E-06 9.74827952E-09 4.10612028E+09 4.10591485E+09  1274.8495      204154.68    
 2.93965911E-06 9.81358368E-09 4.18746089E+09 4.18725133E+09  1308.5291      208250.71    
 2.95935202E-06 9.87932532E-09 4.27395910E+09 4.27374504E+09  1345.3715      212714.12    
 2.97917685E-06 9.94550737E-09 4.35829259E+09 4.35807421E+09  1380.7099      217001.95    
 2.99913449E-06 1.00121328E-08 4.44650296E+09 4.44628011E+09  1418.4076      221435.93    
 3.01922583E-06 1.00792045E-08 4.53642661E+09 4.53619926E+09  1457.0955      225892.58    
 3.03945176E-06 1.01467255E-08 4.62591550E+09 4.62568373E+09  1495.3540      230276.39    
 3.05981319E-06 1.02146989E-08 4.72153491E+09 4.72129845E+09  1537.5103      234926.17    
 3.08031101E-06 1.02831276E-08 4.81497450E+09 4.81473325E+09  1578.0905      239669.09    
 3.10094616E-06 1.03520148E-08 4.91172990E+09 4.91148362E+09  1620.7206      244652.63    
 3.12171953E-06 1.04213634E-08 5.01173351E+09 5.01148210E+09  1665.3924      249742.84    
 3.14263207E-06 1.04911766E-08 5.11058558E+09 5.11032917E+09  1709.1251      254706.78    
 3.16368471E-06 1.05614574E-08 5.21547921E+09 5.21521755E+09  1756.8111      259905.57    
 3.18487837E-06 1.06322091E-08 5.31940840E+09 5.31914161E+09  1803.6855      264988.42    
 3.20621402E-06 1.07034348E-08 5.42552940E+09 5.42525737E+09  1851.8883      270172.22    
 3.22769259E-06 1.07751376E-08 5.53673363E+09 5.53645588E+09  1903.4634      275844.55    
 3.24931505E-06 1.08473207E-08 5.64592573E+09 5.64564231E+09  1953.4536      281462.16    
 3.27108236E-06 1.09199874E-08 5.76098587E+09 5.76069654E+09  2007.3896      287320.54    
 3.29299549E-06 1.09931409E-08 5.87657278E+09 5.87627760E+09  2061.5274      293120.95    
 3.31505541E-06 1.10667844E-08 5.99295876E+09 5.99265775E+09  2116.0259      298892.10    
 3.33726312E-06 1.11409213E-08 6.11660763E+09 6.11630052E+09  2175.5641      304931.91    
 3.35961959E-06 1.12155548E-08 6.23721769E+09 6.23690460E+09  2232.7071      310858.31    
 3.38212584E-06 1.12906884E-08 6.36342146E+09 6.36310186E+09  2293.7062      317310.92    
 3.40478285E-06 1.13663252E-08 6.49196280E+09 6.49163651E+09  2356.2253      323934.65    
 3.42759164E-06 1.14424687E-08 6.61993931E+09 6.61960645E+09  2418.0898      330441.68    
 3.45055323E-06 1.15191223E-08 6.75673030E+09 6.75639050E+09  2486.3018      337310.18    
 3.47366865E-06 1.15962894E-08 6.89029223E+09 6.88994575E+09  2551.8773      343924.54    
 3.49693891E-06 1.16739735E-08 7.02870954E+09 7.02835622E+09  2620.8575      350694.67    
 3.52036506E-06 1.17521780E-08 7.17164443E+09 7.17128399E+09  2693.0467      357743.54    
 3.54394814E-06 1.18309064E-08 7.31299736E+09 7.31262960E+09  2763.7630      364996.27    
 3.56768921E-06 1.19101621E-08 7.46304295E+09 7.46266737E+09  2840.9226      372738.42    
 3.59158932E-06 1.19899488E-08 7.61158360E+09 7.61120039E+09  2916.6692      380285.02    
 3.61564954E-06 1.20702701E-08 7.76338687E+09 7.76299597E+09  2994.6671      387906.41    
 3.63987094E-06 1.21511293E-08 7.92231377E+09 7.92191492E+09  3078.0121      395773.32    
 3.66425460E-06 1.22325303E-08 8.07843627E+09 8.07802970E+09  3158.8465      403416.02    
 3.68880161E-06 1.23144766E-08 8.24300942E+09 8.24259462E+09  3246.1191      411555.56    
 3.71351306E-06 1.23969718E-08 8.40819384E+09 8.40777043E+09  3333.6035      420082.93    
 3.73839005E-06 1.24800197E-08 8.57466637E+09 8.57423429E+09  3421.7885      428655.82    
 3.76343369E-06 1.25636239E-08 8.75135946E+09 8.75091830E+09  3518.0022      437645.74    
 3.78864510E-06 1.26477882E-08 8.92379017E+09 8.92334027E+09  3610.4022      446293.34    
 3.81402541E-06 1.27325163E-08 9.10428580E+09 9.10382685E+09  3709.1037      455233.53    
 3.83957574E-06 1.28178120E-08 9.28796185E+09 9.28749382E+09  3810.1321      464217.84    
 3.86529723E-06 1.29036791E-08 9.47091229E+09 9.47043507E+09  3910.1666      473306.30    
 3.89119103E-06 1.29901214E-08 9.66652932E+09 9.66604184E+09  4020.5367      483459.53    
 3.91725829E-06 1.30771428E-08 9.85737278E+09 9.85687538E+09  4126.5013      493274.32    
 3.94350018E-06 1.31647472E-08 1.00553182E+10 1.00548106E+10  4238.1172      503341.53    
 3.96991787E-06 1.32529384E-08 1.02595384E+10 1.02590204E+10  4354.7723      513584.76    
 3.99651253E-06 1.33417205E-08 1.04615892E+10 1.04610611E+10  4469.1193      523595.73    
 4.02328535E-06 1.34310972E-08 1.06761390E+10 1.06756003E+10  4593.9674      534082.29    
 4.05023752E-06 1.35210728E-08 1.08883594E+10 1.08878100E+10  4716.3681      544715.92    
 4.07737024E-06 1.36116511E-08 1.11054265E+10 1.11048657E+10  4842.5755      555986.91    
 4.10468473E-06 1.37028361E-08 1.13324683E+10 1.13318956E+10  4977.2582      567690.21    
 4.13218219E-06 1.37946320E-08 1.15556065E+10 1.15550224E+10  5107.9654      579025.81    
