 OPTXAGNF AGN Spectrum Model Parameters: NLS, Astar 0.0                          
 M_BH:  2.0000E+08 M_0            L  :  5.0000E-02 L/Ledd 
 D   :  1.5000E+18 cm             z  :   0.000     redshift 
 Rcor:   40.00     Rg             Ro :   4.000     Rg 
 C_T :  0.2000     keV            Tau:   15.00     Optical Depth 
 gam :   2.200     (-slope)       fpl:  0.2000     Fraction 
 E              0.5DeltaE      E.FE total     E.FE Disk      E.FE Compton   E.FE NonThermal
 (keV)          (keV)          E.E/cm2/s/E    E.E/cm2/s/E    E.E/cm2/s/E    E.E/cm2/s/E    
 1.00334952E-06 3.34952256E-09 1.18795688E+08 1.18786932E+08  30.277102      8725.4206    
 1.01007101E-06 3.37196116E-09 1.21146291E+08 1.21137359E+08  31.072504      8900.6864    
 1.01683752E-06 3.39455008E-09 1.23595654E+08 1.23586541E+08  31.915868      9081.2012    
 1.02364936E-06 3.41729032E-09 1.26112463E+08 1.26103167E+08  32.791665      9264.0596    
 1.03050683E-06 3.44018290E-09 1.28607317E+08 1.28597840E+08  33.652799      9443.3117    
 1.03741024E-06 3.46322884E-09 1.31263554E+08 1.31253883E+08  34.596077      9635.9206    
 1.04435990E-06 3.48642917E-09 1.33879292E+08 1.33869422E+08  35.514913      9833.8101    
 1.05135611E-06 3.50978492E-09 1.36566797E+08 1.36556723E+08  36.468582      10036.977    
 1.05839920E-06 3.53329712E-09 1.39366855E+08 1.39356572E+08  37.479787      10245.856    
 1.06548946E-06 3.55696684E-09 1.42123821E+08 1.42113334E+08  38.464153      10448.760    
 1.07262722E-06 3.58079512E-09 1.45038668E+08 1.45027969E+08  39.531120      10660.430    
 1.07981280E-06 3.60478303E-09 1.47949231E+08 1.47938321E+08  40.592412      10869.286    
 1.08704652E-06 3.62893164E-09 1.50897857E+08 1.50886732E+08  41.670701      11083.851    
 1.09432869E-06 3.65324201E-09 1.54012835E+08 1.54001471E+08  42.838115      11320.582    
 1.10165965E-06 3.67771524E-09 1.57059415E+08 1.57047821E+08  43.963345      11550.337    
 1.10903971E-06 3.70235243E-09 1.60257887E+08 1.60246053E+08  45.170107      11788.819    
 1.11646922E-06 3.72715465E-09 1.63496300E+08 1.63484227E+08  46.395788      12026.850    
 1.12394850E-06 3.75212303E-09 1.66731249E+08 1.66718939E+08  47.614855      12261.849    
 1.13147788E-06 3.77725867E-09 1.70196316E+08 1.70183757E+08  48.962453      12509.913    
 1.13905770E-06 3.80256270E-09 1.73562877E+08 1.73550070E+08  50.248705      12756.717    
 1.14668830E-06 3.82803623E-09 1.77072380E+08 1.77059305E+08  51.613442      13023.639    
 1.15437002E-06 3.85368042E-09 1.80675329E+08 1.80661980E+08  53.028803      13295.493    
 1.16210319E-06 3.87949640E-09 1.84248407E+08 1.84234791E+08  54.421349      13561.479    
 1.16988818E-06 3.90548532E-09 1.88054127E+08 1.88040230E+08  55.947735      13841.102    
 1.17772531E-06 3.93164835E-09 1.91798590E+08 1.91784420E+08  57.432615      14112.549    
 1.18561494E-06 3.95798663E-09 1.95649137E+08 1.95634690E+08  58.975853      14388.293    
 1.19355743E-06 3.98450137E-09 1.99657368E+08 1.99642624E+08  60.610053      14683.816    
 1.20155313E-06 4.01119372E-09 2.03605658E+08 2.03590611E+08  62.201875      14984.399    
 1.20960239E-06 4.03806489E-09 2.07781744E+08 2.07766381E+08  63.928419      15299.536    
 1.21770557E-06 4.06511607E-09 2.11948076E+08 2.11932402E+08  65.643522      15609.284    
 1.22586303E-06 4.09234846E-09 2.16172602E+08 2.16156615E+08  67.388429      15919.598    
 1.23407514E-06 4.11976329E-09 2.20631402E+08 2.20615090E+08  69.275085      16242.325    
 1.24234227E-06 4.14736177E-09 2.24994218E+08 2.24977592E+08  71.094696      16555.355    
 1.25066478E-06 4.17514513E-09 2.29576450E+08 2.29559482E+08  73.047458      16894.909    
 1.25904304E-06 4.20311462E-09 2.34211854E+08 2.34194531E+08  75.028233      17248.093    
 1.26747742E-06 4.23127147E-09 2.38846420E+08 2.38828746E+08  77.000958      17597.091    
 1.27596831E-06 4.25961695E-09 2.43806118E+08 2.43788073E+08  79.178820      17965.931    
 1.28451608E-06 4.28815232E-09 2.48626940E+08 2.48608539E+08  81.258814      18319.428    
 1.29312111E-06 4.31687884E-09 2.53654538E+08 2.53635771E+08  83.467217      18683.468    
 1.30178379E-06 4.34579781E-09 2.58811431E+08 2.58792292E+08  85.754537      19053.850    
 1.31050450E-06 4.37491051E-09 2.63927829E+08 2.63908306E+08  88.006417      19435.030    
 1.31928362E-06 4.40421823E-09 2.69379512E+08 2.69359570E+08  90.476348      19850.735    
 1.32812156E-06 4.43372228E-09 2.74738856E+08 2.74718509E+08  92.875957      20253.664    
 1.33701871E-06 4.46342399E-09 2.80254820E+08 2.80234062E+08  95.373218      20663.530    
 1.34597546E-06 4.49332467E-09 2.85991501E+08 2.85970319E+08  98.014210      21083.816    
 1.35499221E-06 4.52342565E-09 2.91644862E+08 2.91623268E+08  100.58833      21493.053    
 1.36406936E-06 4.55372829E-09 2.97626786E+08 2.97604759E+08  103.38216      21923.414    
 1.37320733E-06 4.58423392E-09 3.03589602E+08 3.03567125E+08  106.15383      22370.729    
 1.38240650E-06 4.61494391E-09 3.09641027E+08 3.09618087E+08  108.97744      22831.095    
 1.39166731E-06 4.64585962E-09 3.16022237E+08 3.15998814E+08  112.02643      23311.350    
 1.40099015E-06 4.67698245E-09 3.22268842E+08 3.22244952E+08  114.96890      23774.745    
 1.41037545E-06 4.70831376E-09 3.28832252E+08 3.28807878E+08  118.12880      24255.545    
 1.41982361E-06 4.73985497E-09 3.35465993E+08 3.35441136E+08  121.32982      24734.786    
 1.42933508E-06 4.77160747E-09 3.42104437E+08 3.42079098E+08  124.52210      25214.137    
 1.43891026E-06 4.80357269E-09 3.49202081E+08 3.49176204E+08  128.04172      25748.955    
 1.44854958E-06 4.83575204E-09 3.56104071E+08 3.56077666E+08  131.40524      26273.627    
 1.45825348E-06 4.86814696E-09 3.63305090E+08 3.63278140E+08  134.97882      26815.110    
 1.46802239E-06 4.90075889E-09 3.70684745E+08 3.70657244E+08  138.67525      27362.266    
 1.47785673E-06 4.93358930E-09 3.78009638E+08 3.77981597E+08  142.31671      27898.731    
 1.48775696E-06 4.96663964E-09 3.85817538E+08 3.85788930E+08  146.31340      28462.129    
 1.49772351E-06 4.99991138E-09 3.93486668E+08 3.93457499E+08  150.19120      29018.885    
 1.50775683E-06 5.03340601E-09 4.01386772E+08 4.01357002E+08  154.23222      29615.101    
 1.51785736E-06 5.06712502E-09 4.09595620E+08 4.09565222E+08  158.50021      30240.212    
 1.52802556E-06 5.10106992E-09 4.17688817E+08 4.17657807E+08  162.66275      30847.670    
 1.53826187E-06 5.13524222E-09 4.26255744E+08 4.26224094E+08  167.18357      31482.829    
 1.54856676E-06 5.16964344E-09 4.34787908E+08 4.34755630E+08  171.66264      32106.640    
 1.55894067E-06 5.20427512E-09 4.43454430E+08 4.43421521E+08  176.23178      32732.804    
 1.56938409E-06 5.23913879E-09 4.52584931E+08 4.52551353E+08  181.15914      33396.916    
 1.57989746E-06 5.27423602E-09 4.61526851E+08 4.61492590E+08  185.91731      34075.040    
 1.59048127E-06 5.30956836E-09 4.70926056E+08 4.70891074E+08  191.03050      34790.575    
 1.60113597E-06 5.34513740E-09 4.80417675E+08 4.80381976E+08  196.20343      35502.649    
 1.61186206E-06 5.38094472E-09 4.89924454E+08 4.89888046E+08  201.36916      36207.123    
 1.62265999E-06 5.41699191E-09 5.00079390E+08 5.00042234E+08  207.05711      36948.891    
 1.63353026E-06 5.45328058E-09 5.09958813E+08 5.09920938E+08  212.49613      37662.498    
 1.64447336E-06 5.48981235E-09 5.20270501E+08 5.20231868E+08  218.27874      38414.736    
 1.65548976E-06 5.52658885E-09 5.30828666E+08 5.30789222E+08  224.25229      39219.785    
 1.66657996E-06 5.56361172E-09 5.41313100E+08 5.41272854E+08  230.14076      40016.087    
 1.67774445E-06 5.60088261E-09 5.52493123E+08 5.52452031E+08  236.60789      40855.356    
 1.68898374E-06 5.63840317E-09 5.63465125E+08 5.63423215E+08  242.87438      41667.060    
 1.70029832E-06 5.67617509E-09 5.74777254E+08 5.74734510E+08  249.41339      42493.851    
 1.71168869E-06 5.71420004E-09 5.86520866E+08 5.86477269E+08  256.31064      43340.493    
 1.72315537E-06 5.75247973E-09 5.98104192E+08 5.98059739E+08  263.04169      44190.122    
 1.73469887E-06 5.79101585E-09 6.10370335E+08 6.10324936E+08  270.35695      45128.741    
 1.74631969E-06 5.82981012E-09 6.22576211E+08 6.22529879E+08  277.59512      46055.110    
 1.75801837E-06 5.86886429E-09 6.34985122E+08 6.34937852E+08  284.98873      46985.576    
 1.76979541E-06 5.90818007E-09 6.48046379E+08 6.47998134E+08  292.95158      47951.664    
 1.78165135E-06 5.94775924E-09 6.60843548E+08 6.60794361E+08  300.64577      48886.263    
 1.79358672E-06 5.98760354E-09 6.74300457E+08 6.74250292E+08  308.91958      49855.665    
 1.80560203E-06 6.02771477E-09 6.87877853E+08 6.87826677E+08  317.27906      50858.897    
 1.81769784E-06 6.06809470E-09 7.01489054E+08 7.01436828E+08  325.63809      51900.914    
 1.82987468E-06 6.10874514E-09 7.16014708E+08 7.15961368E+08  334.83011      53005.213    
 1.84213310E-06 6.14966790E-09 7.30152658E+08 7.30098251E+08  343.62524      54063.486    
 1.85447363E-06 6.19086481E-09 7.44915143E+08 7.44859634E+08  352.98227      55155.447    
 1.86689683E-06 6.23233769E-09 7.60017011E+08 7.59960391E+08  362.63560      56256.771    
 1.87940326E-06 6.27408840E-09 7.75020028E+08 7.74962316E+08  372.15748      57339.410    
 1.89199346E-06 6.31611880E-09 7.91024397E+08 7.90965485E+08  382.62195      58528.965    
 1.90466801E-06 6.35843077E-09 8.06717812E+08 8.06657688E+08  392.74841      59731.651    
 1.91742747E-06 6.40102618E-09 8.22911556E+08 8.22850191E+08  403.32944      60960.899    
 1.93027240E-06 6.44390694E-09 8.39707803E+08 8.39645170E+08  414.47552      62218.718    
 1.94320339E-06 6.48707497E-09 8.56282153E+08 8.56218284E+08  425.35985      63443.857    
 1.95622099E-06 6.53053217E-09 8.73840112E+08 8.73774951E+08  437.19669      64723.928    
 1.96932581E-06 6.57428050E-09 8.91296847E+08 8.91230412E+08  448.89342      65986.107    
 1.98251841E-06 6.61832191E-09 9.09059462E+08 9.08991688E+08  460.85734      67312.820    
 1.99579939E-06 6.66265834E-09 9.27738733E+08 9.27669512E+08  473.72547      68746.853    
 2.00916934E-06 6.70729179E-09 9.46048577E+08 9.45977957E+08  486.16719      70134.103    
 2.02262885E-06 6.75222424E-09 9.65309834E+08 9.65237757E+08  499.55509      71576.619    
 2.03617854E-06 6.79745770E-09 9.84726559E+08 9.84653035E+08  513.06388      73010.283    
 2.04981899E-06 6.84299417E-09 1.00420881E+09 1.00413385E+09  526.59001      74432.144    
 2.06355082E-06 6.88883570E-09 1.02498045E+09 1.02490398E+09  541.44456      75934.785    
 2.07737464E-06 6.93498432E-09 1.04520699E+09 1.04512898E+09  555.66647      77457.151    
 2.09129106E-06 6.98144209E-09 1.06633548E+09 1.06625583E+09  570.80719      79077.878    
 2.10530072E-06 7.02821109E-09 1.08793051E+09 1.08784921E+09  586.40685      80714.948    
 2.11940422E-06 7.07529339E-09 1.10939369E+09 1.10931076E+09  601.80389      82320.935    
 2.13360221E-06 7.12269110E-09 1.13229758E+09 1.13221295E+09  618.73619      84011.861    
 2.14789530E-06 7.17040633E-09 1.15473761E+09 1.15465133E+09  635.10001      85647.108    
 2.16228415E-06 7.21844121E-09 1.17791275E+09 1.17782476E+09  652.22133      87329.972    
 2.17676939E-06 7.26679787E-09 1.20192847E+09 1.20183865E+09  670.23330      89147.122    
 2.19135167E-06 7.31547848E-09 1.22563759E+09 1.22554594E+09  687.83338      90963.775    
 2.20603163E-06 7.36448520E-09 1.25076303E+09 1.25066945E+09  706.98631      92869.829    
 2.22080994E-06 7.41382021E-09 1.27572232E+09 1.27562686E+09  725.88766      94735.452    
 2.23568724E-06 7.46348573E-09 1.30114088E+09 1.30104352E+09  745.24670      96612.850    
 2.25066421E-06 7.51348396E-09 1.32784639E+09 1.32774706E+09  766.04157      98556.358    
 2.26574151E-06 7.56381713E-09 1.35403566E+09 1.35393440E+09  786.15986      100467.15    
 2.28091982E-06 7.61448748E-09 1.38159634E+09 1.38149297E+09  807.82256      102559.36    
 2.29619980E-06 7.66549727E-09 1.40935538E+09 1.40924986E+09  829.65219      104689.26    
 2.31158215E-06 7.71684879E-09 1.43723274E+09 1.43712508E+09  851.53913      106801.12    
 2.32706754E-06 7.76854430E-09 1.46692700E+09 1.46681711E+09  875.54408      109021.93    
 2.34265667E-06 7.82058613E-09 1.49585524E+09 1.49574318E+09  898.54085      111156.23    
 2.35835023E-06 7.87297659E-09 1.52608517E+09 1.52597089E+09  923.03980      113358.06    
 2.37414893E-06 7.92571802E-09 1.55695523E+09 1.55683867E+09  948.24825      115617.94    
 2.39005346E-06 7.97881276E-09 1.58765054E+09 1.58753161E+09  973.14512      117956.29    
 2.40606454E-06 8.03226319E-09 1.62041778E+09 1.62029631E+09  1000.5424      120475.41    
 2.42218287E-06 8.08607168E-09 1.65249479E+09 1.65237086E+09  1026.9850      122902.25    
 2.43840918E-06 8.14024064E-09 1.68565049E+09 1.68552406E+09  1054.6888      125381.72    
 2.45474420E-06 8.19477248E-09 1.71997746E+09 1.71984846E+09  1083.7955      127912.75    
 2.47118864E-06 8.24966963E-09 1.75388138E+09 1.75374989E+09  1112.2546      130384.45    
 2.48774324E-06 8.30493454E-09 1.78982362E+09 1.78968946E+09  1143.2449      133021.02    
 2.50440875E-06 8.36056967E-09 1.82549809E+09 1.82536116E+09  1173.7881      135757.77    
 2.52118589E-06 8.41657750E-09 1.86186033E+09 1.86172058E+09  1205.1128      138547.72    
 2.53807543E-06 8.47296053E-09 1.90002811E+09 1.89988543E+09  1238.7166      141439.36    
 2.55507811E-06 8.52972128E-09 1.93747517E+09 1.93732967E+09  1271.2474      144237.08    
 2.57219470E-06 8.58686227E-09 1.97689763E+09 1.97674918E+09  1306.2988      147144.89    
 2.58942595E-06 8.64438604E-09 2.01656931E+09 2.01641793E+09  1341.5739      150033.81    
 2.60677263E-06 8.70229518E-09 2.05644531E+09 2.05629096E+09  1376.9890      152970.36    
 2.62423551E-06 8.76059224E-09 2.09887999E+09 2.09872232E+09  1415.7803      156245.58    
 2.64181539E-06 8.81927985E-09 2.14023924E+09 2.14007837E+09  1452.9653      159413.44    
 2.65951303E-06 8.87836060E-09 2.18347608E+09 2.18331190E+09  1492.6059      162688.85    
 2.67732922E-06 8.93783714E-09 2.22758920E+09 2.22742168E+09  1533.3411      165983.86    
 2.69526477E-06 8.99771211E-09 2.27147196E+09 2.27130116E+09  1573.5983      169222.65    
 2.71332047E-06 9.05798819E-09 2.31833254E+09 2.31815829E+09  1617.9276      172629.52    
 2.73149713E-06 9.11866806E-09 2.36416845E+09 2.36399075E+09  1660.6560      176033.68    
 2.74979555E-06 9.17975443E-09 2.41158551E+09 2.41140411E+09  1705.4823      179697.87    
 2.76821656E-06 9.24125002E-09 2.46063294E+09 2.46044773E+09  1752.5168      183461.63    
 2.78676096E-06 9.30315757E-09 2.50909788E+09 2.50890895E+09  1798.5337      187128.95    
 2.80542960E-06 9.36547984E-09 2.56049437E+09 2.56030156E+09  1848.6768      190969.98    
 2.82422330E-06 9.42821962E-09 2.61146478E+09 2.61126815E+09  1898.0312      194727.26    
 2.84314290E-06 9.49137968E-09 2.66346232E+09 2.66326186E+09  1948.7164      198514.82    
 2.86218924E-06 9.55496287E-09 2.71799089E+09 2.71778630E+09  2003.0180      202593.61    
 2.88136318E-06 9.61897199E-09 2.77151473E+09 2.77130595E+09  2055.6185      206731.41    
 2.90066556E-06 9.68340992E-09 2.82788235E+09 2.82766918E+09  2112.3323      211059.26    
 2.92009725E-06 9.74827952E-09 2.88455729E+09 2.88433977E+09  2169.3332      215347.33    
 2.93965911E-06 9.81358368E-09 2.94157416E+09 2.94135233E+09  2226.6370      219609.34    
 2.95935202E-06 9.87932532E-09 3.00219098E+09 3.00196461E+09  2289.3213      224075.70    
 2.97917685E-06 9.94550737E-09 3.06129945E+09 3.06106870E+09  2349.4470      228392.03    
 2.99913449E-06 1.00121328E-08 3.12311448E+09 3.12287902E+09  2413.5864      233040.50    
 3.01922583E-06 1.00792045E-08 3.18612652E+09 3.18588611E+09  2479.4102      237923.47    
 3.03945176E-06 1.01467255E-08 3.24883751E+09 3.24859224E+09  2544.5033      242730.65    
 3.05981319E-06 1.02146989E-08 3.31582565E+09 3.31557523E+09  2616.2274      247805.55    
 3.08031101E-06 1.02831276E-08 3.38129560E+09 3.38104023E+09  2685.2702      252694.39    
 3.10094616E-06 1.03520148E-08 3.44907972E+09 3.44881926E+09  2757.8001      257695.03    
 3.12171953E-06 1.04213634E-08 3.51913043E+09 3.51886478E+09  2833.8032      262817.74    
 3.14263207E-06 1.04911766E-08 3.58838105E+09 3.58811008E+09  2908.2088      268058.29    
 3.16368471E-06 1.05614574E-08 3.66184534E+09 3.66156859E+09  2989.3394      273761.69    
 3.18487837E-06 1.06322091E-08 3.73463970E+09 3.73435730E+09  3069.0892      279340.04    
 3.20621402E-06 1.07034348E-08 3.80896420E+09 3.80867608E+09  3151.0989      284968.72    
 3.22769259E-06 1.07751376E-08 3.88683292E+09 3.88653890E+09  3238.8450      290785.59    
 3.24931505E-06 1.08473207E-08 3.96330227E+09 3.96300251E+09  3323.8951      296427.47    
 3.27108236E-06 1.09199874E-08 4.04386253E+09 4.04355678E+09  3415.6571      302333.49    
 3.29299549E-06 1.09931409E-08 4.12479263E+09 4.12448062E+09  3507.7626      308504.64    
 3.31505541E-06 1.10667844E-08 4.20628260E+09 4.20596418E+09  3600.4814      314823.06    
 3.33726312E-06 1.11409213E-08 4.29283366E+09 4.29250849E+09  3701.7731      321470.84    
 3.35961959E-06 1.12155548E-08 4.37727133E+09 4.37693967E+09  3798.9902      327859.15    
 3.38212584E-06 1.12906884E-08 4.46560706E+09 4.46526870E+09  3902.7666      334462.95    
 3.40478285E-06 1.13663252E-08 4.55557312E+09 4.55522802E+09  4009.1286      341095.10    
 3.42759164E-06 1.14424687E-08 4.64514957E+09 4.64479777E+09  4114.3772      347687.20    
 3.45055323E-06 1.15191223E-08 4.74086526E+09 4.74050601E+09  4230.4227      355026.58    
 3.47366865E-06 1.15962894E-08 4.83433688E+09 4.83397026E+09  4341.9833      362280.69    
 3.49693891E-06 1.16739735E-08 4.93119143E+09 4.93081726E+09  4459.3355      369716.03    
 3.52036506E-06 1.17521780E-08 5.03119286E+09 5.03081099E+09  4582.1458      377289.11    
 3.54394814E-06 1.18309064E-08 5.13009720E+09 5.12970782E+09  4702.4507      384684.47    
 3.56768921E-06 1.19101621E-08 5.23505282E+09 5.23465556E+09  4833.7155      392423.86    
 3.59158932E-06 1.19899488E-08 5.33896534E+09 5.33856027E+09  4962.5767      400110.50    
 3.61564954E-06 1.20702701E-08 5.44515203E+09 5.44473866E+09  5095.2669      408277.68    
 3.63987094E-06 1.21511293E-08 5.55629711E+09 5.55587494E+09  5237.0523      416930.94    
 3.66425460E-06 1.22325303E-08 5.66549627E+09 5.66506559E+09  5374.5671      425304.62    
 3.68880161E-06 1.23144766E-08 5.78057572E+09 5.78013617E+09  5523.0328      434027.56    
 3.71351306E-06 1.23969718E-08 5.89608397E+09 5.89563564E+09  5671.8584      442660.68    
 3.73839005E-06 1.24800197E-08 6.01249267E+09 6.01203558E+09  5821.8758      451260.72    
 3.76343369E-06 1.25636239E-08 6.13600998E+09 6.13554358E+09  5985.5488      460417.77    
 3.78864510E-06 1.26477882E-08 6.25657022E+09 6.25609432E+09  6142.7349      469757.20    
 3.81402541E-06 1.27325163E-08 6.38274038E+09 6.38225449E+09  6310.6391      479581.36    
 3.83957574E-06 1.28178120E-08 6.51112512E+09 6.51062920E+09  6482.5007      489437.36    
 3.86529723E-06 1.29036791E-08 6.63901129E+09 6.63850550E+09  6652.6717      499131.04    
 3.89119103E-06 1.29901214E-08 6.77570119E+09 6.77518499E+09  6840.4219      509353.42    
 3.91725829E-06 1.30771428E-08 6.90908072E+09 6.90855449E+09  7020.6786      519207.28    
 3.94350018E-06 1.31647472E-08 7.04739890E+09 7.04686219E+09  7210.5473      529500.56    
 3.96991787E-06 1.32529384E-08 7.19008042E+09 7.18953238E+09  7408.9862      540633.93    
 3.99651253E-06 1.33417205E-08 7.33126210E+09 7.33070289E+09  7603.4996      551609.86    
 4.02328535E-06 1.34310972E-08 7.48112712E+09 7.48055617E+09  7815.8727      563134.54    
 4.05023752E-06 1.35210728E-08 7.62938091E+09 7.62879852E+09  8024.0831      574368.21    
 4.07737024E-06 1.36116511E-08 7.78100533E+09 7.78041137E+09  8238.7676      585722.28    
 4.10468473E-06 1.37028361E-08 7.93955796E+09 7.93895207E+09  8467.8664      597424.72    
 4.13218219E-06 1.37946320E-08 8.09540938E+09 8.09479159E+09  8690.2036      609102.03    
