 OPTXAGNF AGN Spectrum Model Parameters: BLS, Astar 0.0                          
 M_BH:  3.0000E+06 M_0            L  :  0.3000     L/Ledd 
 D   :  1.5000E+18 cm             z  :   0.000     redshift 
 Rcor:   60.00     Rg             Ro :   4.000     Rg 
 C_T :  0.2000     keV            Tau:   15.00     Optical Depth 
 gam :   1.800     (-slope)       fpl:  0.5000     Fraction 
 E              0.5DeltaE      E.FE total     E.FE Disk      E.FE Compton   E.FE NonThermal
 (keV)          (keV)          E.E/cm2/s/E    E.E/cm2/s/E    E.E/cm2/s/E    E.E/cm2/s/E    
 1.00334952E-06 3.34952256E-09  118670.59      118666.25     5.58659637E-04  4.3373336    
 1.01007101E-06 3.37196116E-09  121023.23      121018.89     5.73337376E-04  4.3407255    
 1.01683752E-06 3.39455008E-09  123475.06      123470.72     5.88900279E-04  4.3403599    
 1.02364936E-06 3.41729032E-09  125994.61      125990.27     6.05061742E-04  4.3387963    
 1.03050683E-06 3.44018290E-09  128492.03      128487.69     6.20952606E-04  4.3421714    
 1.03741024E-06 3.46322884E-09  131151.61      131147.27     6.38359464E-04  4.3380784    
 1.04435990E-06 3.48642917E-09  133770.40      133766.06     6.55315264E-04  4.3402518    
 1.05135611E-06 3.50978492E-09  136461.27      136456.93     6.72913909E-04  4.3411049    
 1.05839920E-06 3.53329712E-09  139265.24      139260.90     6.91574437E-04  4.3383196    
 1.06548946E-06 3.55696684E-09  142025.80      142021.46     7.09739637E-04  4.3417001    
 1.07262722E-06 3.58079512E-09  144945.06      144940.72     7.29429326E-04  4.3388232    
 1.07981280E-06 3.60478303E-09  147859.94      147855.60     7.49014275E-04  4.3397774    
 1.08704652E-06 3.62893164E-09  150813.01      150808.67     7.68912925E-04  4.3418500    
 1.09432869E-06 3.65324201E-09  153933.33      153928.99     7.90456459E-04  4.3378420    
 1.10165965E-06 3.67771524E-09  156984.75      156980.41     8.11221486E-04  4.3412281    
 1.10903971E-06 3.70235243E-09  160188.90      160184.56     8.33491258E-04  4.3395681    
 1.11646922E-06 3.72715465E-09  163433.16      163428.82     8.56110229E-04  4.3393022    
 1.12394850E-06 3.75212303E-09  166673.83      166669.48     8.78607141E-04  4.3425951    
 1.13147788E-06 3.77725867E-09  170145.99      170141.65     9.03476278E-04  4.3373638    
 1.13905770E-06 3.80256270E-09  173518.91      173514.57     9.27213208E-04  4.3407552    
 1.14668830E-06 3.82803623E-09  177035.59      177031.25     9.52398689E-04  4.3403131    
 1.15437002E-06 3.85368042E-09  180646.24      180641.90     9.78518537E-04  4.3388263    
 1.16210319E-06 3.87949640E-09  184226.71      184222.36     1.00421733E-03  4.3422010    
 1.16988818E-06 3.90548532E-09  188041.30      188036.96     1.03238636E-03  4.3380316    
 1.17772531E-06 3.93164835E-09  191794.11      191789.77     1.05978935E-03  4.3402816    
 1.18561494E-06 3.95798663E-09  195653.62      195649.28     1.08826945E-03  4.3410581    
 1.19355743E-06 3.98450137E-09  199671.82      199667.48     1.11842845E-03  4.3383496    
 1.20155313E-06 4.01119372E-09  203629.50      203625.16     1.14780531E-03  4.3417298    
 1.20960239E-06 4.03806489E-09  207816.52      207812.18     1.17966876E-03  4.3387764    
 1.21770557E-06 4.06511607E-09  211993.60      211989.26     1.21132107E-03  4.3398073    
 1.22586303E-06 4.09234846E-09  216229.16      216224.82     1.24352350E-03  4.3418031    
 1.23407514E-06 4.11976329E-09  220700.66      220696.32     1.27834223E-03  4.3378721    
 1.24234227E-06 4.14736177E-09  225075.29      225070.95     1.31192353E-03  4.3412578    
 1.25066478E-06 4.17514513E-09  229670.89      229666.55     1.34796249E-03  4.3395213    
 1.25904304E-06 4.20311462E-09  234319.93      234315.59     1.38451852E-03  4.3393321    
 1.26747742E-06 4.23127147E-09  238967.96      238963.62     1.42092600E-03  4.3425482    
 1.27596831E-06 4.25961695E-09  243943.62      243939.28     1.46111985E-03  4.3373938    
 1.28451608E-06 4.28815232E-09  248779.11      248774.77     1.49950732E-03  4.3407850    
 1.29312111E-06 4.31687884E-09  253822.92      253818.58     1.54026498E-03  4.3402662    
 1.30178379E-06 4.34579781E-09  258996.97      258992.63     1.58247932E-03  4.3388562    
 1.31050450E-06 4.37491051E-09  264129.96      264125.61     1.62403951E-03  4.3422306    
 1.31928362E-06 4.40421823E-09  269600.95      269596.61     1.66962458E-03  4.3379847    
 1.32812156E-06 4.43372228E-09  274978.63      274974.29     1.71391166E-03  4.3403114    
 1.33701871E-06 4.46342399E-09  280514.11      280509.76     1.76000127E-03  4.3410112    
 1.34597546E-06 4.49332467E-09  286272.11      286267.77     1.80874395E-03  4.3383796    
 1.35499221E-06 4.52342565E-09  291945.82      291941.48     1.85625230E-03  4.3417594    
 1.36406936E-06 4.55372829E-09  297950.91      297946.57     1.90781624E-03  4.3387296    
 1.37320733E-06 4.58423392E-09  303936.50      303932.16     1.95897119E-03  4.3398371    
 1.38240650E-06 4.61494391E-09  310011.28      310006.94     2.01108500E-03  4.3417563    
 1.39166731E-06 4.64585962E-09  316418.79      316414.45     2.06735907E-03  4.3379021    
 1.40099015E-06 4.67698245E-09  322690.16      322685.82     2.12166686E-03  4.3412875    
 1.41037545E-06 4.70831376E-09  329281.19      329276.85     2.17998826E-03  4.3394744    
 1.41982361E-06 4.73985497E-09  335943.02      335938.68     2.23906881E-03  4.3393620    
 1.42933508E-06 4.77160747E-09  342609.32      342604.97     2.29798810E-03  4.3425014    
 1.43891026E-06 4.80357269E-09  349739.20      349734.86     2.36294989E-03  4.3374239    
 1.44854958E-06 4.83575204E-09  356671.16      356666.82     2.42503019E-03  4.3408147    
 1.45825348E-06 4.86814696E-09  363904.96      363900.61     2.49098820E-03  4.3402194    
 1.46802239E-06 4.90075889E-09  371319.00      371314.66     2.55921399E-03  4.3388862    
 1.47785673E-06 4.93358930E-09  378677.40      378673.06     2.62642522E-03  4.3422602    
 1.48775696E-06 4.96663964E-09  386523.70      386519.36     2.70019402E-03  4.3379379    
 1.49772351E-06 4.99991138E-09  394229.43      394225.09     2.77176802E-03  4.3403412    
 1.50775683E-06 5.03340601E-09  402168.30      402163.96     2.84635516E-03  4.3409644    
 1.51785736E-06 5.06712502E-09  410419.03      410414.69     2.92513244E-03  4.3384096    
 1.52802556E-06 5.10106992E-09  418552.47      418548.12     3.00196302E-03  4.3417891    
 1.53826187E-06 5.13524222E-09  427164.67      427160.33     3.08540768E-03  4.3386827    
 1.54856676E-06 5.16964344E-09  435741.39      435737.05     3.16808173E-03  4.3398670    
 1.55894067E-06 5.20427512E-09  444453.63      444449.29     3.25241838E-03  4.3417094    
 1.56938409E-06 5.23913879E-09  453634.94      453630.60     3.34336842E-03  4.3379322    
 1.57989746E-06 5.27423602E-09  462625.03      462620.68     3.43119502E-03  4.3413172    
 1.59048127E-06 5.30956836E-09  472077.45      472073.11     3.52557566E-03  4.3394276    
 1.60113597E-06 5.34513740E-09  481623.05      481618.71     3.62105936E-03  4.3393919    
 1.61186206E-06 5.38094472E-09  491183.54      491179.20     3.71641003E-03  4.3424545    
 1.62265999E-06 5.41699191E-09  501399.82      501395.48     3.82140184E-03  4.3374540    
 1.63353026E-06 5.45328058E-09  511336.73      511332.38     3.92179813E-03  4.3408445    
 1.64447336E-06 5.48981235E-09  521710.86      521706.52     4.02853760E-03  4.3401725    
 1.65548976E-06 5.52658885E-09  532334.16      532329.82     4.13880226E-03  4.3389161    
 1.66657996E-06 5.56361172E-09  542882.27      542877.92     4.24749624E-03  4.3422898    
 1.67774445E-06 5.60088261E-09  554134.57      554130.23     4.36687362E-03  4.3378911    
 1.68898374E-06 5.63840317E-09  565175.66      565171.31     4.48254681E-03  4.3403710    
 1.70029832E-06 5.67617509E-09  576560.84      576556.49     4.60325147E-03  4.3409175    
 1.71168869E-06 5.71420004E-09  588382.83      588378.49     4.73057005E-03  4.3384396    
 1.72315537E-06 5.75247973E-09  600041.78      600037.43     4.85482040E-03  4.3418187    
 1.73469887E-06 5.79101585E-09  612392.32      612387.98     4.98985662E-03  4.3386359    
 1.74631969E-06 5.82981012E-09  624681.23      624676.88     5.12346999E-03  4.3398968    
 1.75801837E-06 5.86886429E-09  637175.38      637171.03     5.25995314E-03  4.3416626    
 1.76979541E-06 5.90818007E-09  650330.63      650326.23     5.40694614E-03  4.3966296    
 1.78165135E-06 5.94775924E-09  663217.46      663212.94     5.54897918E-03  4.5139859    
 1.79358672E-06 5.98760354E-09  676772.92      676768.27     5.70171367E-03  4.6421590    
 1.80560203E-06 6.02771477E-09  690450.00      690445.22     5.85603040E-03  4.7688824    
 1.81769784E-06 6.06809470E-09  704160.59      704155.69     6.01033866E-03  4.8933120    
 1.82987468E-06 6.10874514E-09  718798.63      718793.60     6.18002701E-03  5.0271011    
 1.84213310E-06 6.14966790E-09  733042.46      733037.30     6.34238768E-03  5.1532492    
 1.85447363E-06 6.19086481E-09  747919.54      747914.25     6.51512322E-03  5.2907714    
 1.86689683E-06 6.23233769E-09  763140.55      763135.11     6.69332960E-03  5.4359019    
 1.87940326E-06 6.27408840E-09  778260.35      778254.77     6.86910920E-03  5.5767932    
 1.89199346E-06 6.31611880E-09  794396.41      794390.67     7.06229292E-03  5.7282428    
 1.90466801E-06 6.35843077E-09  810215.77      810209.89     7.24923593E-03  5.8721110    
 1.91742747E-06 6.40102618E-09  826542.54      826536.52     7.44457237E-03  6.0195504    
 1.93027240E-06 6.44390694E-09  843480.78      843474.60     7.65034219E-03  6.1722288    
 1.94320339E-06 6.48707497E-09  860192.59      860186.25     7.85127942E-03  6.3263590    
 1.95622099E-06 6.53053217E-09  877903.32      877896.82     8.06980442E-03  6.4962710    
 1.96932581E-06 6.57428050E-09  895510.27      895503.61     8.28574271E-03  6.6613445    
 1.98251841E-06 6.61832191E-09  913427.14      913420.31     8.50661481E-03  6.8271754    
 1.99579939E-06 6.66265834E-09  932275.25      932268.24     8.74418365E-03  7.0011516    
 2.00916934E-06 6.70729179E-09  950746.61      950739.43     8.97387888E-03  7.1670335    
 2.02262885E-06 6.75222424E-09  970184.75      970177.40     9.22104583E-03  7.3425951    
 2.03617854E-06 6.79745770E-09  989780.11      989772.57     9.47044552E-03  7.5261597    
 2.04981899E-06 6.84299417E-09  1009441.0      1009433.2     9.72016570E-03  7.7122567    
 2.06355082E-06 6.88883570E-09  1030413.1      1030405.2     9.99441636E-03  7.9117198    
 2.07737464E-06 6.93498432E-09  1050829.1      1050821.0     1.02569852E-02  8.1000274    
 2.09129106E-06 6.98144209E-09  1072162.2      1072153.9     1.05365210E-02  8.2959878    
 2.10530072E-06 7.02821109E-09  1093969.2      1093960.7     1.08245321E-02  8.4935586    
 2.11940422E-06 7.07529339E-09  1115640.6      1115631.9     1.11088019E-02  8.6881375    
 2.13360221E-06 7.12269110E-09  1138778.3      1138769.4     1.14214228E-02  8.9077809    
 2.14789530E-06 7.17040633E-09  1161442.2      1161433.1     1.17235465E-02  9.1228033    
 2.16228415E-06 7.21844121E-09  1184853.7      1184844.4     1.20396589E-02  9.3432536    
 2.17676939E-06 7.26679787E-09  1209120.6      1209111.0     1.23722194E-02  9.5696240    
 2.19135167E-06 7.31547848E-09  1233073.4      1233063.6     1.26971737E-02  9.7881441    
 2.20603163E-06 7.36448520E-09  1258468.7      1258458.6     1.30508053E-02  10.019071    
 2.22080994E-06 7.41382021E-09  1283693.2      1283682.9     1.33997916E-02  10.247680    
 2.23568724E-06 7.46348573E-09  1309384.4      1309373.9     1.37572304E-02  10.489873    
 2.25066421E-06 7.51348396E-09  1336387.0      1336376.2     1.41411863E-02  10.749249    
 2.26574151E-06 7.56381713E-09  1362861.2      1362850.2     1.45126477E-02  10.997168    
 2.28091982E-06 7.61448748E-09  1390733.0      1390721.8     1.49126318E-02  11.257151    
 2.29619980E-06 7.66549727E-09  1418805.7      1418794.2     1.53156992E-02  11.514466    
 2.31158215E-06 7.71684879E-09  1446997.2      1446985.4     1.57198255E-02  11.768912    
 2.32706754E-06 7.76854430E-09  1477042.1      1477030.1     1.61630690E-02  12.044112    
 2.34265667E-06 7.82058613E-09  1506303.0      1506290.7     1.65876932E-02  12.321326    
 2.35835023E-06 7.87297659E-09  1536891.4      1536878.8     1.70400615E-02  12.613884    
 2.37414893E-06 7.92571802E-09  1568132.0      1568119.0     1.75055340E-02  12.908504    
 2.39005346E-06 7.97881276E-09  1599191.6      1599178.4     1.79652526E-02  13.196045    
 2.40606454E-06 8.03226319E-09  1632366.8      1632353.2     1.84711525E-02  13.501943    
 2.42218287E-06 8.08607168E-09  1664834.4      1664820.5     1.89594215E-02  13.795065    
 2.43840918E-06 8.14024064E-09  1698402.4      1698388.3     1.94709841E-02  14.101613    
 2.45474420E-06 8.19477248E-09  1733166.2      1733151.8     2.00084593E-02  14.435354    
 2.47118864E-06 8.24966963E-09  1767494.9      1767480.1     2.05339723E-02  14.761435    
 2.48774324E-06 8.30493454E-09  1803906.4      1803891.3     2.11062408E-02  15.105948    
 2.50440875E-06 8.36056967E-09  1840041.5      1840026.0     2.16702498E-02  15.441062    
 2.52118589E-06 8.41657750E-09  1876877.6      1876861.8     2.22486939E-02  15.778575    
 2.53807543E-06 8.47296053E-09  1915559.7      1915543.5     2.28692371E-02  16.129664    
 2.55507811E-06 8.52972128E-09  1953501.2      1953484.7     2.34699606E-02  16.477348    
 2.57219470E-06 8.58686227E-09  1993462.8      1993445.9     2.41172431E-02  16.862173    
 2.58942595E-06 8.64438604E-09  2033677.1      2033659.9     2.47686591E-02  17.245629    
 2.60677263E-06 8.70229518E-09  2074097.6      2074079.9     2.54226616E-02  17.625264    
 2.62423551E-06 8.76059224E-09  2117137.0      2117118.9     2.61390290E-02  18.026954    
 2.64181539E-06 8.81927985E-09  2159071.2      2159052.8     2.68257264E-02  18.410223    
 2.65951303E-06 8.87836060E-09  2202927.0      2202908.1     2.75577849E-02  18.807448    
 2.67732922E-06 8.93783714E-09  2247678.3      2247659.0     2.83100618E-02  19.222693    
 2.69526477E-06 8.99771211E-09  2292189.8      2292170.1     2.90535130E-02  19.648966    
 2.71332047E-06 9.05798819E-09  2339752.9      2339732.7     2.98721849E-02  20.105149    
 2.73149713E-06 9.11866806E-09  2386261.2      2386240.6     3.06612856E-02  20.541494    
 2.74979555E-06 9.17975443E-09  2434388.1      2434367.1     3.14891416E-02  20.988678    
 2.76821656E-06 9.24125002E-09  2484185.2      2484163.7     3.23577920E-02  21.445666    
 2.78676096E-06 9.30315757E-09  2533380.3      2533358.4     3.32076446E-02  21.890480    
 2.80542960E-06 9.36547984E-09  2585582.3      2585559.9     3.41337224E-02  22.378394    
 2.82422330E-06 9.42821962E-09  2637342.9      2637320.0     3.50452344E-02  22.875894    
 2.84314290E-06 9.49137968E-09  2690154.4      2690130.9     3.59813295E-02  23.379002    
 2.86218924E-06 9.55496287E-09  2745562.9      2745539.0     3.69842383E-02  23.901802    
 2.88136318E-06 9.61897199E-09  2799934.1      2799909.7     3.79557196E-02  24.405364    
 2.90066556E-06 9.68340992E-09  2857224.6      2857199.7     3.90031950E-02  24.931116    
 2.92009725E-06 9.74827952E-09  2914827.0      2914801.5     4.00559756E-02  25.454061    
 2.93965911E-06 9.81358368E-09  2972776.0      2972749.9     4.11143529E-02  25.995824    
 2.95935202E-06 9.87932532E-09  3034424.5      3034397.9     4.22721381E-02  26.592232    
 2.97917685E-06 9.94550737E-09  3094516.0      3094488.8     4.33826544E-02  27.162943    
 2.99913449E-06 1.00121328E-08  3157387.9      3157360.1     4.45673263E-02  27.754987    
 3.01922583E-06 1.00792045E-08  3221487.4      3221459.0     4.57831208E-02  28.349981    
 3.03945176E-06 1.01467255E-08  3285271.0      3285242.1     4.69854177E-02  28.933505    
 3.05981319E-06 1.02146989E-08  3353455.6      3353426.0     4.83102288E-02  29.554766    
 3.08031101E-06 1.02831276E-08  3420070.5      3420040.3     4.95855054E-02  30.182606    
 3.10094616E-06 1.03520148E-08  3489064.3      3489033.4     5.09252114E-02  30.847160    
 3.12171953E-06 1.04213634E-08  3560389.3      3560357.7     5.23290925E-02  31.527574    
 3.14263207E-06 1.04911766E-08  3630882.5      3630850.3     5.37034591E-02  32.188846    
 3.16368471E-06 1.05614574E-08  3705715.6      3705682.7     5.52020869E-02  32.884371    
 3.18487837E-06 1.06322091E-08  3779851.5      3779817.9     5.66752045E-02  33.562241    
 3.20621402E-06 1.07034348E-08  3855559.2      3855524.9     5.81900809E-02  34.251846    
 3.22769259E-06 1.07751376E-08  3934919.2      3934884.2     5.98109558E-02  35.006120    
 3.24931505E-06 1.08473207E-08  4012827.3      4012791.5     6.13820171E-02  35.754809    
 3.27108236E-06 1.09199874E-08  4094953.1      4094916.5     6.30771057E-02  36.538275    
 3.29299549E-06 1.09931409E-08  4177453.8      4177416.5     6.47785429E-02  37.312823    
 3.31505541E-06 1.10667844E-08  4260524.6      4260486.4     6.64913175E-02  38.082541    
 3.33726312E-06 1.11409213E-08  4348819.5      4348780.5     6.83625115E-02  38.891167    
 3.35961959E-06 1.12155548E-08  4434921.5      4434881.7     7.01584160E-02  39.678073    
 3.38212584E-06 1.12906884E-08  4525046.2      4525005.6     7.20755349E-02  40.536235    
 3.40478285E-06 1.13663252E-08  4616849.7      4616808.2     7.40404379E-02  41.421653    
 3.42759164E-06 1.14424687E-08  4708240.5      4708198.1     7.59847671E-02  42.289689    
 3.45055323E-06 1.15191223E-08  4805977.2      4805933.9     7.81286280E-02  43.209558    
 3.47366865E-06 1.15962894E-08  4901381.5      4901337.3     8.01896130E-02  44.092121    
 3.49693891E-06 1.16739735E-08  5000279.1      5000234.0     8.23576307E-02  44.996723    
 3.52036506E-06 1.17521780E-08  5102427.9      5102381.8     8.46265242E-02  45.934281    
 3.54394814E-06 1.18309064E-08  5203429.3      5203382.4     8.68491191E-02  46.898665    
 3.56768921E-06 1.19101621E-08  5310693.3      5310645.3     8.92742693E-02  47.935174    
 3.59158932E-06 1.19899488E-08  5416865.8      5416816.8     9.16550036E-02  48.943205    
 3.61564954E-06 1.20702701E-08  5525384.7      5525334.7     9.41065092E-02  49.961415    
 3.63987094E-06 1.21511293E-08  5639037.5      5638986.4     9.67261159E-02  51.014425    
 3.66425460E-06 1.22325303E-08  5750659.2      5750607.1     9.92667987E-02  52.034177    
 3.68880161E-06 1.23144766E-08  5868373.3      5868320.1     0.10200989      53.116375    
 3.71351306E-06 1.23969718E-08  5986521.6      5986467.2     0.10475963      54.253619    
 3.73839005E-06 1.24800197E-08  6105591.6      6105536.1     0.10753141      55.398866    
 3.76343369E-06 1.25636239E-08  6232036.0      6231979.3     0.11055559      56.602969    
 3.78864510E-06 1.26477882E-08  6355393.5      6355335.7     0.11345988      57.757823    
 3.81402541E-06 1.27325163E-08  6484569.3      6484510.2     0.11656229      58.953836    
 3.83957574E-06 1.28178120E-08  6616035.5      6615975.3     0.11973785      60.154080    
 3.86529723E-06 1.29036791E-08  6746967.7      6746906.2     0.12288217      61.359945    
 3.89119103E-06 1.29901214E-08  6887048.2      6886985.4     0.12635143      62.718061    
 3.91725829E-06 1.30771428E-08  7023668.4      7023604.2     0.12968219      64.029540    
 3.94350018E-06 1.31647472E-08  7165414.5      7165348.9     0.13319064      65.376133    
 3.96991787E-06 1.32529384E-08  7311690.6      7311623.7     0.13685752      66.747148    
 3.99651253E-06 1.33417205E-08  7456386.7      7456318.4     0.14045183      68.084707    
 4.02328535E-06 1.34310972E-08  7610117.6      7610048.0     0.14437631      69.487634    
 4.05023752E-06 1.35210728E-08  7762152.5      7762081.5     0.14822385      70.901408    
 4.07737024E-06 1.36116511E-08  7917684.0      7917611.5     0.15219107      72.404826    
 4.10468473E-06 1.37028361E-08  8080427.9      8080353.8     0.15642478      73.972148    
 4.13218219E-06 1.37946320E-08  8240333.1      8240257.5     0.16053350      75.487281    
