 OPTXAGNF AGN Spectrum Model Parameters: BLS, Astar 0.0                          
 M_BH:  3.0000E+06 M_0            L  :  0.5000     L/Ledd 
 D   :  1.5000E+18 cm             z  :   0.000     redshift 
 Rcor:   60.00     Rg             Ro :   4.000     Rg 
 C_T :  0.2000     keV            Tau:   15.00     Optical Depth 
 gam :   1.800     (-slope)       fpl:  0.5000     Fraction 
 E              0.5DeltaE      E.FE total     E.FE Disk      E.FE Compton   E.FE NonThermal
 (keV)          (keV)          E.E/cm2/s/E    E.E/cm2/s/E    E.E/cm2/s/E    E.E/cm2/s/E    
 1.00334952E-06 3.34952256E-09  134660.25      134652.59     3.84645033E-04  7.6583664    
 1.01007101E-06 3.37196116E-09  137330.01      137322.35     3.94750889E-04  7.6643553    
 1.01683752E-06 3.39455008E-09  140112.34      140104.68     4.05466198E-04  7.6637098    
 1.02364936E-06 3.41729032E-09  142971.54      142963.88     4.16593626E-04  7.6609490    
 1.03050683E-06 3.44018290E-09  145805.61      145797.94     4.27534742E-04  7.6669084    
 1.03741024E-06 3.46322884E-09  148823.72      148816.06     4.39519647E-04  7.6596814    
 1.04435990E-06 3.48642917E-09  151795.54      151787.87     4.51193991E-04  7.6635190    
 1.05135611E-06 3.50978492E-09  154849.15      154841.49     4.63310945E-04  7.6650252    
 1.05839920E-06 3.53329712E-09  158031.14      158023.47     4.76159026E-04  7.6601072    
 1.06548946E-06 3.55696684E-09  161163.85      161156.19     4.88666065E-04  7.6660762    
 1.07262722E-06 3.58079512E-09  164476.68      164469.02     5.02222742E-04  7.6609965    
 1.07981280E-06 3.60478303E-09  167784.53      167776.87     5.15707305E-04  7.6626813    
 1.08704652E-06 3.62893164E-09  171135.73      171128.06     5.29407857E-04  7.6663408    
 1.09432869E-06 3.65324201E-09  174676.75      174669.09     5.44240942E-04  7.6592641    
 1.10165965E-06 3.67771524E-09  178139.57      178131.90     5.58538012E-04  7.6652427    
 1.10903971E-06 3.70235243E-09  181775.73      181768.06     5.73871126E-04  7.6623117    
 1.11646922E-06 3.72715465E-09  185457.41      185449.74     5.89444672E-04  7.6618423    
 1.12394850E-06 3.75212303E-09  189135.01      189127.34     6.04934177E-04  7.6676564    
 1.13147788E-06 3.77725867E-09  193075.35      193067.70     6.22057005E-04  7.6584195    
 1.13905770E-06 3.80256270E-09  196903.06      196895.39     6.38400287E-04  7.6644078    
 1.14668830E-06 3.82803623E-09  200893.92      200886.26     6.55740925E-04  7.6636271    
 1.15437002E-06 3.85368042E-09  204991.44      204983.78     6.73724893E-04  7.6610019    
 1.16210319E-06 3.87949640E-09  209054.70      209047.03     6.91418960E-04  7.6669606    
 1.16988818E-06 3.90548532E-09  213383.68      213376.02     7.10813827E-04  7.6595987    
 1.17772531E-06 3.93164835E-09  217642.54      217634.88     7.29681267E-04  7.6635716    
 1.18561494E-06 3.95798663E-09  222022.51      222014.84     7.49290315E-04  7.6649425    
 1.19355743E-06 3.98450137E-09  226582.58      226574.92     7.70055323E-04  7.6601602    
 1.20155313E-06 4.01119372E-09  231073.97      231066.30     7.90281808E-04  7.6661286    
 1.20960239E-06 4.03806489E-09  235825.65      235817.99     8.12220362E-04  7.6609138    
 1.21770557E-06 4.06511607E-09  240566.05      240558.39     8.34013545E-04  7.6627340    
 1.22586303E-06 4.09234846E-09  245372.82      245365.16     8.56185490E-04  7.6662581    
 1.23407514E-06 4.11976329E-09  250447.39      250439.73     8.80158820E-04  7.6593171    
 1.24234227E-06 4.14736177E-09  255412.00      255404.34     9.03280153E-04  7.6652951    
 1.25066478E-06 4.17514513E-09  260627.42      260619.76     9.28093630E-04  7.6622290    
 1.25904304E-06 4.20311462E-09  265903.50      265895.84     9.53263126E-04  7.6618951    
 1.26747742E-06 4.23127147E-09  271178.42      271170.75     9.78330340E-04  7.6675737    
 1.27596831E-06 4.25961695E-09  276825.22      276817.56     1.00600455E-03  7.6584727    
 1.28451608E-06 4.28815232E-09  282312.91      282305.24     1.03243503E-03  7.6644603    
 1.29312111E-06 4.31687884E-09  288037.05      288029.39     1.06049744E-03  7.6635444    
 1.30178379E-06 4.34579781E-09  293909.01      293901.35     1.08956280E-03  7.6610548    
 1.31050450E-06 4.37491051E-09  299734.37      299726.70     1.11817777E-03  7.6670129    
 1.31928362E-06 4.40421823E-09  305943.39      305935.72     1.14956395E-03  7.6595160    
 1.32812156E-06 4.43372228E-09  312046.47      312038.80     1.18005644E-03  7.6636242    
 1.33701871E-06 4.46342399E-09  318328.66      318321.00     1.21179001E-03  7.6648598    
 1.34597546E-06 4.49332467E-09  324863.44      324855.78     1.24535028E-03  7.6602132    
 1.35499221E-06 4.52342565E-09  331302.53      331294.86     1.27806069E-03  7.6661809    
 1.36406936E-06 4.55372829E-09  338117.77      338110.11     1.31356345E-03  7.6608311    
 1.37320733E-06 4.58423392E-09  344910.86      344903.19     1.34878462E-03  7.6627867    
 1.38240650E-06 4.61494391E-09  351805.18      351797.51     1.38466599E-03  7.6661753    
 1.39166731E-06 4.64585962E-09  359077.18      359069.52     1.42341179E-03  7.6593702    
 1.40099015E-06 4.67698245E-09  366194.65      366186.98     1.46080376E-03  7.6653476    
 1.41037545E-06 4.70831376E-09  373674.95      373667.29     1.50095919E-03  7.6621463    
 1.41982361E-06 4.73985497E-09  381235.62      381227.96     1.54163731E-03  7.6619479    
 1.42933508E-06 4.77160747E-09  388801.36      388793.69     1.58220442E-03  7.6674910    
 1.43891026E-06 4.80357269E-09  396893.31      396885.65     1.62693190E-03  7.6585258    
 1.44854958E-06 4.83575204E-09  404760.59      404752.93     1.66967543E-03  7.6645129    
 1.45825348E-06 4.86814696E-09  412970.48      412962.82     1.71508885E-03  7.6634616    
 1.46802239E-06 4.90075889E-09  421384.98      421377.32     1.76206368E-03  7.6611077    
 1.47785673E-06 4.93358930E-09  429736.30      429728.63     1.80833997E-03  7.6670652    
 1.48775696E-06 4.96663964E-09  438641.46      438633.80     1.85913130E-03  7.6594333    
 1.49772351E-06 4.99991138E-09  447387.04      447379.37     1.90841146E-03  7.6636768    
 1.50775683E-06 5.03340601E-09  456397.25      456389.59     1.95976624E-03  7.6647771    
 1.51785736E-06 5.06712502E-09  465761.48      465753.81     2.01400603E-03  7.6602661    
 1.52802556E-06 5.10106992E-09  474992.55      474984.88     2.06690547E-03  7.6662333    
 1.53826187E-06 5.13524222E-09  484767.09      484759.42     2.12435886E-03  7.6607484    
 1.54856676E-06 5.16964344E-09  494501.34      494493.67     2.18128168E-03  7.6628394    
 1.55894067E-06 5.20427512E-09  504389.42      504381.75     2.23934923E-03  7.6660926    
 1.56938409E-06 5.23913879E-09  514809.98      514802.31     2.30197026E-03  7.6594232    
 1.57989746E-06 5.27423602E-09  525013.44      525005.77     2.36244073E-03  7.6654000    
 1.59048127E-06 5.30956836E-09  535741.74      535734.08     2.42742382E-03  7.6620636    
 1.60113597E-06 5.34513740E-09  546575.80      546568.14     2.49316639E-03  7.6620007    
 1.61186206E-06 5.38094472E-09  557426.76      557419.09     2.55881737E-03  7.6674083    
 1.62265999E-06 5.41699191E-09  569022.16      569014.50     2.63110651E-03  7.6585789    
 1.63353026E-06 5.45328058E-09  580300.40      580292.74     2.70023153E-03  7.6645654    
 1.64447336E-06 5.48981235E-09  592074.99      592067.32     2.77372399E-03  7.6633789    
 1.65548976E-06 5.52658885E-09  604132.42      604124.75     2.84964363E-03  7.6611605    
 1.66657996E-06 5.56361172E-09  616104.47      616096.80     2.92448182E-03  7.6671175    
 1.67774445E-06 5.60088261E-09  628875.94      628868.28     3.00667580E-03  7.6593506    
 1.68898374E-06 5.63840317E-09  641407.61      641399.94     3.08631935E-03  7.6637294    
 1.70029832E-06 5.67617509E-09  654329.90      654322.23     3.16942720E-03  7.6646944    
 1.71168869E-06 5.71420004E-09  667748.07      667740.41     3.25708891E-03  7.6603191    
 1.72315537E-06 5.75247973E-09  680981.12      680973.46     3.34263806E-03  7.6662856    
 1.73469887E-06 5.79101585E-09  694999.31      694991.65     3.43561357E-03  7.6606657    
 1.74631969E-06 5.82981012E-09  708947.51      708939.84     3.52760941E-03  7.6628921    
 1.75801837E-06 5.86886429E-09  723128.69      723121.02     3.62158118E-03  7.6660099    
 1.76979541E-06 5.90818007E-09  738060.33      738052.67     3.72278925E-03  7.6594762    
 1.78165135E-06 5.94775924E-09  752687.14      752679.47     3.82058226E-03  7.6654524    
 1.79358672E-06 5.98760354E-09  768073.03      768065.36     3.92574350E-03  7.6619809    
 1.80560203E-06 6.02771477E-09  783596.96      783589.29     4.03199417E-03  7.6620534    
 1.81769784E-06 6.06809470E-09  799158.92      799151.24     4.13823901E-03  7.6673255    
 1.82987468E-06 6.10874514E-09  815773.80      815766.14     4.25507345E-03  7.6586321    
 1.84213310E-06 6.14966790E-09  831941.10      831933.43     4.36686259E-03  7.6646179    
 1.85447363E-06 6.19086481E-09  848827.33      848819.66     4.48579512E-03  7.6632962    
 1.86689683E-06 6.23233769E-09  866103.99      866096.32     4.60849447E-03  7.6612134    
 1.87940326E-06 6.27408840E-09  883265.72      883258.05     4.72952292E-03  7.6671697    
 1.89199346E-06 6.31611880E-09  901581.21      901573.55     4.86253459E-03  7.6592679    
 1.90466801E-06 6.35843077E-09  919537.14      919529.47     4.99124937E-03  7.6637820    
 1.91742747E-06 6.40102618E-09  938069.12      938061.45     5.12574325E-03  7.6646116    
 1.93027240E-06 6.44390694E-09  957295.30      957287.64     5.26742082E-03  7.6603720    
 1.94320339E-06 6.48707497E-09  976264.38      976256.71     5.40577102E-03  7.6663380    
 1.95622099E-06 6.53053217E-09  996367.56      996359.89     5.55623090E-03  7.6605830    
 1.96932581E-06 6.57428050E-09  1016352.9      1016345.2     5.70490976E-03  7.6629448    
 1.98251841E-06 6.61832191E-09  1036690.1      1036682.4     5.85698570E-03  7.6659272    
 1.99579939E-06 6.66265834E-09  1058084.5      1058076.8     6.02055782E-03  7.6595293    
 2.00916934E-06 6.70729179E-09  1079051.2      1079043.5     6.17870874E-03  7.6655049    
 2.02262885E-06 6.75222424E-09  1101115.5      1101107.8     6.34888945E-03  7.6618982    
 2.03617854E-06 6.79745770E-09  1123358.3      1123350.6     6.52060748E-03  7.6621062    
 2.04981899E-06 6.84299417E-09  1145675.3      1145667.7     6.69254618E-03  7.6672428    
 2.06355082E-06 6.88883570E-09  1169481.3      1169473.6     6.88137484E-03  7.6586852    
 2.07737464E-06 6.93498432E-09  1192655.8      1192648.1     7.06216025E-03  7.6646704    
 2.09129106E-06 6.98144209E-09  1216871.4      1216863.7     7.25462792E-03  7.6632135    
 2.10530072E-06 7.02821109E-09  1241625.1      1241617.5     7.45293106E-03  7.6612663    
 2.11940422E-06 7.07529339E-09  1266224.8      1266217.2     7.64865822E-03  7.6672220    
 2.13360221E-06 7.12269110E-09  1292489.5      1292481.8     7.86390600E-03  7.6591853    
 2.14789530E-06 7.17040633E-09  1318216.1      1318208.4     8.07192612E-03  7.6638346    
 2.16228415E-06 7.21844121E-09  1344791.5      1344783.8     8.28957791E-03  7.6645289    
 2.17676939E-06 7.26679787E-09  1372338.1      1372330.4     8.51855469E-03  7.6604250    
 2.19135167E-06 7.31547848E-09  1399528.0      1399520.3     8.74229447E-03  7.6663903    
 2.20603163E-06 7.36448520E-09  1428355.8      1428348.2     8.98577938E-03  7.6605003    
 2.22080994E-06 7.41382021E-09  1456989.7      1456982.0     9.22606590E-03  7.6739752    
 2.23568724E-06 7.46348573E-09  1486153.5      1486145.7     9.47217224E-03  7.7950912    
 2.25066421E-06 7.51348396E-09  1516806.5      1516798.5     9.73653641E-03  8.0187129    
 2.26574151E-06 7.56381713E-09  1546859.4      1546851.1     9.99229781E-03  8.2347037    
 2.28091982E-06 7.61448748E-09  1578499.3      1578490.9     1.02676979E-02  8.4630254    
 2.29619980E-06 7.66549727E-09  1610367.2      1610358.5     1.05452211E-02  8.6882684    
 2.31158215E-06 7.71684879E-09  1642370.0      1642361.1     1.08234733E-02  8.9101509    
 2.32706754E-06 7.76854430E-09  1676477.4      1676468.3     1.11286589E-02  9.1496129    
 2.34265667E-06 7.82058613E-09  1709694.4      1709685.0     1.14210247E-02  9.3876713    
 2.35835023E-06 7.87297659E-09  1744418.8      1744409.1     1.17324931E-02  9.6439043    
 2.37414893E-06 7.92571802E-09  1779883.7      1779873.8     1.20529842E-02  9.9024758    
 2.39005346E-06 7.97881276E-09  1815143.1      1815132.9     1.23695136E-02  10.153411    
 2.40606454E-06 8.03226319E-09  1852804.8      1852794.3     1.27178403E-02  10.423039    
 2.42218287E-06 8.08607168E-09  1889662.8      1889652.2     1.30540277E-02  10.678904    
 2.43840918E-06 8.14024064E-09  1927770.6      1927759.6     1.34062534E-02  10.944325    
 2.45474420E-06 8.19477248E-09  1967236.1      1967224.8     1.37763208E-02  11.233046    
 2.47118864E-06 8.24966963E-09  2006207.4      2006195.8     1.41381520E-02  11.517740    
 2.48774324E-06 8.30493454E-09  2047543.9      2047532.1     1.45321758E-02  11.821111    
 2.50440875E-06 8.36056967E-09  2088566.4      2088554.3     1.49205127E-02  12.114616    
 2.52118589E-06 8.41657750E-09  2130385.1      2130372.7     1.53187888E-02  12.410213    
 2.53807543E-06 8.47296053E-09  2174299.9      2174287.2     1.57460515E-02  12.719275    
 2.55507811E-06 8.52972128E-09  2217373.6      2217360.6     1.61596677E-02  13.019253    
 2.57219470E-06 8.58686227E-09  2262741.4      2262728.1     1.66053414E-02  13.352247    
 2.58942595E-06 8.64438604E-09  2308396.1      2308382.4     1.70538612E-02  13.688834    
 2.60677263E-06 8.70229518E-09  2354284.8      2354270.7     1.75041619E-02  14.021233    
 2.62423551E-06 8.76059224E-09  2403147.7      2403133.3     1.79974031E-02  14.375492    
 2.64181539E-06 8.81927985E-09  2450755.4      2450740.7     1.84702154E-02  14.710871    
 2.65951303E-06 8.87836060E-09  2500545.2      2500530.1     1.89742605E-02  15.059964    
 2.67732922E-06 8.93783714E-09  2551352.0      2551336.6     1.94922268E-02  15.418676    
 2.69526477E-06 8.99771211E-09  2601886.4      2601870.5     2.00041162E-02  15.787224    
 2.71332047E-06 9.05798819E-09  2655886.4      2655870.1     2.05677979E-02  16.189636    
 2.73149713E-06 9.11866806E-09  2708688.3      2708671.7     2.11111188E-02  16.572071    
 2.74979555E-06 9.17975443E-09  2763328.4      2763311.4     2.16811241E-02  16.964895    
 2.76821656E-06 9.24125002E-09  2819865.4      2819848.0     2.22792179E-02  17.367154    
 2.78676096E-06 9.30315757E-09  2875718.5      2875700.7     2.28643688E-02  17.756512    
 2.80542960E-06 9.36547984E-09  2934986.6      2934968.4     2.35020036E-02  18.177735    
 2.82422330E-06 9.42821962E-09  2993753.2      2993734.5     2.41296093E-02  18.610906    
 2.84314290E-06 9.49137968E-09  3053713.2      3053694.1     2.47741415E-02  19.052716    
 2.86218924E-06 9.55496287E-09  3116622.9      3116603.3     2.54646775E-02  19.513516    
 2.88136318E-06 9.61897199E-09  3178354.1      3178334.1     2.61335745E-02  19.955059    
 2.90066556E-06 9.68340992E-09  3243401.1      3243380.6     2.68547963E-02  20.418066    
 2.92009725E-06 9.74827952E-09  3308802.1      3308781.2     2.75796711E-02  20.876098    
 2.93965911E-06 9.81358368E-09  3374596.5      3374575.2     2.83083994E-02  21.341495    
 2.95935202E-06 9.87932532E-09  3444593.1      3444571.2     2.91055741E-02  21.864790    
 2.97917685E-06 9.94550737E-09  3512820.7      3512798.3     2.98702023E-02  22.365616    
 2.99913449E-06 1.00121328E-08  3584206.5      3584183.6     3.06858896E-02  22.886772    
 3.01922583E-06 1.00792045E-08  3656986.5      3656963.0     3.15230060E-02  23.410457    
 3.03945176E-06 1.01467255E-08  3729407.4      3729383.4     3.23508289E-02  23.922560    
 3.05981319E-06 1.02146989E-08  3806827.2      3806802.7     3.32630078E-02  24.467459    
 3.08031101E-06 1.02831276E-08  3882463.7      3882438.7     3.41410802E-02  25.007275    
 3.10094616E-06 1.03520148E-08  3960802.2      3960776.6     3.50635150E-02  25.590126    
 3.12171953E-06 1.04213634E-08  4041788.7      4041762.4     3.60301370E-02  26.189678    
 3.14263207E-06 1.04911766E-08  4121830.1      4121803.3     3.69764372E-02  26.770422    
 3.16368471E-06 1.05614574E-08  4206801.1      4206773.7     3.80082963E-02  27.383800    
 3.18487837E-06 1.06322091E-08  4290979.8      4290951.8     3.90225907E-02  27.979773    
 3.20621402E-06 1.07034348E-08  4376943.9      4376915.2     4.00656378E-02  28.581245    
 3.22769259E-06 1.07751376E-08  4467056.7      4467027.4     4.11816695E-02  29.233199    
 3.24931505E-06 1.08473207E-08  4555519.8      4555489.8     4.22634023E-02  29.889998    
 3.27108236E-06 1.09199874E-08  4648774.0      4648743.4     4.34305334E-02  30.580637    
 3.29299549E-06 1.09931409E-08  4742453.8      4742422.5     4.46020359E-02  31.262409    
 3.31505541E-06 1.10667844E-08  4836780.9      4836748.9     4.57813446E-02  31.939132    
 3.33726312E-06 1.11409213E-08  4937042.5      4937009.8     4.70697322E-02  32.652724    
 3.35961959E-06 1.12155548E-08  5034812.6      5034779.2     4.83062796E-02  33.337371    
 3.38212584E-06 1.12906884E-08  5137152.4      5137118.2     4.96262886E-02  34.080024    
 3.40478285E-06 1.13663252E-08  5241399.1      5241364.2     5.09791991E-02  34.858451    
 3.42759164E-06 1.14424687E-08  5345176.6      5345140.9     5.23179437E-02  35.621706    
 3.45055323E-06 1.15191223E-08  5456163.2      5456126.7     5.37940749E-02  36.433690    
 3.47366865E-06 1.15962894E-08  5564499.7      5564462.4     5.52131424E-02  37.209901    
 3.49693891E-06 1.16739735E-08  5676804.6      5676766.5     5.67059069E-02  38.006590    
 3.52036506E-06 1.17521780E-08  5792802.9      5792764.0     5.82681291E-02  38.823910    
 3.54394814E-06 1.18309064E-08  5907497.3      5907457.5     5.97984726E-02  39.658208    
 3.56768921E-06 1.19101621E-08  6029306.4      6029265.8     6.14682848E-02  40.570600    
 3.59158932E-06 1.19899488E-08  6149875.0      6149833.5     6.31075148E-02  41.458042    
 3.61564954E-06 1.20702701E-08  6273109.1      6273066.7     6.47954742E-02  42.354610    
 3.63987094E-06 1.21511293E-08  6402175.8      6402132.4     6.65991792E-02  43.283579    
 3.66425460E-06 1.22325303E-08  6528934.4      6528890.1     6.83485415E-02  44.180395    
 3.68880161E-06 1.23144766E-08  6662614.7      6662569.5     7.02372684E-02  45.124490    
 3.71351306E-06 1.23969718E-08  6796787.9      6796741.7     7.21305801E-02  46.109670    
 3.73839005E-06 1.24800197E-08  6932007.8      6931960.6     7.40390625E-02  47.116229    
 3.76343369E-06 1.25636239E-08  7075606.4      7075558.1     7.61213383E-02  48.179126    
 3.78864510E-06 1.26477882E-08  7215697.1      7215647.8     7.81210631E-02  49.195539    
 3.81402541E-06 1.27325163E-08  7362398.2      7362347.8     8.02571984E-02  50.250029    
 3.83957574E-06 1.28178120E-08  7511701.4      7511650.1     8.24437059E-02  51.307800    
 3.86529723E-06 1.29036791E-08  7660397.2      7660344.8     8.46087011E-02  52.357782    
 3.89119103E-06 1.29901214E-08  7819487.7      7819434.1     8.69974396E-02  53.535092    
 3.91725829E-06 1.30771428E-08  7974645.6      7974590.9     8.92908113E-02  54.689935    
 3.94350018E-06 1.31647472E-08  8135627.6      8135571.7     9.17065256E-02  55.876945    
 3.96991787E-06 1.32529384E-08  8301756.7      8301699.6     9.42313291E-02  57.086268    
 3.99651253E-06 1.33417205E-08  8466089.7      8466031.3     9.67061730E-02  58.263955    
 4.02328535E-06 1.34310972E-08  8640688.9      8640629.3     9.94083483E-02  59.502127    
 4.05023752E-06 1.35210728E-08  8813360.1      8813299.3     0.10205755      60.728879    
 4.07737024E-06 1.36116511E-08  8990004.1      8989941.9     0.10478916      62.034271    
 4.10468473E-06 1.37028361E-08  9174843.5      9174780.0     0.10770425      63.417471    
 4.13218219E-06 1.37946320E-08  9356456.4      9356391.5     0.11053329      64.751938    
