 OPTXAGNF AGN Spectrum Model Parameters: BLS, Astar 0.0                          
 M_BH:  3.0000E+06 M_0            L  :  0.1000     L/Ledd 
 D   :  1.5000E+18 cm             z  :   0.000     redshift 
 Rcor:   60.00     Rg             Ro :   4.000     Rg 
 C_T :  0.2000     keV            Tau:   15.00     Optical Depth 
 gam :   1.800     (-slope)       fpl:  0.5000     Fraction 
 E              0.5DeltaE      E.FE total     E.FE Disk      E.FE Compton   E.FE NonThermal
 (keV)          (keV)          E.E/cm2/s/E    E.E/cm2/s/E    E.E/cm2/s/E    E.E/cm2/s/E    
 1.00334952E-06 3.34952256E-09  90325.856      90324.575     1.27436011E-03  1.2797253    
 1.01007101E-06 3.37196116E-09  92116.285      92115.003     1.30784127E-03  1.2807261    
 1.01683752E-06 3.39455008E-09  93982.175      93980.893     1.34334154E-03  1.2806182    
 1.02364936E-06 3.41729032E-09  95899.595      95898.314     1.38020716E-03  1.2801569    
 1.03050683E-06 3.44018290E-09  97800.177      97798.894     1.41645552E-03  1.2811527    
 1.03741024E-06 3.46322884E-09  99824.126      99822.845     1.45616196E-03  1.2799451    
 1.04435990E-06 3.48642917E-09  101817.05      101815.77     1.49483950E-03  1.2805863    
 1.05135611E-06 3.50978492E-09  103864.81      103863.52     1.53498341E-03  1.2808380    
 1.05839920E-06 3.53329712E-09  105998.61      105997.33     1.57754954E-03  1.2800162    
 1.06548946E-06 3.55696684E-09  108099.40      108098.11     1.61898579E-03  1.2814162    
 1.07262722E-06 3.58079512E-09  110320.93      110319.63     1.66389948E-03  1.2939050    
 1.07981280E-06 3.60478303E-09  112539.15      112537.82     1.70857426E-03  1.3274622    
 1.08704652E-06 3.62893164E-09  114786.43      114785.06     1.75396460E-03  1.3639166    
 1.09432869E-06 3.65324201E-09  117160.94      117159.53     1.80310701E-03  1.4025999    
 1.10165965E-06 3.67771524E-09  119483.05      119481.61     1.85047360E-03  1.4391337    
 1.10903971E-06 3.70235243E-09  121921.34      121919.86     1.90127259E-03  1.4775483    
 1.11646922E-06 3.72715465E-09  124390.15      124388.63     1.95286812E-03  1.5158741    
 1.12394850E-06 3.75212303E-09  126856.23      126854.67     2.00418522E-03  1.5546622    
 1.13147788E-06 3.77725867E-09  129498.41      129496.81     2.06091348E-03  1.5987980    
 1.13905770E-06 3.80256270E-09  132065.11      132063.47     2.11505912E-03  1.6403019    
 1.14668830E-06 3.82803623E-09  134741.17      134739.48     2.17250898E-03  1.6835085    
 1.15437002E-06 3.85368042E-09  137488.71      137486.98     2.23209016E-03  1.7273546    
 1.16210319E-06 3.87949640E-09  140213.29      140211.52     2.29071090E-03  1.7697979    
 1.16988818E-06 3.90548532E-09  143115.98      143114.16     2.35496635E-03  1.8153147    
 1.17772531E-06 3.93164835E-09  145971.67      145969.80     2.41747443E-03  1.8608351    
 1.18561494E-06 3.95798663E-09  148908.53      148906.62     2.48243944E-03  1.9092154    
 1.19355743E-06 3.98450137E-09  151966.10      151964.14     2.55123410E-03  1.9595141    
 1.20155313E-06 4.01119372E-09  154977.65      154975.64     2.61824464E-03  2.0077122    
 1.20960239E-06 4.03806489E-09  158163.65      158161.59     2.69092720E-03  2.0587503    
 1.21770557E-06 4.06511607E-09  161342.09      161339.98     2.76312814E-03  2.1085477    
 1.22586303E-06 4.09234846E-09  164565.02      164562.86     2.83658391E-03  2.1585198    
 1.23407514E-06 4.11976329E-09  167967.41      167965.19     2.91600757E-03  2.2138348    
 1.24234227E-06 4.14736177E-09  171296.13      171293.86     2.99260861E-03  2.2685004    
 1.25066478E-06 4.17514513E-09  174792.93      174790.60     3.07481563E-03  2.3259240    
 1.25904304E-06 4.20311462E-09  178330.39      178328.00     3.15820211E-03  2.3830104    
 1.26747742E-06 4.23127147E-09  181867.08      181864.64     3.24124974E-03  2.4390253    
 1.27596831E-06 4.25961695E-09  185652.96      185650.46     3.33293422E-03  2.4990135    
 1.28451608E-06 4.28815232E-09  189332.25      189329.69     3.42049825E-03  2.5561032    
 1.29312111E-06 4.31687884E-09  193169.98      193167.36     3.51346877E-03  2.6184239    
 1.30178379E-06 4.34579781E-09  197106.78      197104.09     3.60976200E-03  2.6838583    
 1.31050450E-06 4.37491051E-09  201012.36      201009.61     3.70456312E-03  2.7473521    
 1.31928362E-06 4.40421823E-09  205175.02      205172.20     3.80854507E-03  2.8150442    
 1.32812156E-06 4.43372228E-09  209266.71      209263.82     3.90956627E-03  2.8799437    
 1.33701871E-06 4.46342399E-09  213478.42      213475.47     4.01469909E-03  2.9461115    
 1.34597546E-06 4.49332467E-09  217859.37      217856.35     4.12588361E-03  3.0148659    
 1.35499221E-06 4.52342565E-09  222176.24      222173.15     4.23425260E-03  3.0850913    
 1.36406936E-06 4.55372829E-09  226745.13      226741.97     4.35187245E-03  3.1612631    
 1.37320733E-06 4.58423392E-09  231299.20      231295.96     4.46855942E-03  3.2355956    
 1.38240650E-06 4.61494391E-09  235921.12      235917.80     4.58743354E-03  3.3100337    
 1.39166731E-06 4.64585962E-09  240796.07      240792.67     4.71579729E-03  3.3880819    
 1.40099015E-06 4.67698245E-09  245567.51      245564.04     4.83967589E-03  3.4627617    
 1.41037545E-06 4.70831376E-09  250582.04      250578.49     4.97270961E-03  3.5416737    
 1.41982361E-06 4.73985497E-09  255650.44      255646.81     5.10747496E-03  3.6251283    
 1.42933508E-06 4.77160747E-09  260722.25      260718.53     5.24187248E-03  3.7087732    
 1.43891026E-06 4.80357269E-09  266146.59      266142.79     5.39005299E-03  3.7981657    
 1.44854958E-06 4.83575204E-09  271420.45      271416.56     5.53166080E-03  3.8828729    
 1.45825348E-06 4.86814696E-09  276923.84      276919.86     5.68211369E-03  3.9706395    
 1.46802239E-06 4.90075889E-09  282564.31      282560.24     5.83773940E-03  4.0593884    
 1.47785673E-06 4.93358930E-09  288162.48      288158.33     5.99105087E-03  4.1474307    
 1.48775696E-06 4.96663964E-09  294131.67      294127.42     6.15932022E-03  4.2465615    
 1.49772351E-06 4.99991138E-09  299993.99      299989.64     6.32258319E-03  4.3433386    
 1.50775683E-06 5.03340601E-09  306033.60      306029.15     6.49271915E-03  4.4420975    
 1.51785736E-06 5.06712502E-09  312310.35      312305.80     6.67241283E-03  4.5436750    
 1.52802556E-06 5.10106992E-09  318497.95      318493.30     6.84766605E-03  4.6418974    
 1.53826187E-06 5.13524222E-09  325049.58      325044.83     7.03800601E-03  4.7451498    
 1.54856676E-06 5.16964344E-09  331574.26      331569.41     7.22658820E-03  4.8488181    
 1.55894067E-06 5.20427512E-09  338202.01      338197.04     7.41896276E-03  4.9582166    
 1.56938409E-06 5.23913879E-09  345186.42      345181.34     7.62642245E-03  5.0745052    
 1.57989746E-06 5.27423602E-09  352025.46      352020.27     7.82675755E-03  5.1858727    
 1.59048127E-06 5.30956836E-09  359216.04      359210.73     8.04204240E-03  5.3021550    
 1.60113597E-06 5.34513740E-09  366477.48      366472.06     8.25984327E-03  5.4177284    
 1.61186206E-06 5.38094472E-09  373750.28      373744.74     8.47734073E-03  5.5318224    
 1.62265999E-06 5.41699191E-09  381521.67      381516.00     8.71682952E-03  5.6564552    
 1.63353026E-06 5.45328058E-09  389080.70      389074.91     8.94583596E-03  5.7816000    
 1.64447336E-06 5.48981235E-09  396972.17      396966.24     9.18931111E-03  5.9124828    
 1.65548976E-06 5.52658885E-09  405053.08      405047.03     9.44082717E-03  6.0446936    
 1.66657996E-06 5.56361172E-09  413076.86      413070.68     9.68876050E-03  6.1737835    
 1.67774445E-06 5.60088261E-09  421636.02      421629.70     9.96106252E-03  6.3104361    
 1.68898374E-06 5.63840317E-09  430034.63      430028.17     1.02249153E-02  6.4423681    
 1.70029832E-06 5.67617509E-09  438694.86      438688.27     1.05002448E-02  6.5811552    
 1.71168869E-06 5.71420004E-09  447687.20      447680.45     1.07906604E-02  6.7313528    
 1.72315537E-06 5.75247973E-09  456555.62      456548.73     1.10740775E-02  6.8776748    
 1.73469887E-06 5.79101585E-09  465949.81      465942.77     1.13820969E-02  7.0316236    
 1.74631969E-06 5.82981012E-09  475297.18      475289.99     1.16868708E-02  7.1821106    
 1.75801837E-06 5.86886429E-09  484800.61      484793.26     1.19981906E-02  7.3332282    
 1.76979541E-06 5.90818007E-09  494806.56      494799.05     1.23334831E-02  7.4909908    
 1.78165135E-06 5.94775924E-09  504608.47      504600.80     1.26574620E-02  7.6488256    
 1.79358672E-06 5.98760354E-09  514918.66      514910.83     1.30058506E-02  7.8212227    
 1.80560203E-06 6.02771477E-09  525321.34      525313.33     1.33578482E-02  7.9932899    
 1.81769784E-06 6.06809470E-09  535749.54      535741.36     1.37098265E-02  8.1632735    
 1.82987468E-06 6.10874514E-09  546882.72      546874.36     1.40968863E-02  8.3431966    
 1.84213310E-06 6.14966790E-09  557716.31      557707.78     1.44672318E-02  8.5151016    
 1.85447363E-06 6.19086481E-09  569031.27      569022.56     1.48612420E-02  8.6932719    
 1.86689683E-06 6.23233769E-09  580607.67      580598.78     1.52677310E-02  8.8814775    
 1.87940326E-06 6.27408840E-09  592107.22      592098.13     1.56686845E-02  9.0731277    
 1.89199346E-06 6.31611880E-09  604379.20      604369.90     1.61093362E-02  9.2768523    
 1.90466801E-06 6.35843077E-09  616410.53      616401.04     1.65357529E-02  9.4727523    
 1.91742747E-06 6.40102618E-09  628827.57      628817.88     1.69813148E-02  9.6727654    
 1.93027240E-06 6.44390694E-09  641709.37      641699.47     1.74506747E-02  9.8775916    
 1.94320339E-06 6.48707497E-09  654419.14      654409.05     1.79090116E-02  10.077488    
 1.95622099E-06 6.53053217E-09  667888.14      667877.82     1.84074654E-02  10.297796    
 1.96932581E-06 6.57428050E-09  681278.33      681267.79     1.89000190E-02  10.521688    
 1.98251841E-06 6.61832191E-09  694904.11      694893.35     1.94038263E-02  10.746727    
 1.99579939E-06 6.66265834E-09  709237.65      709226.65     1.99457180E-02  10.980948    
 2.00916934E-06 6.70729179E-09  723284.95      723273.72     2.04696504E-02  11.206645    
 2.02262885E-06 6.75222424E-09  738067.00      738055.53     2.10334347E-02  11.441605    
 2.03617854E-06 6.79745770E-09  752968.57      752956.87     2.16023118E-02  11.676575    
 2.04981899E-06 6.84299417E-09  767920.00      767908.06     2.21719199E-02  11.921708    
 2.06355082E-06 6.88883570E-09  783867.94      783855.73     2.27974805E-02  12.189589    
 2.07737464E-06 6.93498432E-09  799393.41      799380.94     2.33963955E-02  12.445310    
 2.09129106E-06 6.98144209E-09  815615.73      815603.00     2.40340111E-02  12.709923    
 2.10530072E-06 7.02821109E-09  832198.28      832185.28     2.46909582E-02  12.976617    
 2.11940422E-06 7.07529339E-09  848677.86      848664.60     2.53393715E-02  13.238073    
 2.13360221E-06 7.12269110E-09  866271.71      866258.17     2.60524520E-02  13.516450    
 2.14789530E-06 7.17040633E-09  883505.64      883491.81     2.67415888E-02  13.801247    
 2.16228415E-06 7.21844121E-09  901307.69      901293.56     2.74626328E-02  14.098800    
 2.17676939E-06 7.26679787E-09  919759.71      919745.27     2.82211936E-02  14.403670    
 2.19135167E-06 7.31547848E-09  937973.20      937958.47     2.89624055E-02  14.699888    
 2.20603163E-06 7.36448520E-09  957282.78      957267.74     2.97690278E-02  15.010566    
 2.22080994E-06 7.41382021E-09  976462.68      976447.34     3.05650545E-02  15.314521    
 2.23568724E-06 7.46348573E-09  995997.27      995981.62     3.13803607E-02  15.624360    
 2.25066421E-06 7.51348396E-09  1016528.3      1016512.3     3.22561500E-02  15.965817    
 2.26574151E-06 7.56381713E-09  1036658.0      1036641.6     3.31034406E-02  16.301278    
 2.28091982E-06 7.61448748E-09  1057849.6      1057832.9     3.40157888E-02  16.651270    
 2.29619980E-06 7.66549727E-09  1079193.8      1079176.8     3.49351698E-02  16.998444    
 2.31158215E-06 7.71684879E-09  1100628.5      1100611.1     3.58569659E-02  17.342638    
 2.32706754E-06 7.76854430E-09  1123471.3      1123453.6     3.68679846E-02  17.704708    
 2.34265667E-06 7.82058613E-09  1145718.6      1145700.5     3.78365345E-02  18.059737    
 2.35835023E-06 7.87297659E-09  1168974.5      1168956.0     3.88683661E-02  18.446586    
 2.37414893E-06 7.92571802E-09  1192725.9      1192707.0     3.99300869E-02  18.843335    
 2.39005346E-06 7.97881276E-09  1216340.0      1216320.7     4.09786835E-02  19.232007    
 2.40606454E-06 8.03226319E-09  1241561.2      1241541.6     4.21326149E-02  19.642756    
 2.42218287E-06 8.08607168E-09  1266245.1      1266225.1     4.32463321E-02  20.038456    
 2.43840918E-06 8.14024064E-09  1291765.1      1291744.6     4.44131793E-02  20.442740    
 2.45474420E-06 8.19477248E-09  1318193.4      1318172.5     4.56391305E-02  20.866819    
 2.47118864E-06 8.24966963E-09  1344291.4      1344270.0     4.68377971E-02  21.301426    
 2.48774324E-06 8.30493454E-09  1371971.5      1371949.7     4.81431078E-02  21.764295    
 2.50440875E-06 8.36056967E-09  1399441.9      1399419.6     4.94295792E-02  22.216109    
 2.52118589E-06 8.41657750E-09  1427444.9      1427422.2     5.07489756E-02  22.671169    
 2.53807543E-06 8.47296053E-09  1456850.0      1456826.8     5.21643949E-02  23.142729    
 2.55507811E-06 8.52972128E-09  1485692.9      1485669.2     5.35346076E-02  23.599589    
 2.57219470E-06 8.58686227E-09  1516070.1      1516046.0     5.50110159E-02  24.088413    
 2.58942595E-06 8.64438604E-09  1546639.5      1546614.8     5.64968521E-02  24.600170    
 2.60677263E-06 8.70229518E-09  1577365.6      1577340.4     5.79885876E-02  25.111999    
 2.62423551E-06 8.76059224E-09  1610080.8      1610055.1     5.96225696E-02  25.651128    
 2.64181539E-06 8.81927985E-09  1641957.0      1641930.7     6.11888777E-02  26.168052    
 2.65951303E-06 8.87836060E-09  1675292.5      1675265.7     6.28586487E-02  26.702360    
 2.67732922E-06 8.93783714E-09  1709308.3      1709281.0     6.45745351E-02  27.241128    
 2.69526477E-06 8.99771211E-09  1743142.2      1743114.4     6.62702909E-02  27.787250    
 2.71332047E-06 9.05798819E-09  1779293.6      1779265.1     6.81376151E-02  28.395294    
 2.73149713E-06 9.11866806E-09  1814644.3      1814615.2     6.99374911E-02  28.983092    
 2.74979555E-06 9.17975443E-09  1851224.3      1851194.6     7.18257623E-02  29.584676    
 2.76821656E-06 9.24125002E-09  1889072.7      1889042.4     7.38070798E-02  30.198697    
 2.78676096E-06 9.30315757E-09  1926464.3      1926433.4     7.57455218E-02  30.797316    
 2.80542960E-06 9.36547984E-09  1966139.1      1966107.6     7.78578224E-02  31.425397    
 2.82422330E-06 9.42821962E-09  2005479.1      2005446.9     7.99369002E-02  32.065517    
 2.84314290E-06 9.49137968E-09  2045617.3      2045584.4     8.20720482E-02  32.739462    
 2.86218924E-06 9.55496287E-09  2087727.5      2087693.9     8.43595880E-02  33.441300    
 2.88136318E-06 9.61897199E-09  2129050.4      2129016.2     8.65754461E-02  34.119314    
 2.90066556E-06 9.68340992E-09  2172590.0      2172555.1     8.89646347E-02  34.825457    
 2.92009725E-06 9.74827952E-09  2216366.6      2216331.0     9.13659234E-02  35.525337    
 2.93965911E-06 9.81358368E-09  2260406.6      2260370.3     9.37799768E-02  36.222215    
 2.95935202E-06 9.87932532E-09  2307255.5      2307218.5     9.64207637E-02  36.989389    
 2.97917685E-06 9.94550737E-09  2352922.7      2352884.9     9.89537372E-02  37.756915    
 2.99913449E-06 1.00121328E-08  2400701.0      2400662.4     0.10165585      38.552202    
 3.01922583E-06 1.00792045E-08  2449411.4      2449372.0     0.10442894      39.351505    
 3.03945176E-06 1.01467255E-08  2497882.5      2497842.2     0.10717125      40.136623    
 3.05981319E-06 1.02146989E-08  2549694.5      2549653.4     0.11019299      40.964481    
 3.08031101E-06 1.02831276E-08  2600315.3      2600273.5     0.11310176      41.766461    
 3.10094616E-06 1.03520148E-08  2652742.3      2652699.5     0.11615747      42.628591    
 3.12171953E-06 1.04213634E-08  2706939.0      2706895.4     0.11935956      43.541662    
 3.14263207E-06 1.04911766E-08  2760504.9      2760460.4     0.12249432      44.430857    
 3.16368471E-06 1.05614574E-08  2817365.1      2817319.6     0.12591251      45.364156    
 3.18487837E-06 1.06322091E-08  2873696.5      2873650.1     0.12927251      46.275171    
 3.20621402E-06 1.07034348E-08  2931221.3      2931174.0     0.13272775      47.194364    
 3.22769259E-06 1.07751376E-08  2991518.4      2991470.1     0.13642476      48.151334    
 3.24931505E-06 1.08473207E-08  3050714.0      3050664.8     0.14000814      49.130786    
 3.27108236E-06 1.09199874E-08  3113111.0      3113060.7     0.14387442      50.181041    
 3.29299549E-06 1.09931409E-08  3175793.0      3175741.6     0.14775517      51.221213    
 3.31505541E-06 1.10667844E-08  3238908.0      3238855.6     0.15166177      52.255460    
 3.33726312E-06 1.11409213E-08  3305987.8      3305934.3     0.15592970      53.340113    
 3.35961959E-06 1.12155548E-08  3371404.1      3371349.6     0.16002591      54.383943    
 3.38212584E-06 1.12906884E-08  3439873.4      3439817.8     0.16439858      55.473989    
 3.40478285E-06 1.13663252E-08  3509617.1      3509560.3     0.16888024      56.634864    
 3.42759164E-06 1.14424687E-08  3579048.4      3578990.4     0.17331497      57.799879    
 3.45055323E-06 1.15191223E-08  3653295.0      3653235.8     0.17820480      59.033543    
 3.47366865E-06 1.15962894E-08  3725772.6      3725712.2     0.18290559      60.218979    
 3.49693891E-06 1.16739735E-08  3800901.2      3800839.6     0.18785051      61.433323    
 3.52036506E-06 1.17521780E-08  3878497.1      3878434.2     0.19302550      62.669654    
 3.54394814E-06 1.18309064E-08  3955223.2      3955159.1     0.19809489      63.896761    
 3.56768921E-06 1.19101621E-08  4036701.0      4036635.6     0.20362626      65.257309    
 3.59158932E-06 1.19899488E-08  4117351.5      4117284.7     0.20905633      66.610472    
 3.61564954E-06 1.20702701E-08  4199782.8      4199714.6     0.21464781      67.977207    
 3.63987094E-06 1.21511293E-08  4286109.2      4286039.6     0.22062269      69.389673    
 3.66425460E-06 1.22325303E-08  4370895.7      4370824.7     0.22641756      70.758439    
 3.68880161E-06 1.23144766E-08  4460304.3      4460231.9     0.23267407      72.182529    
 3.71351306E-06 1.23969718E-08  4550042.9      4549969.1     0.23894576      73.625618    
 3.73839005E-06 1.24800197E-08  4640481.7      4640406.3     0.24526770      75.136714    
 3.76343369E-06 1.25636239E-08  4736514.6      4736437.6     0.25216531      76.751421    
 3.78864510E-06 1.26477882E-08  4830207.1      4830128.6     0.25878947      78.301513    
 3.81402541E-06 1.27325163E-08  4928313.3      4928233.1     0.26586549      79.905973    
 3.83957574E-06 1.28178120E-08  5028157.5      5028075.7     0.27310835      81.515811    
 3.86529723E-06 1.29036791E-08  5127597.7      5127514.3     0.28027995      83.100813    
 3.89119103E-06 1.29901214E-08  5233976.6      5233891.4     0.28819267      84.815836    
 3.91725829E-06 1.30771428E-08  5337732.3      5337645.5     0.29578950      86.558043    
 3.94350018E-06 1.31647472E-08  5445376.4      5445287.7     0.30379157      88.364378    
 3.96991787E-06 1.32529384E-08  5556456.6      5556366.0     0.31215498      90.203171    
 3.99651253E-06 1.33417205E-08  5666339.7      5666247.4     0.32035291      91.997904    
 4.02328535E-06 1.34310972E-08  5783074.8      5782980.6     0.32930383      93.879232    
 4.05023752E-06 1.35210728E-08  5898524.9      5898428.9     0.33807927      95.718469    
 4.07737024E-06 1.36116511E-08  6016627.5      6016529.5     0.34712769      97.628949    
 4.10468473E-06 1.37028361E-08  6140199.7      6140099.6     0.35678387      99.713404    
 4.13218219E-06 1.37946320E-08  6261620.9      6261518.8     0.36615499      101.74583    
