 OPTXAGNF AGN Spectrum Model Parameters: NLS, Astar 0.0                          
 M_BH:  3.0000E+06 M_0            L  :  0.3000     L/Ledd 
 D   :  1.5000E+18 cm             z  :   0.000     redshift 
 Rcor:   40.00     Rg             Ro :   4.000     Rg 
 C_T :  0.2000     keV            Tau:   15.00     Optical Depth 
 gam :   2.200     (-slope)       fpl:  0.2000     Fraction 
 E              0.5DeltaE      E.FE total     E.FE Disk      E.FE Compton   E.FE NonThermal
 (keV)          (keV)          E.E/cm2/s/E    E.E/cm2/s/E    E.E/cm2/s/E    E.E/cm2/s/E    
 1.00334952E-06 3.34952256E-09  119647.77      119641.15     1.71466203E-04  6.6161360    
 1.01007101E-06 3.37196116E-09  122019.74      122013.12     1.75971176E-04  6.6213099    
 1.01683752E-06 3.39455008E-09  124491.71      124485.09     1.80747830E-04  6.6207523    
 1.02364936E-06 3.41729032E-09  127031.96      127025.35     1.85708198E-04  6.6183672    
 1.03050683E-06 3.44018290E-09  129549.90      129543.28     1.90585513E-04  6.6235155    
 1.03741024E-06 3.46322884E-09  132231.33      132224.71     1.95928126E-04  6.6172721    
 1.04435990E-06 3.48642917E-09  134871.63      134865.01     2.01132298E-04  6.6205874    
 1.05135611E-06 3.50978492E-09  137584.61      137577.98     2.06533777E-04  6.6218887    
 1.05839920E-06 3.53329712E-09  140411.61      140404.99     2.12261177E-04  6.6176400    
 1.06548946E-06 3.55696684E-09  143194.85      143188.23     2.17836547E-04  6.6227966    
 1.07262722E-06 3.58079512E-09  146138.10      146131.48     2.23879825E-04  6.6184082    
 1.07981280E-06 3.60478303E-09  149076.92      149070.30     2.29890955E-04  6.6198637    
 1.08704652E-06 3.62893164E-09  152054.25      152047.63     2.35998369E-04  6.6230252    
 1.09432869E-06 3.65324201E-09  155200.20      155193.58     2.42610644E-04  6.6169115    
 1.10165965E-06 3.67771524E-09  158276.70      158270.07     2.48983973E-04  6.6220765    
 1.10903971E-06 3.70235243E-09  161507.17      161500.55     2.55819150E-04  6.6195445    
 1.11646922E-06 3.72715465E-09  164778.08      164771.46     2.62761507E-04  6.6191389    
 1.12394850E-06 3.75212303E-09  168045.37      168038.75     2.69666400E-04  6.6241618    
 1.13147788E-06 3.77725867E-09  171546.06      171539.44     2.77299395E-04  6.6161820    
 1.13905770E-06 3.80256270E-09  174946.69      174940.07     2.84584884E-04  6.6213553    
 1.14668830E-06 3.82803623E-09  178492.26      178485.64     2.92314975E-04  6.6206808    
 1.15437002E-06 3.85368042E-09  182132.57      182125.95     3.00331849E-04  6.6184129    
 1.16210319E-06 3.87949640E-09  185742.45      185735.83     3.08219491E-04  6.6235607    
 1.16988818E-06 3.90548532E-09  189588.38      189581.76     3.16865316E-04  6.6172007    
 1.17772531E-06 3.93164835E-09  193372.02      193365.40     3.25276024E-04  6.6206329    
 1.18561494E-06 3.95798663E-09  197263.24      197256.62     3.34017326E-04  6.6218172    
 1.19355743E-06 3.98450137E-09  201314.44      201307.83     3.43273933E-04  6.6176857    
 1.20155313E-06 4.01119372E-09  205304.64      205298.02     3.52290476E-04  6.6228419    
 1.20960239E-06 4.03806489E-09  209526.06      209519.44     3.62070225E-04  6.6183368    
 1.21770557E-06 4.06511607E-09  213737.45      213730.83     3.71785172E-04  6.6199093    
 1.22586303E-06 4.09234846E-09  218007.81      218001.19     3.81668963E-04  6.6229537    
 1.23407514E-06 4.11976329E-09  222516.04      222509.42     3.92355775E-04  6.6169574    
 1.24234227E-06 4.14736177E-09  226926.61      226919.99     4.02662784E-04  6.6221219    
 1.25066478E-06 4.17514513E-09  231559.96      231553.35     4.13724117E-04  6.6194730    
 1.25904304E-06 4.20311462E-09  236247.20      236240.58     4.24944157E-04  6.6191845    
 1.26747742E-06 4.23127147E-09  240933.42      240926.79     4.36118601E-04  6.6240903    
 1.27596831E-06 4.25961695E-09  245949.95      245943.33     4.48455195E-04  6.6162279    
 1.28451608E-06 4.28815232E-09  250825.17      250818.55     4.60237357E-04  6.6214007    
 1.29312111E-06 4.31687884E-09  255910.41      255903.79     4.72746999E-04  6.6206093    
 1.30178379E-06 4.34579781E-09  261126.96      261120.34     4.85703739E-04  6.6184586    
 1.31050450E-06 4.37491051E-09  266302.12      266295.50     4.98459704E-04  6.6236059    
 1.31928362E-06 4.40421823E-09  271818.06      271811.44     5.12451020E-04  6.6171292    
 1.32812156E-06 4.43372228E-09  277239.92      277233.30     5.26043946E-04  6.6206783    
 1.33701871E-06 4.46342399E-09  282820.87      282814.25     5.40190123E-04  6.6217458    
 1.34597546E-06 4.49332467E-09  288626.17      288619.55     5.55150604E-04  6.6177315    
 1.35499221E-06 4.52342565E-09  294346.50      294339.87     5.69732236E-04  6.6228871    
 1.36406936E-06 4.55372829E-09  300400.92      300394.30     5.85558645E-04  6.6182653    
 1.37320733E-06 4.58423392E-09  306435.68      306429.06     6.01259528E-04  6.6199548    
 1.38240650E-06 4.61494391E-09  312560.37      312553.74     6.17254711E-04  6.6228823    
 1.39166731E-06 4.64585962E-09  319020.51      319013.89     6.34526804E-04  6.6170032    
 1.40099015E-06 4.67698245E-09  325343.40      325336.78     6.51195385E-04  6.6221672    
 1.41037545E-06 4.70831376E-09  331988.57      331981.95     6.69095865E-04  6.6194016    
 1.41982361E-06 4.73985497E-09  338705.13      338698.51     6.87229352E-04  6.6192301    
 1.42933508E-06 4.77160747E-09  345426.20      345419.57     7.05313347E-04  6.6240189    
 1.43891026E-06 4.80357269E-09  352614.65      352608.03     7.25251963E-04  6.6162738    
 1.44854958E-06 4.83575204E-09  359603.56      359596.94     7.44306168E-04  6.6214461    
 1.45825348E-06 4.86814696E-09  366896.78      366890.16     7.64550558E-04  6.6205379    
 1.46802239E-06 4.90075889E-09  374371.74      374365.12     7.85490999E-04  6.6185043    
 1.47785673E-06 4.93358930E-09  381790.58      381783.96     8.06120042E-04  6.6236510    
 1.48775696E-06 4.96663964E-09  389701.34      389694.72     8.28761804E-04  6.6170578    
 1.49772351E-06 4.99991138E-09  397470.37      397463.75     8.50729915E-04  6.6207238    
 1.50775683E-06 5.03340601E-09  405474.46      405467.84     8.73622853E-04  6.6216743    
 1.51785736E-06 5.06712502E-09  413792.97      413786.35     8.97801875E-04  6.6177772    
 1.52802556E-06 5.10106992E-09  421993.22      421986.60     9.21383395E-04  6.6229323    
 1.53826187E-06 5.13524222E-09  430676.17      430669.56     9.46994982E-04  6.6181939    
 1.54856676E-06 5.16964344E-09  439323.35      439316.73     9.72370047E-04  6.6200003    
 1.55894067E-06 5.20427512E-09  448107.17      448100.54     9.98255416E-04  6.6228108    
 1.56938409E-06 5.23913879E-09  457363.90      457357.28     1.02617064E-03  6.6170490    
 1.57989746E-06 5.27423602E-09  466427.84      466421.21     1.05312719E-03  6.6222125    
 1.59048127E-06 5.30956836E-09  475957.92      475951.30     1.08209537E-03  6.6193301    
 1.60113597E-06 5.34513740E-09  485581.93      485575.31     1.11140212E-03  6.6192757    
 1.61186206E-06 5.38094472E-09  495220.96      495214.33     1.14066805E-03  6.6239474    
 1.62265999E-06 5.41699191E-09  505521.16      505514.54     1.17289314E-03  6.6163197    
 1.63353026E-06 5.45328058E-09  515539.70      515533.08     1.20370772E-03  6.6214914    
 1.64447336E-06 5.48981235E-09  525999.06      525992.44     1.23646923E-03  6.6204664    
 1.65548976E-06 5.52658885E-09  536709.63      536703.01     1.27031273E-03  6.6185499    
 1.66657996E-06 5.56361172E-09  547344.39      547337.76     1.30367415E-03  6.6236962    
 1.67774445E-06 5.60088261E-09  558689.13      558682.51     1.34031464E-03  6.6169863    
 1.68898374E-06 5.63840317E-09  569820.91      569814.29     1.37581819E-03  6.6207692    
 1.70029832E-06 5.67617509E-09  581299.62      581293.00     1.41286607E-03  6.6216028    
 1.71168869E-06 5.71420004E-09  593218.73      593212.11     1.45194398E-03  6.6178230    
 1.72315537E-06 5.75247973E-09  604973.46      604966.83     1.49008015E-03  6.6229776    
 1.73469887E-06 5.79101585E-09  617425.45      617418.83     1.53152685E-03  6.6181225    
 1.74631969E-06 5.82981012E-09  629815.32      629808.69     1.57253684E-03  6.6200459    
 1.75801837E-06 5.86886429E-09  642412.11      642405.48     1.61442766E-03  6.6227393    
 1.76979541E-06 5.90818007E-09  655675.36      655668.75     1.65954430E-03  6.6170949    
 1.78165135E-06 5.94775924E-09  668667.94      668661.32     1.70313856E-03  6.6222578    
 1.79358672E-06 5.98760354E-09  682334.63      682328.01     1.75001745E-03  6.6192587    
 1.80560203E-06 6.02771477E-09  696123.93      696117.31     1.79738199E-03  6.6193213    
 1.81769784E-06 6.06809470E-09  709947.03      709940.40     1.84474393E-03  6.6238759    
 1.82987468E-06 6.10874514E-09  724705.18      724698.57     1.89682653E-03  6.6163656    
 1.84213310E-06 6.14966790E-09  739065.89      739059.27     1.94666003E-03  6.6215368    
 1.85447363E-06 6.19086481E-09  754065.05      754058.43     1.99967792E-03  6.6203950    
 1.86689683E-06 6.23233769E-09  769410.95      769404.33     2.05437500E-03  6.6185956    
 1.87940326E-06 6.27408840E-09  784654.82      784648.19     2.10832722E-03  6.6237413    
 1.89199346E-06 6.31611880E-09  800923.27      800916.65     2.16762135E-03  6.6169149    
 1.90466801E-06 6.35843077E-09  816872.44      816865.82     2.22500000E-03  6.6208147    
 1.91742747E-06 6.40102618E-09  833333.19      833326.57     2.28495488E-03  6.6215314    
 1.93027240E-06 6.44390694E-09  850410.41      850403.79     2.34811213E-03  6.6178687    
 1.94320339E-06 6.48707497E-09  867259.35      867252.73     2.40978609E-03  6.6230228    
 1.95622099E-06 6.53053217E-09  885115.40      885108.78     2.47685834E-03  6.6180510    
 1.96932581E-06 6.57428050E-09  902866.82      902860.20     2.54313664E-03  6.6200914    
 1.98251841E-06 6.61832191E-09  920930.71      920924.08     2.61092930E-03  6.6226679    
 1.99579939E-06 6.66265834E-09  939933.47      939926.85     2.68384677E-03  6.6171407    
 2.00916934E-06 6.70729179E-09  958556.40      958549.77     2.75434757E-03  6.6223031    
 2.02262885E-06 6.75222424E-09  978154.04      978147.42     2.83021104E-03  6.6191872    
 2.03617854E-06 6.79745770E-09  997910.19      997903.56     2.90675982E-03  6.6193669    
 2.04981899E-06 6.84299417E-09  1017732.4      1017725.7     2.98340697E-03  6.6238045    
 2.06355082E-06 6.88883570E-09  1038876.6      1038869.9     3.06758339E-03  6.6164115    
 2.07737464E-06 6.93498432E-09  1059460.1      1059453.5     3.14817427E-03  6.6215822    
 2.09129106E-06 6.98144209E-09  1080968.2      1080961.6     3.23397290E-03  6.6203235    
 2.10530072E-06 7.02821109E-09  1102954.2      1102947.5     3.32237289E-03  6.6186413    
 2.11940422E-06 7.07529339E-09  1124803.4      1124796.7     3.40962455E-03  6.6237865    
 2.13360221E-06 7.12269110E-09  1148131.0      1148124.3     3.50557819E-03  6.6168435    
 2.14789530E-06 7.17040633E-09  1170980.8      1170974.2     3.59830986E-03  6.6208601    
 2.16228415E-06 7.21844121E-09  1194584.4      1194577.8     3.69533516E-03  6.6214599    
 2.17676939E-06 7.26679787E-09  1219050.4      1219043.8     3.79740897E-03  6.6179145    
 2.19135167E-06 7.31547848E-09  1243199.7      1243193.1     3.89714821E-03  6.6230680    
 2.20603163E-06 7.36448520E-09  1268803.4      1268796.8     4.00568952E-03  6.6179796    
 2.22080994E-06 7.41382021E-09  1294234.9      1294228.3     4.11280504E-03  6.6201369    
 2.23568724E-06 7.46348573E-09  1320136.9      1320130.3     4.22251494E-03  6.6225964    
 2.25066421E-06 7.51348396E-09  1347361.0      1347354.4     4.34036389E-03  6.6171865    
 2.26574151E-06 7.56381713E-09  1374052.5      1374045.8     4.45437786E-03  6.6223483    
 2.28091982E-06 7.61448748E-09  1402153.0      1402146.4     4.57714647E-03  6.6191158    
 2.29619980E-06 7.66549727E-09  1430456.0      1430449.4     4.70086151E-03  6.6194125    
 2.31158215E-06 7.71684879E-09  1458878.8      1458872.2     4.82490153E-03  6.6237330    
 2.32706754E-06 7.76854430E-09  1489170.3      1489163.7     4.96094807E-03  6.6164574    
 2.34265667E-06 7.82058613E-09  1518671.3      1518664.6     5.09127969E-03  6.6216275    
 2.35835023E-06 7.87297659E-09  1549510.7      1549504.0     5.23012701E-03  6.6202521    
 2.37414893E-06 7.92571802E-09  1581007.5      1581000.9     5.37299651E-03  6.6186869    
 2.39005346E-06 7.97881276E-09  1612322.0      1612315.4     5.51409992E-03  6.6238316    
 2.40606454E-06 8.03226319E-09  1645769.4      1645762.8     5.66937810E-03  6.6167720    
 2.42218287E-06 8.08607168E-09  1678503.4      1678496.8     5.81924474E-03  6.6209056    
 2.43840918E-06 8.14024064E-09  1712346.9      1712340.3     5.97626104E-03  6.6213885    
 2.45474420E-06 8.19477248E-09  1747395.9      1747389.3     6.14123092E-03  6.6179602    
 2.47118864E-06 8.24966963E-09  1782006.2      1781999.6     6.30252919E-03  6.6231132    
 2.48774324E-06 8.30493454E-09  1818716.5      1818709.9     6.47817849E-03  6.6179081    
 2.50440875E-06 8.36056967E-09  1855148.0      1855141.4     6.65129263E-03  6.6201824    
 2.52118589E-06 8.41657750E-09  1892286.5      1892279.8     6.82883751E-03  6.6225249    
 2.53807543E-06 8.47296053E-09  1931285.9      1931279.3     7.01930420E-03  6.6172323    
 2.55507811E-06 8.52972128E-09  1969538.7      1969532.1     7.20368749E-03  6.6223936    
 2.57219470E-06 8.58686227E-09  2009828.2      2009821.6     7.40236154E-03  6.6190443    
 2.58942595E-06 8.64438604E-09  2050372.5      2050365.9     7.60230437E-03  6.6194581    
 2.60677263E-06 8.70229518E-09  2091124.6      2091117.9     7.80304109E-03  6.6505197    
 2.62423551E-06 8.76059224E-09  2134517.3      2134510.5     8.02292006E-03  6.8058515    
 2.64181539E-06 8.81927985E-09  2176795.8      2176788.8     8.23369215E-03  6.9913004    
 2.65951303E-06 8.87836060E-09  2221011.6      2221004.4     8.45838736E-03  7.1858281    
 2.67732922E-06 8.93783714E-09  2266130.3      2266122.9     8.68928845E-03  7.3815005    
 2.69526477E-06 8.99771211E-09  2311007.2      2310999.6     8.91748056E-03  7.5714044    
 2.71332047E-06 9.05798819E-09  2358960.7      2358952.9     9.16876094E-03  7.7757971    
 2.73149713E-06 9.11866806E-09  2405850.8      2405842.8     9.41096477E-03  7.9737010    
 2.74979555E-06 9.17975443E-09  2454372.8      2454364.6     9.66506415E-03  8.1879354    
 2.76821656E-06 9.24125002E-09  2504578.7      2504570.3     9.93168501E-03  8.4115872    
 2.78676096E-06 9.30315757E-09  2554177.7      2554169.1     1.01925361E-02  8.6264306    
 2.80542960E-06 9.36547984E-09  2606808.2      2606799.4     1.04767838E-02  8.8553872    
 2.82422330E-06 9.42821962E-09  2658993.7      2658984.6     1.07565607E-02  9.0765612    
 2.84314290E-06 9.49137968E-09  2712238.7      2712229.4     1.10438831E-02  9.2995852    
 2.86218924E-06 9.55496287E-09  2768102.1      2768092.5     1.13517135E-02  9.5392731    
 2.88136318E-06 9.61897199E-09  2822919.6      2822909.8     1.16498975E-02  9.7797461    
 2.90066556E-06 9.68340992E-09  2880680.4      2880670.4     1.19714072E-02  10.036328    
 2.92009725E-06 9.74827952E-09  2938755.7      2938745.4     1.22945453E-02  10.289104    
 2.93965911E-06 9.81358368E-09  2997180.4      2997169.8     1.26194014E-02  10.539047    
 2.95935202E-06 9.87932532E-09  3059335.0      3059324.2     1.29747699E-02  10.805104    
 2.97917685E-06 9.94550737E-09  3119919.7      3119908.6     1.33156296E-02  11.057517    
 2.99913449E-06 1.00121328E-08  3183307.8      3183296.4     1.36792508E-02  11.328297    
 3.01922583E-06 1.00792045E-08  3247933.5      3247921.8     1.40524249E-02  11.615014    
 3.03945176E-06 1.01467255E-08  3312240.7      3312228.8     1.44214560E-02  11.896310    
 3.05981319E-06 1.02146989E-08  3380985.0      3380972.8     1.48280920E-02  12.197884    
 3.08031101E-06 1.02831276E-08  3448146.8      3448134.3     1.52195238E-02  12.484272    
 3.10094616E-06 1.03520148E-08  3517706.8      3517694.1     1.56307318E-02  12.778738    
 3.12171953E-06 1.04213634E-08  3589617.3      3589604.2     1.60616378E-02  13.080699    
 3.14263207E-06 1.04911766E-08  3660689.2      3660675.8     1.64834847E-02  13.382888    
 3.16368471E-06 1.05614574E-08  3736136.6      3736122.9     1.69434727E-02  13.719308    
 3.18487837E-06 1.06322091E-08  3810881.1      3810867.0     1.73956306E-02  14.046558    
 3.20621402E-06 1.07034348E-08  3887210.3      3887195.9     1.78606061E-02  14.376913    
 3.22769259E-06 1.07751376E-08  3967221.8      3967207.1     1.83581173E-02  14.720921    
 3.24931505E-06 1.08473207E-08  4045769.4      4045754.3     1.88403385E-02  15.050953    
 3.27108236E-06 1.09199874E-08  4128569.3      4128553.9     1.93606292E-02  15.397959    
 3.29299549E-06 1.09931409E-08  4211747.3      4211731.5     1.98828686E-02  15.755419    
 3.31505541E-06 1.10667844E-08  4295499.9      4295483.8     2.04085880E-02  16.124687    
 3.33726312E-06 1.11409213E-08  4384519.6      4384503.1     2.09829335E-02  16.517794    
 3.35961959E-06 1.12155548E-08  4471328.4      4471311.5     2.15341693E-02  16.891319    
 3.38212584E-06 1.12906884E-08  4562192.9      4562175.6     2.21226113E-02  17.279979    
 3.40478285E-06 1.13663252E-08  4654750.0      4654732.3     2.27257204E-02  17.670121    
 3.42759164E-06 1.14424687E-08  4746891.0      4746872.9     2.33225146E-02  18.052885    
 3.45055323E-06 1.15191223E-08  4845430.0      4845411.4     2.39805542E-02  18.480784    
 3.47366865E-06 1.15962894E-08  4941617.4      4941598.5     2.46131555E-02  18.905028    
 3.49693891E-06 1.16739735E-08  5041326.9      5041307.5     2.52786100E-02  19.341463    
 3.52036506E-06 1.17521780E-08  5144314.2      5144294.4     2.59750281E-02  19.787130    
 3.54394814E-06 1.18309064E-08  5246144.7      5246124.5     2.66572351E-02  20.219428    
 3.56768921E-06 1.19101621E-08  5354289.2      5354268.5     2.74016157E-02  20.675741    
 3.59158932E-06 1.19899488E-08  5461333.2      5461312.0     2.81323631E-02  21.121415    
 3.61564954E-06 1.20702701E-08  5570742.9      5570721.2     2.88848336E-02  21.594850    
 3.63987094E-06 1.21511293E-08  5685328.6      5685306.4     2.96889023E-02  22.104056    
 3.66425460E-06 1.22325303E-08  5797866.6      5797843.9     3.04687456E-02  22.593387    
 3.68880161E-06 1.23144766E-08  5916546.9      5916523.8     3.13107163E-02  23.106352    
 3.71351306E-06 1.23969718E-08  6035665.0      6035641.3     3.21547309E-02  23.612463    
 3.73839005E-06 1.24800197E-08  6155712.3      6155688.2     3.30055084E-02  24.115536    
 3.76343369E-06 1.25636239E-08  6283194.6      6283169.9     3.39337614E-02  24.649554    
 3.78864510E-06 1.26477882E-08  6407564.7      6407539.5     3.48252139E-02  25.190069    
 3.81402541E-06 1.27325163E-08  6537800.9      6537775.1     3.57774770E-02  25.766030    
 3.83957574E-06 1.28178120E-08  6670346.3      6670319.9     3.67521955E-02  26.344127    
 3.86529723E-06 1.29036791E-08  6802353.2      6802326.3     3.77173241E-02  26.910501    
 3.89119103E-06 1.29901214E-08  6943583.5      6943556.0     3.87821954E-02  27.512351    
 3.91725829E-06 1.30771428E-08  7081325.1      7081296.9     3.98045531E-02  28.087991    
 3.94350018E-06 1.31647472E-08  7224234.6      7224205.9     4.08814500E-02  28.686077    
 3.96991787E-06 1.32529384E-08  7371711.4      7371682.1     4.20069780E-02  29.332473    
 3.99651253E-06 1.33417205E-08  7517595.3      7517565.2     4.31102345E-02  29.973228    
 4.02328535E-06 1.34310972E-08  7672588.1      7672557.4     4.43148333E-02  30.650354    
 4.05023752E-06 1.35210728E-08  7825871.0      7825839.7     4.54958152E-02  31.307459    
 4.07737024E-06 1.36116511E-08  7982679.1      7982647.1     4.67135360E-02  31.971924    
 4.10468473E-06 1.37028361E-08  8146758.8      8146726.1     4.80130539E-02  32.659100    
 4.13218219E-06 1.37946320E-08  8307976.5      8307943.1     4.92742059E-02  33.335449    
