 OPTXAGNF AGN Spectrum Model Parameters: NLS, Astar 0.0                          
 M_BH:  3.0000E+06 M_0            L  :  5.0000E-02 L/Ledd 
 D   :  1.5000E+18 cm             z  :   0.000     redshift 
 Rcor:   40.00     Rg             Ro :   4.000     Rg 
 C_T :  0.2000     keV            Tau:   15.00     Optical Depth 
 gam :   2.200     (-slope)       fpl:  0.2000     Fraction 
 E              0.5DeltaE      E.FE total     E.FE Disk      E.FE Compton   E.FE NonThermal
 (keV)          (keV)          E.E/cm2/s/E    E.E/cm2/s/E    E.E/cm2/s/E    E.E/cm2/s/E    
 1.00334952E-06 3.34952256E-09  76621.232      76620.174     4.49628274E-04  1.0571276    
 1.01007101E-06 3.37196116E-09  78139.797      78138.739     4.61441358E-04  1.0579543    
 1.01683752E-06 3.39455008E-09  79722.350      79721.291     4.73966844E-04  1.0578652    
 1.02364936E-06 3.41729032E-09  81348.597      81347.539     4.86974066E-04  1.0574841    
 1.03050683E-06 3.44018290E-09  82960.571      82959.513     4.99763503E-04  1.0583067    
 1.03741024E-06 3.46322884E-09  84677.151      84676.093     5.13773049E-04  1.0573092    
 1.04435990E-06 3.48642917E-09  86367.426      86366.368     5.27419572E-04  1.0578389    
 1.05135611E-06 3.50978492E-09  88104.199      88103.140     5.41583472E-04  1.0580468    
 1.05839920E-06 3.53329712E-09  89913.931      89912.873     5.56602001E-04  1.0573679    
 1.06548946E-06 3.55696684E-09  91695.673      91694.614     5.71221877E-04  1.0581919    
 1.07262722E-06 3.58079512E-09  93579.780      93578.722     5.87068699E-04  1.0574907    
 1.07981280E-06 3.60478303E-09  95461.069      95460.010     6.02831223E-04  1.0577233    
 1.08704652E-06 3.62893164E-09  97366.998      97365.939     6.18846220E-04  1.0582284    
 1.09432869E-06 3.65324201E-09  99380.803      99379.745     6.36185058E-04  1.0572516    
 1.10165965E-06 3.67771524E-09  101350.18      101349.12     6.52897335E-04  1.0580768    
 1.10903971E-06 3.70235243E-09  103418.07      103417.01     6.70820665E-04  1.0576722    
 1.11646922E-06 3.72715465E-09  105511.83      105510.78     6.89025038E-04  1.0576074    
 1.12394850E-06 3.75212303E-09  107603.29      107602.23     7.07131175E-04  1.0584100    
 1.13147788E-06 3.77725867E-09  109844.06      109843.00     7.27146531E-04  1.0571350    
 1.13905770E-06 3.80256270E-09  112020.82      112019.77     7.46250660E-04  1.0579616    
 1.14668830E-06 3.82803623E-09  114290.31      114289.25     7.66520616E-04  1.0578538    
 1.15437002E-06 3.85368042E-09  116620.41      116619.35     7.87542570E-04  1.0574914    
 1.16210319E-06 3.87949640E-09  118931.05      118929.99     8.08225652E-04  1.0583140    
 1.16988818E-06 3.90548532E-09  121392.69      121391.63     8.30896827E-04  1.0572977    
 1.17772531E-06 3.93164835E-09  123814.49      123813.43     8.52951481E-04  1.0578461    
 1.18561494E-06 3.95798663E-09  126305.11      126304.05     8.75873012E-04  1.0580354    
 1.19355743E-06 3.98450137E-09  128898.07      128897.01     9.00145761E-04  1.0573753    
 1.20155313E-06 4.01119372E-09  131452.02      131450.96     9.23789021E-04  1.0581991    
 1.20960239E-06 4.03806489E-09  134153.87      134152.81     9.49433540E-04  1.0574793    
 1.21770557E-06 4.06511607E-09  136849.31      136848.25     9.74908132E-04  1.0577305    
 1.22586303E-06 4.09234846E-09  139582.48      139581.42     1.00082546E-03  1.0582170    
 1.23407514E-06 4.11976329E-09  142467.78      142466.73     1.02884845E-03  1.0572589    
 1.24234227E-06 4.14736177E-09  145290.65      145289.59     1.05587553E-03  1.0580841    
 1.25066478E-06 4.17514513E-09  148256.00      148254.94     1.08488058E-03  1.0576608    
 1.25904304E-06 4.20311462E-09  151255.83      151254.77     1.11430178E-03  1.0578692    
 1.26747742E-06 4.23127147E-09  154255.02      154253.95     1.14360342E-03  1.0659293    
 1.27596831E-06 4.25961695E-09  157465.48      157464.39     1.17595240E-03  1.0945939    
 1.28451608E-06 4.28815232E-09  160585.59      160584.47     1.20684757E-03  1.1243126    
 1.29312111E-06 4.31687884E-09  163840.03      163838.87     1.23965031E-03  1.1553181    
 1.30178379E-06 4.34579781E-09  167178.44      167177.25     1.27362542E-03  1.1867535    
 1.31050450E-06 4.37491051E-09  170490.40      170489.18     1.30707405E-03  1.2171459    
 1.31928362E-06 4.40421823E-09  174020.29      174019.03     1.34376198E-03  1.2497325    
 1.32812156E-06 4.43372228E-09  177490.03      177488.74     1.37940526E-03  1.2818673    
 1.33701871E-06 4.46342399E-09  181061.52      181060.20     1.41649925E-03  1.3163771    
 1.34597546E-06 4.49332467E-09  184776.48      184775.12     1.45572846E-03  1.3523035    
 1.35499221E-06 4.52342565E-09  188437.12      188435.73     1.49396428E-03  1.3866873    
 1.36406936E-06 4.55372829E-09  192311.40      192309.98     1.53546409E-03  1.4231896    
 1.37320733E-06 4.58423392E-09  196173.13      196171.67     1.57663474E-03  1.4587185    
 1.38240650E-06 4.61494391E-09  200092.37      200090.88     1.61857710E-03  1.4942813    
 1.39166731E-06 4.64585962E-09  204226.11      204224.57     1.66386770E-03  1.5332833    
 1.40099015E-06 4.67698245E-09  208272.12      208270.55     1.70757580E-03  1.5720635    
 1.41037545E-06 4.70831376E-09  212524.20      212522.58     1.75451412E-03  1.6129705    
 1.41982361E-06 4.73985497E-09  216821.93      216820.27     1.80206341E-03  1.6535725    
 1.42933508E-06 4.77160747E-09  221122.57      221120.88     1.84948292E-03  1.6934282    
 1.43891026E-06 4.80357269E-09  225722.03      225720.29     1.90176552E-03  1.7361442    
 1.44854958E-06 4.83575204E-09  230193.95      230192.17     1.95172905E-03  1.7766040    
 1.45825348E-06 4.86814696E-09  234860.43      234858.61     2.00481342E-03  1.8204135    
 1.46802239E-06 4.90075889E-09  239643.11      239641.24     2.05972292E-03  1.8666897    
 1.47785673E-06 4.93358930E-09  244389.95      244388.04     2.11381589E-03  1.9117085    
 1.48775696E-06 4.96663964E-09  249451.27      249449.31     2.17318649E-03  1.9597983    
 1.49772351E-06 4.99991138E-09  254422.02      254420.01     2.23079067E-03  2.0057959    
 1.50775683E-06 5.03340601E-09  259543.04      259540.99     2.29081986E-03  2.0527609    
 1.51785736E-06 5.06712502E-09  264865.07      264862.97     2.35422134E-03  2.1013944    
 1.52802556E-06 5.10106992E-09  270111.55      270109.40     2.41605608E-03  2.1505038    
 1.53826187E-06 5.13524222E-09  275666.58      275664.38     2.48321392E-03  2.2043213    
 1.54856676E-06 5.16964344E-09  281198.78      281196.52     2.54975156E-03  2.2568796    
 1.55894067E-06 5.20427512E-09  286818.35      286816.04     2.61762727E-03  2.3095676    
 1.56938409E-06 5.23913879E-09  292740.20      292737.83     2.69082552E-03  2.3647931    
 1.57989746E-06 5.27423602E-09  298538.87      298536.45     2.76150997E-03  2.4176115    
 1.59048127E-06 5.30956836E-09  304635.49      304633.01     2.83746920E-03  2.4732423    
 1.60113597E-06 5.34513740E-09  310792.17      310789.64     2.91431617E-03  2.5314775    
 1.61186206E-06 5.38094472E-09  316958.50      316955.91     2.99105608E-03  2.5904710    
 1.62265999E-06 5.41699191E-09  323547.39      323544.74     3.07555527E-03  2.6535769    
 1.63353026E-06 5.45328058E-09  329956.33      329953.62     3.15635594E-03  2.7133561    
 1.64447336E-06 5.48981235E-09  336647.01      336644.23     3.24226166E-03  2.7753530    
 1.65548976E-06 5.52658885E-09  343498.26      343495.42     3.33100448E-03  2.8379823    
 1.66657996E-06 5.56361172E-09  350301.11      350298.21     3.41848320E-03  2.8997107    
 1.67774445E-06 5.60088261E-09  357557.68      357554.71     3.51456002E-03  2.9688917    
 1.68898374E-06 5.63840317E-09  364678.22      364675.18     3.60765566E-03  3.0370240    
 1.70029832E-06 5.67617509E-09  372020.49      372017.38     3.70480067E-03  3.1066389    
 1.71168869E-06 5.71420004E-09  379644.19      379641.01     3.80726861E-03  3.1781806    
 1.72315537E-06 5.75247973E-09  387162.92      387159.67     3.90726721E-03  3.2473657    
 1.73469887E-06 5.79101585E-09  395127.20      395123.87     4.01594636E-03  3.3201642    
 1.74631969E-06 5.82981012E-09  403051.83      403048.43     4.12348038E-03  3.3924670    
 1.75801837E-06 5.86886429E-09  411108.73      411105.26     4.23332402E-03  3.4688230    
 1.76979541E-06 5.90818007E-09  419591.47      419587.92     4.35162605E-03  3.5505823    
 1.78165135E-06 5.94775924E-09  427901.35      427897.72     4.46593626E-03  3.6288951    
 1.79358672E-06 5.98760354E-09  436641.94      436638.22     4.58885907E-03  3.7107276    
 1.80560203E-06 6.02771477E-09  445460.92      445457.12     4.71305526E-03  3.7919706    
 1.81769784E-06 6.06809470E-09  454301.56      454297.68     4.83724464E-03  3.8722419    
 1.82987468E-06 6.10874514E-09  463739.56      463735.60     4.97381198E-03  3.9588246    
 1.84213310E-06 6.14966790E-09  472923.77      472919.72     5.10448195E-03  4.0462230    
 1.85447363E-06 6.19086481E-09  482515.87      482511.72     5.24350168E-03  4.1381848    
 1.86689683E-06 6.23233769E-09  492329.51      492325.27     5.38692435E-03  4.2309844    
 1.87940326E-06 6.27408840E-09  502078.06      502073.74     5.52839393E-03  4.3216269    
 1.89199346E-06 6.31611880E-09  512481.11      512476.68     5.68387041E-03  4.4176497    
 1.90466801E-06 6.35843077E-09  522680.31      522675.79     5.83432432E-03  4.5101042    
 1.91742747E-06 6.40102618E-09  533206.33      533201.72     5.99153330E-03  4.6063892    
 1.93027240E-06 6.44390694E-09  544126.16      544121.44     6.15713908E-03  4.7112884    
 1.94320339E-06 6.48707497E-09  554900.29      554895.47     6.31885556E-03  4.8138991    
 1.95622099E-06 6.53053217E-09  566317.67      566312.74     6.49472672E-03  4.9219250    
 1.96932581E-06 6.57428050E-09  577668.33      577663.30     6.66851607E-03  5.0274070    
 1.98251841E-06 6.61832191E-09  589218.64      589213.50     6.84627616E-03  5.1334351    
 1.99579939E-06 6.66265834E-09  601368.58      601363.33     7.03747380E-03  5.2437049    
 2.00916934E-06 6.70729179E-09  613276.08      613270.72     7.22233473E-03  5.3529714    
 2.02262885E-06 6.75222424E-09  625806.09      625800.61     7.42125690E-03  5.4735203    
 2.03617854E-06 6.79745770E-09  638437.41      638431.81     7.62197597E-03  5.5939909    
 2.04981899E-06 6.84299417E-09  651111.00      651105.28     7.82295297E-03  5.7131211    
 2.06355082E-06 6.88883570E-09  664628.83      664622.98     8.04367207E-03  5.8391024    
 2.07737464E-06 6.93498432E-09  677788.81      677782.84     8.25498965E-03  5.9595186    
 2.09129106E-06 6.98144209E-09  691539.17      691533.08     8.47996222E-03  6.0840193    
 2.10530072E-06 7.02821109E-09  705594.75      705588.52     8.71175563E-03  6.2142604    
 2.11940422E-06 7.07529339E-09  719563.16      719556.80     8.94053806E-03  6.3479468    
 2.13360221E-06 7.12269110E-09  734475.52      734469.02     9.19213741E-03  6.4905821    
 2.14789530E-06 7.17040633E-09  749083.03      749076.40     9.43528858E-03  6.6276019    
 2.16228415E-06 7.21844121E-09  764171.85      764165.08     9.68969783E-03  6.7676364    
 2.17676939E-06 7.26679787E-09  779811.29      779804.37     9.95734440E-03  6.9109062    
 2.19135167E-06 7.31547848E-09  795248.76      795241.70     1.02188696E-02  7.0504719    
 2.20603163E-06 7.36448520E-09  811614.73      811607.52     1.05034741E-02  7.2028884    
 2.22080994E-06 7.41382021E-09  827870.93      827863.56     1.07843401E-02  7.3588189    
 2.23568724E-06 7.46348573E-09  844427.63      844420.10     1.10720086E-02  7.5162412    
 2.25066421E-06 7.51348396E-09  861828.34      861820.65     1.13810178E-02  7.6799231    
 2.26574151E-06 7.56381713E-09  878889.22      878881.37     1.16799716E-02  7.8377287    
 2.28091982E-06 7.61448748E-09  896849.60      896841.59     1.20018803E-02  8.0020804    
 2.29619980E-06 7.66549727E-09  914939.36      914931.18     1.23262704E-02  8.1659431    
 2.31158215E-06 7.71684879E-09  933105.79      933097.44     1.26515126E-02  8.3352839    
 2.32706754E-06 7.76854430E-09  952464.91      952456.38     1.30082360E-02  8.5217545    
 2.34265667E-06 7.82058613E-09  971319.75      971311.03     1.33499748E-02  8.7004183    
 2.35835023E-06 7.87297659E-09  991028.88      991019.98     1.37140418E-02  8.8853749    
 2.37414893E-06 7.92571802E-09  1011157.7      1011148.6     1.40886550E-02  9.0716110    
 2.39005346E-06 7.97881276E-09  1031170.4      1031161.2     1.44586373E-02  9.2542817    
 2.40606454E-06 8.03226319E-09  1052544.3      1052534.8     1.48657860E-02  9.4481517    
 2.42218287E-06 8.08607168E-09  1073463.2      1073453.5     1.52587455E-02  9.6445785    
 2.43840918E-06 8.14024064E-09  1095090.2      1095080.3     1.56704513E-02  9.8520468    
 2.45474420E-06 8.19477248E-09  1117486.6      1117476.5     1.61030114E-02  10.064794    
 2.47118864E-06 8.24966963E-09  1139603.3      1139593.0     1.65259444E-02  10.271616    
 2.48774324E-06 8.30493454E-09  1163059.9      1163049.4     1.69865057E-02  10.488615    
 2.50440875E-06 8.36056967E-09  1186339.0      1186328.3     1.74404198E-02  10.700737    
 2.52118589E-06 8.41657750E-09  1210069.3      1210058.4     1.79059511E-02  10.916029    
 2.53807543E-06 8.47296053E-09  1234987.1      1234975.9     1.84053631E-02  11.151491    
 2.55507811E-06 8.52972128E-09  1259428.8      1259417.4     1.88888245E-02  11.385476    
 2.57219470E-06 8.58686227E-09  1285169.9      1285158.2     1.94097559E-02  11.629800    
 2.58942595E-06 8.64438604E-09  1311073.8      1311061.9     1.99340139E-02  11.871936    
 2.60677263E-06 8.70229518E-09  1337110.6      1337098.4     2.04603535E-02  12.112224    
 2.62423551E-06 8.76059224E-09  1364831.7      1364819.3     2.10368833E-02  12.364745    
 2.64181539E-06 8.81927985E-09  1391842.5      1391829.8     2.15895352E-02  12.610510    
 2.65951303E-06 8.87836060E-09  1420089.1      1420076.2     2.21786929E-02  12.877891    
 2.67732922E-06 8.93783714E-09  1448911.9      1448898.7     2.27841221E-02  13.154455    
 2.69526477E-06 8.99771211E-09  1477580.8      1477567.4     2.33824483E-02  13.425536    
 2.71332047E-06 9.05798819E-09  1508212.0      1508198.2     2.40413110E-02  13.712115    
 2.73149713E-06 9.11866806E-09  1538165.4      1538151.4     2.46763752E-02  13.987967    
 2.74979555E-06 9.17975443E-09  1569159.7      1569145.4     2.53426290E-02  14.270048    
 2.76821656E-06 9.24125002E-09  1601228.1      1601213.5     2.60417133E-02  14.562531    
 2.78676096E-06 9.30315757E-09  1632910.0      1632895.1     2.67256694E-02  14.863454    
 2.80542960E-06 9.36547984E-09  1666525.0      1666509.8     2.74709701E-02  15.186267    
 2.82422330E-06 9.42821962E-09  1699856.7      1699841.1     2.82045485E-02  15.501089    
 2.84314290E-06 9.49137968E-09  1733864.3      1733848.4     2.89579108E-02  15.818470    
 2.86218924E-06 9.55496287E-09  1769541.5      1769525.3     2.97650433E-02  16.147045    
 2.88136318E-06 9.61897199E-09  1804552.4      1804535.9     3.05468836E-02  16.465287    
 2.90066556E-06 9.68340992E-09  1841440.0      1841423.2     3.13898822E-02  16.802073    
 2.92009725E-06 9.74827952E-09  1878528.5      1878511.3     3.22371503E-02  17.156928    
 2.93965911E-06 9.81358368E-09  1915840.2      1915822.7     3.30889225E-02  17.513779    
 2.95935202E-06 9.87932532E-09  1955529.8      1955511.9     3.40206958E-02  17.889282    
 2.97917685E-06 9.94550737E-09  1994219.3      1994201.0     3.49144281E-02  18.249515    
 2.99913449E-06 1.00121328E-08  2034695.9      2034677.3     3.58678391E-02  18.622006    
 3.01922583E-06 1.00792045E-08  2075961.8      2075942.8     3.68462966E-02  18.996414    
 3.03945176E-06 1.01467255E-08  2117025.4      2117005.9     3.78138915E-02  19.372219    
 3.05981319E-06 1.02146989E-08  2160917.0      2160897.2     3.88800828E-02  19.794730    
 3.08031101E-06 1.02831276E-08  2203800.7      2203780.5     3.99064097E-02  20.204010    
 3.10094616E-06 1.03520148E-08  2248213.3      2248192.6     4.09845878E-02  20.623278    
 3.12171953E-06 1.04213634E-08  2294124.0      2294102.9     4.21144122E-02  21.050816    
 3.14263207E-06 1.04911766E-08  2339501.1      2339479.6     4.32204840E-02  21.467839    
 3.16368471E-06 1.05614574E-08  2387666.6      2387644.6     4.44265577E-02  21.904473    
 3.18487837E-06 1.06322091E-08  2435384.8      2435362.4     4.56121014E-02  22.345265    
 3.20621402E-06 1.07034348E-08  2484113.4      2484090.5     4.68312512E-02  22.812943    
 3.22769259E-06 1.07751376E-08  2535188.4      2535165.1     4.81357056E-02  23.301475    
 3.24931505E-06 1.08473207E-08  2585331.6      2585307.8     4.94000712E-02  23.773669    
 3.27108236E-06 1.09199874E-08  2638184.3      2638159.9     5.07642502E-02  24.265647    
 3.29299549E-06 1.09931409E-08  2691278.4      2691253.6     5.21335382E-02  24.752840    
 3.31505541E-06 1.10667844E-08  2744739.4      2744714.1     5.35119500E-02  25.237643    
 3.33726312E-06 1.11409213E-08  2801555.7      2801529.9     5.50178527E-02  25.765535    
 3.35961959E-06 1.12155548E-08  2856964.8      2856938.5     5.64631646E-02  26.297718    
 3.38212584E-06 1.12906884E-08  2914957.7      2914930.8     5.80060257E-02  26.851682    
 3.40478285E-06 1.13663252E-08  2974029.2      2974001.8     5.95873417E-02  27.407931    
 3.42759164E-06 1.14424687E-08  3032836.8      3032808.8     6.11521005E-02  27.954574    
 3.45055323E-06 1.15191223E-08  3095719.1      3095690.5     6.28774354E-02  28.531190    
 3.47366865E-06 1.15962894E-08  3157105.1      3157075.9     6.45360744E-02  29.088526    
 3.49693891E-06 1.16739735E-08  3220734.6      3220704.9     6.62808494E-02  29.681852    
 3.52036506E-06 1.17521780E-08  3286452.0      3286421.6     6.81068055E-02  30.314701    
 3.54394814E-06 1.18309064E-08  3351434.0      3351403.0     6.98955019E-02  30.933668    
 3.56768921E-06 1.19101621E-08  3420436.5      3420404.9     7.18472071E-02  31.583605    
 3.59158932E-06 1.19899488E-08  3488739.5      3488707.2     7.37631677E-02  32.217468    
 3.61564954E-06 1.20702701E-08  3558549.6      3558516.7     7.57360824E-02  32.857584    
 3.63987094E-06 1.21511293E-08  3631655.4      3631621.8     7.78442779E-02  33.521518    
 3.66425460E-06 1.22325303E-08  3703459.1      3703424.8     7.98889583E-02  34.195004    
 3.68880161E-06 1.23144766E-08  3779173.4      3779138.4     8.20965249E-02  34.924500    
 3.71351306E-06 1.23969718E-08  3855167.4      3855131.7     8.43094497E-02  35.648071    
 3.73839005E-06 1.24800197E-08  3931754.2      3931717.8     8.65401053E-02  36.368189    
 3.76343369E-06 1.25636239E-08  4013073.6      4013036.4     8.89738858E-02  37.122728    
 3.78864510E-06 1.26477882E-08  4092413.8      4092375.9     9.13111824E-02  37.849192    
 3.81402541E-06 1.27325163E-08  4175488.1      4175449.4     9.38079116E-02  38.604768    
 3.83957574E-06 1.28178120E-08  4260033.1      4259993.6     9.63635137E-02  39.402829    
 3.86529723E-06 1.29036791E-08  4344237.0      4344196.7     9.88939724E-02  40.212617    
 3.89119103E-06 1.29901214E-08  4434310.4      4434269.2     0.10168593      41.071433    
 3.91725829E-06 1.30771428E-08  4522165.7      4522123.7     0.10436643      41.895921    
 3.94350018E-06 1.31647472E-08  4613310.4      4613267.5     0.10718992      42.741276    
 3.96991787E-06 1.32529384E-08  4707361.8      4707318.1     0.11014091      43.601197    
 3.99651253E-06 1.33417205E-08  4800401.6      4800357.1     0.11303351      44.449466    
 4.02328535E-06 1.34310972E-08  4899237.0      4899191.5     0.11619180      45.386434    
 4.05023752E-06 1.35210728E-08  4996986.4      4996939.9     0.11928818      46.327423    
 4.07737024E-06 1.36116511E-08  5096979.7      5096932.3     0.12248087      47.278745    
 4.10468473E-06 1.37028361E-08  5201599.1      5201550.7     0.12588802      48.261024    
 4.13218219E-06 1.37946320E-08  5304400.4      5304351.1     0.12919457      49.213323    
