 OPTXAGNF AGN Spectrum Model Parameters: NLS, Astar 0.0                          
 M_BH:  3.0000E+06 M_0            L  :  0.1000     L/Ledd 
 D   :  1.5000E+18 cm             z  :   0.000     redshift 
 Rcor:   40.00     Rg             Ro :   4.000     Rg 
 C_T :  0.2000     keV            Tau:   15.00     Optical Depth 
 gam :   2.200     (-slope)       fpl:  0.2000     Fraction 
 E              0.5DeltaE      E.FE total     E.FE Disk      E.FE Compton   E.FE NonThermal
 (keV)          (keV)          E.E/cm2/s/E    E.E/cm2/s/E    E.E/cm2/s/E    E.E/cm2/s/E    
 1.00334952E-06 3.34952256E-09  91070.885      91068.733     2.67889750E-04  2.1515659    
 1.01007101E-06 3.37196116E-09  92876.066      92873.912     2.74928051E-04  2.1532484    
 1.01683752E-06 3.39455008E-09  94757.328      94755.174     2.82390809E-04  2.1530671    
 1.02364936E-06 3.41729032E-09  96690.544      96688.391     2.90140588E-04  2.1522915    
 1.03050683E-06 3.44018290E-09  98606.785      98604.630     2.97760610E-04  2.1539657    
 1.03741024E-06 3.46322884E-09  100647.41      100645.26     3.06107584E-04  2.1519354    
 1.04435990E-06 3.48642917E-09  102656.75      102654.60     3.14238267E-04  2.1530135    
 1.05135611E-06 3.50978492E-09  104721.38      104719.22     3.22677207E-04  2.1534367    
 1.05839920E-06 3.53329712E-09  106872.76      106870.61     3.31625343E-04  2.1520550    
 1.06548946E-06 3.55696684E-09  108990.85      108988.70     3.40335959E-04  2.1537319    
 1.07262722E-06 3.58079512E-09  111230.67      111228.52     3.49777601E-04  2.1523048    
 1.07981280E-06 3.60478303E-09  113467.13      113464.98     3.59169018E-04  2.1527782    
 1.08704652E-06 3.62893164E-09  115732.89      115730.74     3.68710862E-04  2.1538063    
 1.09432869E-06 3.65324201E-09  118126.93      118124.77     3.79041463E-04  2.1518181    
 1.10165965E-06 3.67771524E-09  120468.13      120465.97     3.88998753E-04  2.1534978    
 1.10903971E-06 3.70235243E-09  122926.47      122924.32     3.99677601E-04  2.1526743    
 1.11646922E-06 3.72715465E-09  125415.58      125413.42     4.10523899E-04  2.1525424    
 1.12394850E-06 3.75212303E-09  127901.94      127899.78     4.21311666E-04  2.1541759    
 1.13147788E-06 3.77725867E-09  130565.84      130563.69     4.33236967E-04  2.1515808    
 1.13905770E-06 3.80256270E-09  133153.65      133151.49     4.44619350E-04  2.1532632    
 1.14668830E-06 3.82803623E-09  135851.70      135849.55     4.56696345E-04  2.1530439    
 1.15437002E-06 3.85368042E-09  138621.84      138619.68     4.69221390E-04  2.1523063    
 1.16210319E-06 3.87949640E-09  141368.83      141366.67     4.81544531E-04  2.1539804    
 1.16988818E-06 3.90548532E-09  144295.38      144293.22     4.95052201E-04  2.1519121    
 1.17772531E-06 3.93164835E-09  147174.55      147172.39     5.08192542E-04  2.1530283    
 1.18561494E-06 3.95798663E-09  150135.56      150133.40     5.21849378E-04  2.1534134    
 1.19355743E-06 3.98450137E-09  153218.27      153216.12     5.36311286E-04  2.1520699    
 1.20155313E-06 4.01119372E-09  156254.58      156252.43     5.50398138E-04  2.1537466    
 1.20960239E-06 4.03806489E-09  159466.77      159464.62     5.65677365E-04  2.1522816    
 1.21770557E-06 4.06511607E-09  162671.34      162669.19     5.80855347E-04  2.1527930    
 1.22586303E-06 4.09234846E-09  165920.78      165918.62     5.96297120E-04  2.1537830    
 1.23407514E-06 4.11976329E-09  169351.14      169348.99     6.12993471E-04  2.1518330    
 1.24234227E-06 4.14736177E-09  172707.23      172705.08     6.29096447E-04  2.1535125    
 1.25066478E-06 4.17514513E-09  176232.78      176230.63     6.46377921E-04  2.1526511    
 1.25904304E-06 4.20311462E-09  179799.32      179797.17     6.63907344E-04  2.1525573    
 1.26747742E-06 4.23127147E-09  183365.09      183362.94     6.81365533E-04  2.1541526    
 1.27596831E-06 4.25961695E-09  187182.11      187179.95     7.00639373E-04  2.1515958    
 1.28451608E-06 4.28815232E-09  190891.65      190889.49     7.19047009E-04  2.1532780    
 1.29312111E-06 4.31687884E-09  194760.94      194758.78     7.38591205E-04  2.1530206    
 1.30178379E-06 4.34579781E-09  198730.09      198727.94     7.58833910E-04  2.1523212    
 1.31050450E-06 4.37491051E-09  202667.79      202665.64     7.78762939E-04  2.1539951    
 1.31928362E-06 4.40421823E-09  206864.67      206862.52     8.00621983E-04  2.1518889    
 1.32812156E-06 4.43372228E-09  210990.00      210987.85     8.21858612E-04  2.1530431    
 1.33701871E-06 4.46342399E-09  215236.35      215234.19     8.43959597E-04  2.1533902    
 1.34597546E-06 4.49332467E-09  219653.32      219651.17     8.67332782E-04  2.1520847    
 1.35499221E-06 4.52342565E-09  224005.68      224003.53     8.90114084E-04  2.1537614    
 1.36406936E-06 4.55372829E-09  228612.14      228609.98     9.14840123E-04  2.1522584    
 1.37320733E-06 4.58423392E-09  233203.65      233201.50     9.39370050E-04  2.1528078    
 1.38240650E-06 4.61494391E-09  237863.56      237861.41     9.64359768E-04  2.1537598    
 1.39166731E-06 4.64585962E-09  242778.60      242776.44     9.91344421E-04  2.1518479    
 1.40099015E-06 4.67698245E-09  247589.27      247587.12     1.01738620E-03  2.1535272    
 1.41037545E-06 4.70831376E-09  252645.04      252642.88     1.04535259E-03  2.1526279    
 1.41982361E-06 4.73985497E-09  257755.10      257752.95     1.07368301E-03  2.1525721    
 1.42933508E-06 4.77160747E-09  262868.61      262866.46     1.10193611E-03  2.1541294    
 1.43891026E-06 4.80357269E-09  268337.55      268335.40     1.13308671E-03  2.1516107    
 1.44854958E-06 4.83575204E-09  273654.77      273652.62     1.16285558E-03  2.1532927    
 1.45825348E-06 4.86814696E-09  279203.41      279201.26     1.19448389E-03  2.1529974    
 1.46802239E-06 4.90075889E-09  284890.26      284888.10     1.22719965E-03  2.1523361    
 1.47785673E-06 4.93358930E-09  290534.46      290532.30     1.25942891E-03  2.1540098    
 1.48775696E-06 4.96663964E-09  296552.72      296550.57     1.29480267E-03  2.1518657    
 1.49772351E-06 4.99991138E-09  302463.24      302461.09     1.32912397E-03  2.1530578    
 1.50775683E-06 5.03340601E-09  308552.51      308550.35     1.36489014E-03  2.1533670    
 1.51785736E-06 5.06712502E-09  314880.86      314878.71     1.40266557E-03  2.1520996    
 1.52802556E-06 5.10106992E-09  321119.33      321117.18     1.43950752E-03  2.1537761    
 1.53826187E-06 5.13524222E-09  327724.84      327722.68     1.47952106E-03  2.1522351    
 1.54856676E-06 5.16964344E-09  334303.16      334301.01     1.51916508E-03  2.1528226    
 1.55894067E-06 5.20427512E-09  340985.40      340983.25     1.55960635E-03  2.1537365    
 1.56938409E-06 5.23913879E-09  348027.23      348025.08     1.60321889E-03  2.1518628    
 1.57989746E-06 5.27423602E-09  354922.50      354920.35     1.64533366E-03  2.1535420    
 1.59048127E-06 5.30956836E-09  362172.20      362170.05     1.69059124E-03  2.1526046    
 1.60113597E-06 5.34513740E-09  369493.35      369491.19     1.73637776E-03  2.1525869    
 1.61186206E-06 5.38094472E-09  376825.94      376823.78     1.78210050E-03  2.1541062    
 1.62265999E-06 5.41699191E-09  384661.23      384659.07     1.83244636E-03  2.1516256    
 1.63353026E-06 5.45328058E-09  392282.40      392280.25     1.88058858E-03  2.1533075    
 1.64447336E-06 5.48981235E-09  400238.75      400236.59     1.93177249E-03  2.1529742    
 1.65548976E-06 5.52658885E-09  408386.10      408383.94     1.98464680E-03  2.1523509    
 1.66657996E-06 5.56361172E-09  416475.85      416473.69     2.03676794E-03  2.1540245    
 1.67774445E-06 5.60088261E-09  425105.38      425103.22     2.09401200E-03  2.1518424    
 1.68898374E-06 5.63840317E-09  433573.04      433570.89     2.14947982E-03  2.1530726    
 1.70029832E-06 5.67617509E-09  442304.48      442302.32     2.20736034E-03  2.1533437    
 1.71168869E-06 5.71420004E-09  451370.74      451368.59     2.26841237E-03  2.1521145    
 1.72315537E-06 5.75247973E-09  460312.07      460309.92     2.32799312E-03  2.1538147    
 1.73469887E-06 5.79101585E-09  469783.51      469781.34     2.39274593E-03  2.1611514    
 1.74631969E-06 5.82981012E-09  479207.78      479205.57     2.45681646E-03  2.2117356    
 1.75801837E-06 5.86886429E-09  488789.40      488787.13     2.52226310E-03  2.2730574    
 1.76979541E-06 5.90818007E-09  498877.69      498875.35     2.59274945E-03  2.3377984    
 1.78165135E-06 5.94775924E-09  508760.25      508757.84     2.66085738E-03  2.3990806    
 1.79358672E-06 5.98760354E-09  519155.27      519152.80     2.73409689E-03  2.4636966    
 1.80560203E-06 6.02771477E-09  529643.53      529641.00     2.80809513E-03  2.5276372    
 1.81769784E-06 6.06809470E-09  540157.53      540154.93     2.88208930E-03  2.5915475    
 1.82987468E-06 6.10874514E-09  551382.32      551379.65     2.96345855E-03  2.6645589    
 1.84213310E-06 6.14966790E-09  562305.05      562302.31     3.04131402E-03  2.7338873    
 1.85447363E-06 6.19086481E-09  573713.11      573710.30     3.12414447E-03  2.8062478    
 1.86689683E-06 6.23233769E-09  585384.76      585381.88     3.20959830E-03  2.8793111    
 1.87940326E-06 6.27408840E-09  596978.92      596975.96     3.29388844E-03  2.9502105    
 1.89199346E-06 6.31611880E-09  609351.86      609348.83     3.38652422E-03  3.0261463    
 1.90466801E-06 6.35843077E-09  621482.19      621479.08     3.47616745E-03  3.1004904    
 1.91742747E-06 6.40102618E-09  634001.39      633998.21     3.56983552E-03  3.1806080    
 1.93027240E-06 6.44390694E-09  646989.18      646985.92     3.66850661E-03  3.2641093    
 1.94320339E-06 6.48707497E-09  659803.54      659800.19     3.76486037E-03  3.3443297    
 1.95622099E-06 6.53053217E-09  673383.35      673379.91     3.86964784E-03  3.4294668    
 1.96932581E-06 6.57428050E-09  686883.71      686880.19     3.97319494E-03  3.5121460    
 1.98251841E-06 6.61832191E-09  700621.59      700617.99     4.07910790E-03  3.5952188    
 1.99579939E-06 6.66265834E-09  715073.06      715069.37     4.19302730E-03  3.6851788    
 2.00916934E-06 6.70729179E-09  729235.93      729232.15     4.30317114E-03  3.7752796    
 2.02262885E-06 6.75222424E-09  744139.61      744135.74     4.42169304E-03  3.8707581    
 2.03617854E-06 6.79745770E-09  759163.80      759159.83     4.54128559E-03  3.9652314    
 2.04981899E-06 6.84299417E-09  774238.24      774234.18     4.66103182E-03  4.0583820    
 2.06355082E-06 6.88883570E-09  790317.39      790313.22     4.79254094E-03  4.1576603    
 2.07737464E-06 6.93498432E-09  805970.58      805966.32     4.91844839E-03  4.2519774    
 2.09129106E-06 6.98144209E-09  822326.38      822322.02     5.05249185E-03  4.3534251    
 2.10530072E-06 7.02821109E-09  839045.37      839040.90     5.19059938E-03  4.4607964    
 2.11940422E-06 7.07529339E-09  855660.54      855655.97     5.32691288E-03  4.5658475    
 2.13360221E-06 7.12269110E-09  873399.15      873394.47     5.47682137E-03  4.6780461    
 2.14789530E-06 7.17040633E-09  890774.86      890770.07     5.62169619E-03  4.7851685    
 2.16228415E-06 7.21844121E-09  908723.37      908718.47     5.77327891E-03  4.8948639    
 2.17676939E-06 7.26679787E-09  927327.20      927322.18     5.93274881E-03  5.0078016    
 2.19135167E-06 7.31547848E-09  945690.54      945685.41     6.08857145E-03  5.1214091    
 2.20603163E-06 7.36448520E-09  965159.00      965153.75     6.25814540E-03  5.2468169    
 2.22080994E-06 7.41382021E-09  984496.71      984491.33     6.42549185E-03  5.3692001    
 2.23568724E-06 7.46348573E-09  1004192.0      1004186.5     6.59689146E-03  5.4923183    
 2.25066421E-06 7.51348396E-09  1024891.9      1024886.3     6.78100655E-03  5.6208050    
 2.26574151E-06 7.56381713E-09  1045187.2      1045181.5     6.95913032E-03  5.7440630    
 2.28091982E-06 7.61448748E-09  1066553.2      1066547.3     7.15093127E-03  5.8735692    
 2.29619980E-06 7.66549727E-09  1088073.1      1088067.0     7.34421079E-03  6.0080499    
 2.31158215E-06 7.71684879E-09  1109684.1      1109677.9     7.53799803E-03  6.1458236    
 2.32706754E-06 7.76854430E-09  1132714.8      1132708.5     7.75054278E-03  6.2926522    
 2.34265667E-06 7.82058613E-09  1155145.2      1155138.7     7.95415922E-03  6.4321638    
 2.35835023E-06 7.87297659E-09  1178592.4      1178585.8     8.17107955E-03  6.5769711    
 2.37414893E-06 7.92571802E-09  1202539.2      1202532.4     8.39428361E-03  6.7227904    
 2.39005346E-06 7.97881276E-09  1226347.6      1226340.7     8.61472854E-03  6.8662146    
 2.40606454E-06 8.03226319E-09  1251776.3      1251769.3     8.85731835E-03  7.0264930    
 2.42218287E-06 8.08607168E-09  1276663.3      1276656.1     9.09145384E-03  7.1852147    
 2.43840918E-06 8.14024064E-09  1302393.2      1302385.9     9.33675904E-03  7.3478769    
 2.45474420E-06 8.19477248E-09  1329039.0      1329031.4     9.59448991E-03  7.5144430    
 2.47118864E-06 8.24966963E-09  1355351.7      1355344.0     9.84648467E-03  7.6759129    
 2.48774324E-06 8.30493454E-09  1383259.5      1383251.7     1.01208997E-02  7.8459001    
 2.50440875E-06 8.36056967E-09  1410955.9      1410947.8     1.03913540E-02  8.0132744    
 2.52118589E-06 8.41657750E-09  1439189.3      1439181.1     1.06687304E-02  8.1906471    
 2.53807543E-06 8.47296053E-09  1468836.3      1468827.9     1.09662941E-02  8.3810028    
 2.55507811E-06 8.52972128E-09  1497916.5      1497907.9     1.12543538E-02  8.5637850    
 2.57219470E-06 8.58686227E-09  1528543.7      1528534.9     1.15647396E-02  8.7549384    
 2.58942595E-06 8.64438604E-09  1559364.5      1559355.6     1.18771075E-02  8.9441903    
 2.60677263E-06 8.70229518E-09  1590343.4      1590334.3     1.21907157E-02  9.1318053    
 2.62423551E-06 8.76059224E-09  1623327.8      1623318.4     1.25342291E-02  9.3317881    
 2.64181539E-06 8.81927985E-09  1655466.2      1655456.6     1.28635151E-02  9.5349161    
 2.65951303E-06 8.87836060E-09  1689075.9      1689066.2     1.32145528E-02  9.7497986    
 2.67732922E-06 8.93783714E-09  1723371.6      1723361.6     1.35752856E-02  9.9659600    
 2.69526477E-06 8.99771211E-09  1757483.9      1757473.7     1.39317862E-02  10.177527    
 2.71332047E-06 9.05798819E-09  1793932.7      1793922.3     1.43243568E-02  10.401784    
 2.73149713E-06 9.11866806E-09  1829574.2      1829563.5     1.47027474E-02  10.617120    
 2.74979555E-06 9.17975443E-09  1866455.1      1866444.2     1.50997220E-02  10.840693    
 2.76821656E-06 9.24125002E-09  1904614.9      1904603.8     1.55162583E-02  11.083815    
 2.78676096E-06 9.30315757E-09  1942314.1      1942302.8     1.59237807E-02  11.323273    
 2.80542960E-06 9.36547984E-09  1982315.4      1982303.8     1.63678547E-02  11.575642    
 2.82422330E-06 9.42821962E-09  2021979.0      2021967.2     1.68049440E-02  11.821435    
 2.84314290E-06 9.49137968E-09  2062447.4      2062435.3     1.72538215E-02  12.069235    
 2.86218924E-06 9.55496287E-09  2104904.0      2104891.7     1.77347375E-02  12.326097    
 2.88136318E-06 9.61897199E-09  2146566.9      2146554.3     1.82005834E-02  12.579765    
 2.90066556E-06 9.68340992E-09  2190464.7      2190451.8     1.87028700E-02  12.859563    
 2.92009725E-06 9.74827952E-09  2234601.4      2234588.3     1.92077006E-02  13.140264    
 2.93965911E-06 9.81358368E-09  2279003.8      2278990.4     1.97152149E-02  13.418742    
 2.95935202E-06 9.87932532E-09  2326238.1      2326224.4     2.02703974E-02  13.712216    
 2.97917685E-06 9.94550737E-09  2372281.0      2372267.0     2.08029134E-02  13.993293    
 2.99913449E-06 1.00121328E-08  2420452.3      2420438.0     2.13709887E-02  14.284205    
 3.01922583E-06 1.00792045E-08  2469563.5      2469548.9     2.19539878E-02  14.585566    
 3.03945176E-06 1.01467255E-08  2518433.3      2518418.4     2.25305145E-02  14.896010    
 3.05981319E-06 1.02146989E-08  2570671.5      2570656.3     2.31657894E-02  15.229277    
 3.08031101E-06 1.02831276E-08  2621708.9      2621693.3     2.37773114E-02  15.548619    
 3.10094616E-06 1.03520148E-08  2674567.1      2674551.2     2.44197287E-02  15.875895    
 3.12171953E-06 1.04213634E-08  2729209.7      2729193.5     2.50929192E-02  16.209743    
 3.14263207E-06 1.04911766E-08  2783216.3      2783199.7     2.57519570E-02  16.535380    
 3.16368471E-06 1.05614574E-08  2840544.2      2840527.3     2.64705805E-02  16.888590    
 3.18487837E-06 1.06322091E-08  2897339.0      2897321.7     2.71769714E-02  17.250786    
 3.20621402E-06 1.07034348E-08  2955337.1      2955319.4     2.79033865E-02  17.618766    
 3.22769259E-06 1.07751376E-08  3016130.2      3016112.2     2.86806301E-02  18.000172    
 3.24931505E-06 1.08473207E-08  3075812.9      3075794.5     2.94339869E-02  18.368542    
 3.27108236E-06 1.09199874E-08  3138723.1      3138704.3     3.02468175E-02  18.752595    
 3.29299549E-06 1.09931409E-08  3201920.7      3201901.5     3.10626923E-02  19.133962    
 3.31505541E-06 1.10667844E-08  3265554.9      3265535.4     3.18840036E-02  19.526432    
 3.33726312E-06 1.11409213E-08  3333186.6      3333166.6     3.27812804E-02  19.959961    
 3.35961959E-06 1.12155548E-08  3399141.1      3399120.7     3.36424542E-02  20.377029    
 3.38212584E-06 1.12906884E-08  3468173.7      3468152.8     3.45617528E-02  20.809309    
 3.40478285E-06 1.13663252E-08  3538491.1      3538469.8     3.55039649E-02  21.243361    
 3.42759164E-06 1.14424687E-08  3608493.5      3608471.8     3.64363114E-02  21.669782    
 3.45055323E-06 1.15191223E-08  3683350.8      3683328.7     3.74643374E-02  22.121674    
 3.47366865E-06 1.15962894E-08  3756424.7      3756402.0     3.84526228E-02  22.575652    
 3.49693891E-06 1.16739735E-08  3832171.4      3832148.3     3.94922325E-02  23.059964    
 3.52036506E-06 1.17521780E-08  3910405.6      3910382.0     4.05802143E-02  23.555788    
 3.54394814E-06 1.18309064E-08  3987762.9      3987738.8     4.16459949E-02  24.038595    
 3.56768921E-06 1.19101621E-08  4069911.0      4069886.4     4.28089049E-02  24.545715    
 3.59158932E-06 1.19899488E-08  4151224.9      4151199.8     4.39505165E-02  25.040178    
 3.61564954E-06 1.20702701E-08  4234334.2      4234308.6     4.51260645E-02  25.541591    
 3.63987094E-06 1.21511293E-08  4321370.7      4321344.6     4.63822203E-02  26.085934    
 3.66425460E-06 1.22325303E-08  4406854.8      4406828.1     4.76005306E-02  26.631922    
 3.68880161E-06 1.23144766E-08  4496998.9      4496971.6     4.89158975E-02  27.202989    
 3.71351306E-06 1.23969718E-08  4587475.8      4587448.0     5.02344572E-02  27.767387    
 3.73839005E-06 1.24800197E-08  4678658.5      4678630.1     5.15635822E-02  28.329072    
 3.76343369E-06 1.25636239E-08  4775481.3      4775452.3     5.30137405E-02  28.917669    
 3.78864510E-06 1.26477882E-08  4869944.5      4869915.0     5.44064085E-02  29.488207    
 3.81402541E-06 1.27325163E-08  4968857.7      4968827.6     5.58940756E-02  30.108908    
 3.83957574E-06 1.28178120E-08  5069523.3      5069492.5     5.74168229E-02  30.753526    
 3.86529723E-06 1.29036791E-08  5169781.5      5169750.1     5.89245884E-02  31.386356    
 3.89119103E-06 1.29901214E-08  5277035.5      5277003.4     6.05881733E-02  32.056140    
 3.91725829E-06 1.30771428E-08  5381644.7      5381612.0     6.21853427E-02  32.699194    
 3.94350018E-06 1.31647472E-08  5490174.2      5490140.8     6.38677139E-02  33.358506    
 3.96991787E-06 1.32529384E-08  5602168.1      5602134.0     6.56260568E-02  34.035330    
 3.99651253E-06 1.33417205E-08  5712955.2      5712920.4     6.73496067E-02  34.734193    
 4.02328535E-06 1.34310972E-08  5830650.6      5830615.0     6.92314744E-02  35.488764    
 4.05023752E-06 1.35210728E-08  5947050.5      5947014.2     7.10764474E-02  36.222622    
 4.07737024E-06 1.36116511E-08  6066124.6      6066087.5     7.29788140E-02  36.964526    
 4.10468473E-06 1.37028361E-08  6190713.2      6190675.4     7.50089642E-02  37.730476    
 4.13218219E-06 1.37946320E-08  6313133.1      6313094.6     7.69791788E-02  38.473188    
