 OPTXAGNF AGN Spectrum Model Parameters: BLS, Astar 0.0                          
 M_BH:  3.0000E+06 M_0            L  :   1.000     L/Ledd 
 D   :  1.5000E+18 cm             z  :   0.000     redshift 
 Rcor:   60.00     Rg             Ro :   4.000     Rg 
 C_T :  0.2000     keV            Tau:   15.00     Optical Depth 
 gam :   1.800     (-slope)       fpl:  0.5000     Fraction 
 E              0.5DeltaE      E.FE total     E.FE Disk      E.FE Compton   E.FE NonThermal
 (keV)          (keV)          E.E/cm2/s/E    E.E/cm2/s/E    E.E/cm2/s/E    E.E/cm2/s/E    
 1.00334952E-06 3.34952256E-09  159749.32      159733.25     3.76309055E-04  16.065068    
 1.01007101E-06 3.37196116E-09  162916.61      162900.53     3.86195917E-04  16.077631    
 1.01683752E-06 3.39455008E-09  166217.46      166201.38     3.96679024E-04  16.076277    
 1.02364936E-06 3.41729032E-09  169609.51      169593.44     4.07565321E-04  16.070486    
 1.03050683E-06 3.44018290E-09  172971.75      172955.67     4.18269343E-04  16.082987    
 1.03741024E-06 3.46322884E-09  176552.35      176536.28     4.29994538E-04  16.067827    
 1.04435990E-06 3.48642917E-09  180078.02      180061.95     4.41415901E-04  16.075877    
 1.05135611E-06 3.50978492E-09  183700.75      183684.67     4.53270283E-04  16.079037    
 1.05839920E-06 3.53329712E-09  187475.79      187459.72     4.65839951E-04  16.068720    
 1.06548946E-06 3.55696684E-09  191192.37      191176.29     4.78075966E-04  16.081241    
 1.07262722E-06 3.58079512E-09  195122.66      195106.59     4.91338877E-04  16.070586    
 1.07981280E-06 3.60478303E-09  199047.05      199030.97     5.04531236E-04  16.074120    
 1.08704652E-06 3.62893164E-09  203022.86      203006.78     5.17934904E-04  16.081796    
 1.09432869E-06 3.65324201E-09  207223.90      207207.83     5.32446566E-04  16.066951    
 1.10165965E-06 3.67771524E-09  211332.16      211316.08     5.46433827E-04  16.079493    
 1.10903971E-06 3.70235243E-09  215646.09      215630.01     5.61434685E-04  16.073345    
 1.11646922E-06 3.72715465E-09  220014.03      219997.95     5.76670764E-04  16.072360    
 1.12394850E-06 3.75212303E-09  224377.13      224361.05     5.91824625E-04  16.084556    
 1.13147788E-06 3.77725867E-09  229051.99      229035.93     6.08576419E-04  16.065180    
 1.13905770E-06 3.80256270E-09  233593.20      233577.12     6.24565557E-04  16.077741    
 1.14668830E-06 3.82803623E-09  238328.00      238311.92     6.41530443E-04  16.076104    
 1.15437002E-06 3.85368042E-09  243189.36      243173.28     6.59124719E-04  16.070597    
 1.16210319E-06 3.87949640E-09  248010.05      247993.97     6.76435376E-04  16.083097    
 1.16988818E-06 3.90548532E-09  253146.07      253130.00     6.95409982E-04  16.067653    
 1.17772531E-06 3.93164835E-09  258198.86      258182.78     7.13868589E-04  16.075987    
 1.18561494E-06 3.95798663E-09  263395.36      263379.28     7.33052736E-04  16.078863    
 1.19355743E-06 3.98450137E-09  268805.57      268789.50     7.53367799E-04  16.068831    
 1.20155313E-06 4.01119372E-09  274134.27      274118.19     7.73156006E-04  16.081351    
 1.20960239E-06 4.03806489E-09  279771.85      279755.78     7.94619188E-04  16.070412    
 1.21770557E-06 4.06511607E-09  285396.03      285379.95     8.15940149E-04  16.074230    
 1.22586303E-06 4.09234846E-09  291098.97      291082.89     8.37631666E-04  16.081623    
 1.23407514E-06 4.11976329E-09  297119.67      297103.61     8.61085539E-04  16.067063    
 1.24234227E-06 4.14736177E-09  303009.91      302993.83     8.83705876E-04  16.079603    
 1.25066478E-06 4.17514513E-09  309197.75      309181.68     9.07981695E-04  16.073171    
 1.25904304E-06 4.20311462E-09  315457.57      315441.49     9.32605819E-04  16.072471    
 1.26747742E-06 4.23127147E-09  321716.01      321699.93     9.57129878E-04  16.084383    
 1.27596831E-06 4.25961695E-09  328415.74      328399.67     9.84204456E-04  16.065291    
 1.28451608E-06 4.28815232E-09  334926.66      334910.58     1.01006224E-03  16.077852    
 1.29312111E-06 4.31687884E-09  341718.16      341702.08     1.03751660E-03  16.075930    
 1.30178379E-06 4.34579781E-09  348685.07      348669.00     1.06595219E-03  16.070708    
 1.31050450E-06 4.37491051E-09  355596.67      355580.59     1.09394714E-03  16.083206    
 1.31928362E-06 4.40421823E-09  362963.55      362947.48     1.12465327E-03  16.067480    
 1.32812156E-06 4.43372228E-09  370204.71      370188.64     1.15448506E-03  16.076098    
 1.33701871E-06 4.46342399E-09  377658.42      377642.34     1.18553106E-03  16.078690    
 1.34597546E-06 4.49332467E-09  385411.86      385395.79     1.21836417E-03  16.068942    
 1.35499221E-06 4.52342565E-09  393051.75      393035.67     1.25036583E-03  16.081461    
 1.36406936E-06 4.55372829E-09  401138.00      401121.93     1.28509936E-03  16.070239    
 1.37320733E-06 4.58423392E-09  409197.97      409181.89     1.31955739E-03  16.074341    
 1.38240650E-06 4.61494391E-09  417378.06      417361.98     1.35466132E-03  16.081449    
 1.39166731E-06 4.64585962E-09  426006.35      425990.28     1.39256763E-03  16.067174    
 1.40099015E-06 4.67698245E-09  434451.24      434435.16     1.42914943E-03  16.079713    
 1.41037545E-06 4.70831376E-09  443326.72      443310.64     1.46843483E-03  16.072998    
 1.41982361E-06 4.73985497E-09  452297.56      452281.48     1.50823160E-03  16.072581    
 1.42933508E-06 4.77160747E-09  461274.40      461258.31     1.54791975E-03  16.084209    
 1.43891026E-06 4.80357269E-09  470875.73      470859.66     1.59167816E-03  16.065403    
 1.44854958E-06 4.83575204E-09  480210.42      480194.34     1.63349559E-03  16.077962    
 1.45825348E-06 4.86814696E-09  489951.69      489935.62     1.67792507E-03  16.075757    
 1.46802239E-06 4.90075889E-09  499935.78      499919.71     1.72388214E-03  16.070819    
 1.47785673E-06 4.93358930E-09  509844.88      509828.79     1.76915580E-03  16.083316    
 1.48775696E-06 4.96663964E-09  520411.26      520395.19     1.81884669E-03  16.067306    
 1.49772351E-06 4.99991138E-09  530788.24      530772.16     1.86705915E-03  16.076208    
 1.50775683E-06 5.03340601E-09  541479.27      541463.19     1.91730128E-03  16.078516    
 1.51785736E-06 5.06712502E-09  552590.44      552574.36     1.97036593E-03  16.069053    
 1.52802556E-06 5.10106992E-09  563543.56      563527.48     2.02211927E-03  16.081571    
 1.53826187E-06 5.13524222E-09  575141.67      575125.60     2.07832791E-03  16.070065    
 1.54856676E-06 5.16964344E-09  586691.96      586675.88     2.13401746E-03  16.074451    
 1.55894067E-06 5.20427512E-09  598424.79      598408.71     2.19082696E-03  16.081276    
 1.56938409E-06 5.23913879E-09  610789.58      610773.51     2.25209130E-03  16.067285    
 1.57989746E-06 5.27423602E-09  622896.69      622880.61     2.31125165E-03  16.079823    
 1.59048127E-06 5.30956836E-09  635626.70      635610.63     2.37482688E-03  16.072824    
 1.60113597E-06 5.34513740E-09  648482.21      648466.13     2.43914514E-03  16.072692    
 1.61186206E-06 5.38094472E-09  661357.75      661341.66     2.50337380E-03  16.084036    
 1.62265999E-06 5.41699191E-09  675116.84      675100.78     2.57409681E-03  16.065514    
 1.63353026E-06 5.45328058E-09  688499.49      688483.41     2.64172425E-03  16.078072    
 1.64447336E-06 5.48981235E-09  702471.21      702455.13     2.71362452E-03  16.075583    
 1.65548976E-06 5.52658885E-09  716778.62      716762.55     2.78789940E-03  16.070930    
 1.66657996E-06 5.56361172E-09  730984.67      730968.59     2.86111626E-03  16.083426    
 1.67774445E-06 5.60088261E-09  746139.55      746123.48     2.94152957E-03  16.067133    
 1.68898374E-06 5.63840317E-09  761009.77      760993.69     3.01944770E-03  16.076318    
 1.70029832E-06 5.67617509E-09  776343.61      776327.53     3.10075509E-03  16.078343    
 1.71168869E-06 5.71420004E-09  792266.00      792249.93     3.18651769E-03  16.069164    
 1.72315537E-06 5.75247973E-09  807968.64      807952.56     3.27021351E-03  16.081681    
 1.73469887E-06 5.79101585E-09  824603.17      824587.09     3.36117481E-03  16.069892    
 1.74631969E-06 5.82981012E-09  841154.59      841138.51     3.45117768E-03  16.074562    
 1.75801837E-06 5.86886429E-09  857982.53      857966.45     3.54311367E-03  16.081102    
 1.76979541E-06 5.90818007E-09  875701.21      875685.14     3.64212922E-03  16.067396    
 1.78165135E-06 5.94775924E-09  893058.04      893041.96     3.73780369E-03  16.079933    
 1.79358672E-06 5.98760354E-09  911315.84      911299.77     3.84068680E-03  16.072651    
 1.80560203E-06 6.02771477E-09  929737.47      929721.40     3.94463573E-03  16.072803    
 1.81769784E-06 6.06809470E-09  948204.21      948188.12     4.04857896E-03  16.083862    
 1.82987468E-06 6.10874514E-09  967920.74      967904.67     4.16288243E-03  16.065626    
 1.84213310E-06 6.14966790E-09  987105.95      987089.87     4.27224988E-03  16.078182    
 1.85447363E-06 6.19086481E-09  1007144.5      1007128.4     4.38860600E-03  16.075410    
 1.86689683E-06 6.23233769E-09  1027646.5      1027630.4     4.50864736E-03  16.071041    
 1.87940326E-06 6.27408840E-09  1048012.0      1047995.9     4.62705401E-03  16.083535    
 1.89199346E-06 6.31611880E-09  1069747.0      1069730.9     4.75718433E-03  16.066960    
 1.90466801E-06 6.35843077E-09  1091055.2      1091039.1     4.88311083E-03  16.076429    
 1.91742747E-06 6.40102618E-09  1113047.1      1113031.0     5.01469127E-03  16.078169    
 1.93027240E-06 6.44390694E-09  1135863.0      1135847.0     5.15329981E-03  16.069276    
 1.94320339E-06 6.48707497E-09  1158373.7      1158357.7     5.28865304E-03  16.081790    
 1.95622099E-06 6.53053217E-09  1182230.7      1182214.6     5.43585368E-03  16.069718    
 1.96932581E-06 6.57428050E-09  1205947.6      1205931.6     5.58131188E-03  16.074673    
 1.98251841E-06 6.61832191E-09  1230082.2      1230066.2     5.73009358E-03  16.080929    
 1.99579939E-06 6.66265834E-09  1255471.9      1255455.8     5.89012249E-03  16.067508    
 2.00916934E-06 6.70729179E-09  1280353.7      1280337.6     6.04484762E-03  16.080043    
 2.02262885E-06 6.75222424E-09  1306538.4      1306522.3     6.21134199E-03  16.072477    
 2.03617854E-06 6.79745770E-09  1332935.0      1332918.9     6.37934039E-03  16.072913    
 2.04981899E-06 6.84299417E-09  1359419.7      1359403.6     6.54755469E-03  16.083688    
 2.06355082E-06 6.88883570E-09  1387671.8      1387655.7     6.73229316E-03  16.065737    
 2.07737464E-06 6.93498432E-09  1415174.3      1415158.2     6.90916258E-03  16.078292    
 2.09129106E-06 6.98144209E-09  1443912.7      1443896.6     7.09746125E-03  16.075236    
 2.10530072E-06 7.02821109E-09  1473289.8      1473273.8     7.29146902E-03  16.071151    
 2.11940422E-06 7.07529339E-09  1502484.1      1502468.0     7.48295661E-03  16.083645    
 2.13360221E-06 7.12269110E-09  1533654.8      1533638.7     7.69354207E-03  16.066786    
 2.14789530E-06 7.17040633E-09  1564186.7      1564170.6     7.89705640E-03  16.076539    
 2.16228415E-06 7.21844121E-09  1595726.3      1595710.2     8.10999381E-03  16.077996    
 2.17676939E-06 7.26679787E-09  1628418.7      1628402.6     8.33401096E-03  16.069387    
 2.19135167E-06 7.31547848E-09  1660687.7      1660671.6     8.55290453E-03  16.081900    
 2.20603163E-06 7.36448520E-09  1694901.1      1694885.0     8.79111564E-03  16.069545    
 2.22080994E-06 7.41382021E-09  1728884.2      1728868.1     9.02619763E-03  16.074783    
 2.23568724E-06 7.46348573E-09  1763496.2      1763480.2     9.26697341E-03  16.080755    
 2.25066421E-06 7.51348396E-09  1799876.1      1799860.0     9.52561165E-03  16.067619    
 2.26574151E-06 7.56381713E-09  1835543.4      1835527.3     9.77583341E-03  16.080153    
 2.28091982E-06 7.61448748E-09  1873094.8      1873078.8     1.00452686E-02  16.072304    
 2.29619980E-06 7.66549727E-09  1910916.9      1910900.8     1.03167809E-02  16.073024    
 2.31158215E-06 7.71684879E-09  1948898.9      1948882.8     1.05890065E-02  16.083515    
 2.32706754E-06 7.76854430E-09  1989379.7      1989363.6     1.08875822E-02  16.065848    
 2.34265667E-06 7.82058613E-09  2028803.2      2028787.1     1.11736157E-02  16.078403    
 2.35835023E-06 7.87297659E-09  2070016.3      2070000.2     1.14783382E-02  16.075063    
 2.37414893E-06 7.92571802E-09  2112108.5      2112092.4     1.17918880E-02  16.071262    
 2.39005346E-06 7.97881276E-09  2153956.6      2153940.5     1.21015619E-02  16.083754    
 2.40606454E-06 8.03226319E-09  2198656.9      2198640.9     1.24423446E-02  16.066613    
 2.42218287E-06 8.08607168E-09  2242403.0      2242386.9     1.27712508E-02  16.076649    
 2.43840918E-06 8.14024064E-09  2287632.7      2287616.7     1.31158481E-02  16.077822    
 2.45474420E-06 8.19477248E-09  2334474.5      2334458.4     1.34779008E-02  16.069498    
 2.47118864E-06 8.24966963E-09  2380729.3      2380713.2     1.38318955E-02  16.082010    
 2.48774324E-06 8.30493454E-09  2429792.5      2429776.4     1.42173859E-02  16.069371    
 2.50440875E-06 8.36056967E-09  2478482.7      2478466.6     1.45973125E-02  16.074894    
 2.52118589E-06 8.41657750E-09  2528118.0      2528101.9     1.49869631E-02  16.080582    
 2.53807543E-06 8.47296053E-09  2580242.2      2580226.1     1.54049726E-02  16.067730    
 2.55507811E-06 8.52972128E-09  2631367.5      2631351.5     1.58096312E-02  16.080263    
 2.57219470E-06 8.58686227E-09  2685216.8      2685200.7     1.62456531E-02  16.072130    
 2.58942595E-06 8.64438604E-09  2739406.6      2739390.5     1.66844596E-02  16.073135    
 2.60677263E-06 8.70229518E-09  2793874.0      2793857.9     1.71250084E-02  16.083341    
 2.62423551E-06 8.76059224E-09  2851873.1      2851857.0     1.76075679E-02  16.065960    
 2.64181539E-06 8.81927985E-09  2908381.5      2908365.4     1.80701410E-02  16.078513    
 2.65951303E-06 8.87836060E-09  2967480.9      2967464.8     1.85632706E-02  16.074889    
 2.67732922E-06 8.93783714E-09  3027787.9      3027771.8     1.90700199E-02  16.075288    
 2.69526477E-06 8.99771211E-09  3087771.2      3087755.0     1.95708240E-02  16.204566    
 2.71332047E-06 9.05798819E-09  3151870.2      3151853.5     2.01222991E-02  16.640607    
 2.73149713E-06 9.11866806E-09  3214546.2      3214529.1     2.06538542E-02  17.094797    
 2.74979555E-06 9.17975443E-09  3279405.0      3279387.4     2.12115159E-02  17.562934    
 2.76821656E-06 9.24125002E-09  3346516.3      3346498.2     2.17966582E-02  18.043794    
 2.78676096E-06 9.30315757E-09  3412815.1      3412796.6     2.23691377E-02  18.505666    
 2.80542960E-06 9.36547984E-09  3483169.3      3483150.2     2.29929648E-02  18.997944    
 2.82422330E-06 9.42821962E-09  3552927.7      3552908.2     2.36069801E-02  19.490884    
 2.84314290E-06 9.49137968E-09  3624103.2      3624083.1     2.42375553E-02  20.014206    
 2.86218924E-06 9.55496287E-09  3698781.5      3698760.9     2.49131384E-02  20.566132    
 2.88136318E-06 9.61897199E-09  3772060.1      3772038.9     2.55675511E-02  21.090838    
 2.90066556E-06 9.68340992E-09  3849276.2      3849254.5     2.62731558E-02  21.644695    
 2.92009725E-06 9.74827952E-09  3926912.5      3926890.3     2.69823344E-02  22.190328    
 2.93965911E-06 9.81358368E-09  4005015.9      4004993.2     2.76952832E-02  22.729832    
 2.95935202E-06 9.87932532E-09  4088109.7      4088086.3     2.84751966E-02  23.330358    
 2.97917685E-06 9.94550737E-09  4169102.4      4169078.4     2.92232680E-02  23.924581    
 2.99913449E-06 1.00121328E-08  4253845.7      4253821.1     3.00212934E-02  24.547551    
 3.01922583E-06 1.00792045E-08  4340244.5      4340219.2     3.08402840E-02  25.173426    
 3.03945176E-06 1.01467255E-08  4426216.5      4426190.7     3.16501822E-02  25.782750    
 3.05981319E-06 1.02146989E-08  4518125.6      4518099.1     3.25426105E-02  26.435973    
 3.08031101E-06 1.02831276E-08  4607916.4      4607889.3     3.34016705E-02  27.058602    
 3.10094616E-06 1.03520148E-08  4700916.0      4700888.2     3.43041327E-02  27.727584    
 3.12171953E-06 1.04213634E-08  4797060.5      4797032.0     3.52498256E-02  28.443271    
 3.14263207E-06 1.04911766E-08  4892082.1      4892052.9     3.61756366E-02  29.134969    
 3.16368471E-06 1.05614574E-08  4992958.6      4992928.7     3.71851546E-02  29.870222    
 3.18487837E-06 1.06322091E-08  5092893.8      5092863.2     3.81774881E-02  30.581256    
 3.20621402E-06 1.07034348E-08  5194949.2      5194917.9     3.91979520E-02  31.299032    
 3.22769259E-06 1.07751376E-08  5301932.2      5301900.1     4.02898207E-02  32.051168    
 3.24931505E-06 1.08473207E-08  5406955.2      5406922.3     4.13481330E-02  32.808127    
 3.27108236E-06 1.09199874E-08  5517668.9      5517635.2     4.24899952E-02  33.633174    
 3.29299549E-06 1.09931409E-08  5628887.8      5628853.3     4.36361341E-02  34.448004    
 3.31505541E-06 1.10667844E-08  5740875.1      5740839.8     4.47899104E-02  35.255329    
 3.33726312E-06 1.11409213E-08  5859911.6      5859875.4     4.60504047E-02  36.111552    
 3.35961959E-06 1.12155548E-08  5975987.9      5975950.9     4.72601809E-02  36.925355    
 3.38212584E-06 1.12906884E-08  6097492.1      6097454.2     4.85516122E-02  37.778962    
 3.40478285E-06 1.13663252E-08  6221261.1      6221222.4     4.98752331E-02  38.683858    
 3.42759164E-06 1.14424687E-08  6344472.3      6344432.7     5.11849946E-02  39.593074    
 3.45055323E-06 1.15191223E-08  6476247.0      6476206.4     5.26291694E-02  40.567753    
 3.47366865E-06 1.15962894E-08  6604873.1      6604831.6     5.40175155E-02  41.494221    
 3.49693891E-06 1.16739735E-08  6738212.9      6738170.4     5.54779637E-02  42.447168    
 3.52036506E-06 1.17521780E-08  6875939.9      6875896.4     5.70063664E-02  43.420165    
 3.54394814E-06 1.18309064E-08  7012117.3      7012072.9     5.85035804E-02  44.374806    
 3.56768921E-06 1.19101621E-08  7156746.5      7156701.0     6.01372448E-02  45.440877    
 3.59158932E-06 1.19899488E-08  7299901.5      7299854.9     6.17409888E-02  46.501695    
 3.61564954E-06 1.20702701E-08  7446222.6      7446174.9     6.33924079E-02  47.573733    
 3.63987094E-06 1.21511293E-08  7599472.4      7599423.7     6.51570676E-02  48.687806    
 3.66425460E-06 1.22325303E-08  7749979.6      7749929.7     6.68685608E-02  49.758650    
 3.68880161E-06 1.23144766E-08  7908709.5      7908658.6     6.87164028E-02  50.880763    
 3.71351306E-06 1.23969718E-08  8068024.4      8067972.4     7.05687304E-02  52.007126    
 3.73839005E-06 1.24800197E-08  8228582.4      8228529.1     7.24359004E-02  53.185492    
 3.76343369E-06 1.25636239E-08  8399094.5      8399039.9     7.44731031E-02  54.461345    
 3.78864510E-06 1.26477882E-08  8565438.0      8565382.3     7.64295413E-02  55.675717    
 3.81402541E-06 1.27325163E-08  8739635.0      8739578.0     7.85194382E-02  56.939090    
 3.83957574E-06 1.28178120E-08  8916923.1      8916864.9     8.06586173E-02  58.206027    
 3.86529723E-06 1.29036791E-08  9093488.6      9093429.1     8.27767498E-02  59.447797    
 3.89119103E-06 1.29901214E-08  9282404.2      9282343.3     8.51137841E-02  60.793001    
 3.91725829E-06 1.30771428E-08  9466646.4      9466584.2     8.73575154E-02  62.155212    
 3.94350018E-06 1.31647472E-08  9657808.0      9657744.4     8.97209421E-02  63.576839    
 3.96991787E-06 1.32529384E-08  9855084.8      9855019.7     9.21910977E-02  65.026693    
 3.99651253E-06 1.33417205E-08  10050226.      10050160.     9.46123748E-02  66.434559    
 4.02328535E-06 1.34310972E-08  10257566.      10257498.     9.72560645E-02  67.920334    
 4.05023752E-06 1.35210728E-08  10462614.      10462545.     9.98479232E-02  69.363835    
 4.07737024E-06 1.36116511E-08  10672382.      10672311.     0.10252041      70.853998    
 4.10468473E-06 1.37028361E-08  10891888.      10891815.     0.10537242      72.496124    
 4.13218219E-06 1.37946320E-08  11107558.      11107484.     0.10814022      74.092144    
