 OPTXAGNF AGN Spectrum Model Parameters: NLS, Astar 0.0                          
 M_BH:  3.0000E+06 M_0            L  :  0.2000     L/Ledd 
 D   :  1.5000E+18 cm             z  :   0.000     redshift 
 Rcor:   40.00     Rg             Ro :   4.000     Rg 
 C_T :  0.2000     keV            Tau:   15.00     Optical Depth 
 gam :   2.200     (-slope)       fpl:  0.2000     Fraction 
 E              0.5DeltaE      E.FE total     E.FE Disk      E.FE Compton   E.FE NonThermal
 (keV)          (keV)          E.E/cm2/s/E    E.E/cm2/s/E    E.E/cm2/s/E    E.E/cm2/s/E    
 1.00334952E-06 3.34952256E-09  108199.58      108195.19     1.60543075E-04  4.3857616    
 1.01007101E-06 3.37196116E-09  110344.49      110340.11     1.64761059E-04  4.3891913    
 1.01683752E-06 3.39455008E-09  112579.83      112575.44     1.69233416E-04  4.3888217    
 1.02364936E-06 3.41729032E-09  114876.91      114872.52     1.73877783E-04  4.3872406    
 1.03050683E-06 3.44018290E-09  117153.81      117149.42     1.78444387E-04  4.3906534    
 1.03741024E-06 3.46322884E-09  119578.53      119574.15     1.83446649E-04  4.3865147    
 1.04435990E-06 3.48642917E-09  121966.08      121961.69     1.88319288E-04  4.3887124    
 1.05135611E-06 3.50978492E-09  124419.33      124414.94     1.93376665E-04  4.3895750    
 1.05839920E-06 3.53329712E-09  126975.68      126971.29     1.98739199E-04  4.3867586    
 1.06548946E-06 3.55696684E-09  129492.47      129488.08     2.03959389E-04  4.3901769    
 1.07262722E-06 3.58079512E-09  132153.92      132149.53     2.09617678E-04  4.3872678    
 1.07981280E-06 3.60478303E-09  134811.38      134806.99     2.15245868E-04  4.3882327    
 1.08704652E-06 3.62893164E-09  137503.66      137499.27     2.20964207E-04  4.3903284    
 1.09432869E-06 3.65324201E-09  140348.40      140344.01     2.27155243E-04  4.3862757    
 1.10165965E-06 3.67771524E-09  143130.34      143125.95     2.33122557E-04  4.3896995    
 1.10903971E-06 3.70235243E-09  146051.50      146047.11     2.39522297E-04  4.3880210    
 1.11646922E-06 3.72715465E-09  149009.22      149004.83     2.46022387E-04  4.3877522    
 1.12394850E-06 3.75212303E-09  151963.68      151959.28     2.52487401E-04  4.3910818    
 1.13147788E-06 3.77725867E-09  155129.16      155124.77     2.59634132E-04  4.3857921    
 1.13905770E-06 3.80256270E-09  158204.17      158199.78     2.66455495E-04  4.3892214    
 1.14668830E-06 3.82803623E-09  161410.23      161405.84     2.73693136E-04  4.3887743    
 1.15437002E-06 3.85368042E-09  164701.95      164697.57     2.81199290E-04  4.3872709    
 1.16210319E-06 3.87949640E-09  167966.17      167961.77     2.88584445E-04  4.3906834    
 1.16988818E-06 3.90548532E-09  171443.80      171439.41     2.96679482E-04  4.3864673    
 1.17772531E-06 3.93164835E-09  174865.11      174860.72     3.04554380E-04  4.3887425    
 1.18561494E-06 3.95798663E-09  178383.69      178379.30     3.12738811E-04  4.3895276    
 1.19355743E-06 3.98450137E-09  182046.92      182042.54     3.21405718E-04  4.3867889    
 1.20155313E-06 4.01119372E-09  185655.00      185650.61     3.29847856E-04  4.3902068    
 1.20960239E-06 4.03806489E-09  189472.13      189467.74     3.39004578E-04  4.3872205    
 1.21770557E-06 4.06511607E-09  193280.19      193275.80     3.48100625E-04  4.3882629    
 1.22586303E-06 4.09234846E-09  197141.57      197137.18     3.57354761E-04  4.3902810    
 1.23407514E-06 4.11976329E-09  201218.01      201213.63     3.67360760E-04  4.3863061    
 1.24234227E-06 4.14736177E-09  205206.17      205201.78     3.77011152E-04  4.3897296    
 1.25066478E-06 4.17514513E-09  209395.74      209391.35     3.87367812E-04  4.3879737    
 1.25904304E-06 4.20311462E-09  213634.03      213629.64     3.97873067E-04  4.3877824    
 1.26747742E-06 4.23127147E-09  217871.40      217867.01     4.08335633E-04  4.3910344    
 1.27596831E-06 4.25961695E-09  222407.41      222403.03     4.19886310E-04  4.3858225    
 1.28451608E-06 4.28815232E-09  226815.66      226811.27     4.30917876E-04  4.3892515    
 1.29312111E-06 4.31687884E-09  231413.80      231409.42     4.42630577E-04  4.3887269    
 1.30178379E-06 4.34579781E-09  236130.65      236126.27     4.54761893E-04  4.3873012    
 1.31050450E-06 4.37491051E-09  240810.09      240805.70     4.66705224E-04  4.3907133    
 1.31928362E-06 4.40421823E-09  245797.62      245793.24     4.79805206E-04  4.3864200    
 1.32812156E-06 4.43372228E-09  250700.10      250695.71     4.92532177E-04  4.3887727    
 1.33701871E-06 4.46342399E-09  255746.41      255742.02     5.05777154E-04  4.3894802    
 1.34597546E-06 4.49332467E-09  260995.56      260991.17     5.19784557E-04  4.3868192    
 1.35499221E-06 4.52342565E-09  266167.88      266163.49     5.33437246E-04  4.3902368    
 1.36406936E-06 4.55372829E-09  271642.26      271637.87     5.48255410E-04  4.3871731    
 1.37320733E-06 4.58423392E-09  277098.86      277094.47     5.62956046E-04  4.3882930    
 1.38240650E-06 4.61494391E-09  282636.77      282632.38     5.77932233E-04  4.3902336    
 1.39166731E-06 4.64585962E-09  288477.94      288473.56     5.94103980E-04  4.3863365    
 1.40099015E-06 4.67698245E-09  294195.05      294190.66     6.09710664E-04  4.3897596    
 1.41037545E-06 4.70831376E-09  300203.52      300199.13     6.26470765E-04  4.3879263    
 1.41982361E-06 4.73985497E-09  306276.52      306272.13     6.43449029E-04  4.3878127    
 1.42933508E-06 4.77160747E-09  312353.61      312349.22     6.60380953E-04  4.3909871    
 1.43891026E-06 4.80357269E-09  318853.23      318848.85     6.79049345E-04  4.3858529    
 1.44854958E-06 4.83575204E-09  325172.47      325168.08     6.96889669E-04  4.3892816    
 1.45825348E-06 4.86814696E-09  331766.82      331762.43     7.15844354E-04  4.3886796    
 1.46802239E-06 4.90075889E-09  338525.47      338521.08     7.35450746E-04  4.3873315    
 1.47785673E-06 4.93358930E-09  345233.40      345229.01     7.54765578E-04  4.3907432    
 1.48775696E-06 4.96663964E-09  352386.03      352381.65     7.75964903E-04  4.3863726    
 1.49772351E-06 4.99991138E-09  359410.56      359406.17     7.96533494E-04  4.3888028    
 1.50775683E-06 5.03340601E-09  366647.57      366643.18     8.17967992E-04  4.3894329    
 1.51785736E-06 5.06712502E-09  374168.84      374164.45     8.40606640E-04  4.3868496    
 1.52802556E-06 5.10106992E-09  381583.21      381578.82     8.62685852E-04  4.3902668    
 1.53826187E-06 5.13524222E-09  389433.95      389429.56     8.86665799E-04  4.3871258    
 1.54856676E-06 5.16964344E-09  397252.35      397247.96     9.10424292E-04  4.3883232    
 1.55894067E-06 5.20427512E-09  405194.29      405189.90     9.34660578E-04  4.3901863    
 1.56938409E-06 5.23913879E-09  413563.74      413559.35     9.60797402E-04  4.3863668    
 1.57989746E-06 5.27423602E-09  421758.92      421754.53     9.86036620E-04  4.3897896    
 1.59048127E-06 5.30956836E-09  430375.49      430371.10     1.01315932E-03  4.3878790    
 1.60113597E-06 5.34513740E-09  439076.98      439072.59     1.04059902E-03  4.3878429    
 1.61186206E-06 5.38094472E-09  447792.07      447787.67     1.06800049E-03  4.3909397    
 1.62265999E-06 5.41699191E-09  457104.83      457100.45     1.09817260E-03  4.3858834    
 1.63353026E-06 5.45328058E-09  466163.00      466158.61     1.12702407E-03  4.3893117    
 1.64447336E-06 5.48981235E-09  475619.67      475615.28     1.15769842E-03  4.3886322    
 1.65548976E-06 5.52658885E-09  485303.42      485299.03     1.18938584E-03  4.3873618    
 1.66657996E-06 5.56361172E-09  494918.66      494914.27     1.22062188E-03  4.3907732    
 1.67774445E-06 5.60088261E-09  505175.70      505171.31     1.25492809E-03  4.3863253    
 1.68898374E-06 5.63840317E-09  515240.25      515235.86     1.28816980E-03  4.3888329    
 1.70029832E-06 5.67617509E-09  525618.42      525614.03     1.32285744E-03  4.3893855    
 1.71168869E-06 5.71420004E-09  536394.69      536390.30     1.35944578E-03  4.3868799    
 1.72315537E-06 5.75247973E-09  547022.38      547017.99     1.39515238E-03  4.3902968    
 1.73469887E-06 5.79101585E-09  558280.38      558275.99     1.43395860E-03  4.3870784    
 1.74631969E-06 5.82981012E-09  569482.22      569477.83     1.47235593E-03  4.3883534    
 1.75801837E-06 5.86886429E-09  580871.12      580866.73     1.51157797E-03  4.3901389    
 1.76979541E-06 5.90818007E-09  592862.47      592858.09     1.55382032E-03  4.3863972    
 1.78165135E-06 5.94775924E-09  604609.17      604604.78     1.59463728E-03  4.3898196    
 1.79358672E-06 5.98760354E-09  616965.22      616960.83     1.63852961E-03  4.3878316    
 1.80560203E-06 6.02771477E-09  629432.11      629427.72     1.68287664E-03  4.3878731    
 1.81769784E-06 6.06809470E-09  641929.57      641925.18     1.72722124E-03  4.3908923    
 1.82987468E-06 6.10874514E-09  655272.25      655267.86     1.77598575E-03  4.3859138    
 1.84213310E-06 6.14966790E-09  668255.69      668251.30     1.82264444E-03  4.3893417    
 1.85447363E-06 6.19086481E-09  681816.25      681811.86     1.87228465E-03  4.3885848    
 1.86689683E-06 6.23233769E-09  695690.23      695685.84     1.92349707E-03  4.3873921    
 1.87940326E-06 6.27408840E-09  709472.01      709467.62     1.97401208E-03  4.3908031    
 1.89199346E-06 6.31611880E-09  724179.91      724175.52     2.02952867E-03  4.3862779    
 1.90466801E-06 6.35843077E-09  738599.24      738594.85     2.08325182E-03  4.3888630    
 1.91742747E-06 6.40102618E-09  753480.99      753476.60     2.13938706E-03  4.3893381    
 1.93027240E-06 6.44390694E-09  768919.97      768915.58     2.19852065E-03  4.3869102    
 1.94320339E-06 6.48707497E-09  784152.64      784148.25     2.25626544E-03  4.3903268    
 1.95622099E-06 6.53053217E-09  800295.61      800291.23     2.31906460E-03  4.3870310    
 1.96932581E-06 6.57428050E-09  816344.05      816339.66     2.38112040E-03  4.3883836    
 1.98251841E-06 6.61832191E-09  832674.93      832670.53     2.44459408E-03  4.3900915    
 1.99579939E-06 6.66265834E-09  849854.42      849850.03     2.51286606E-03  4.3864276    
 2.00916934E-06 6.70729179E-09  866690.64      866686.25     2.57887532E-03  4.3898497    
 2.02262885E-06 6.75222424E-09  884407.86      884403.47     2.64990561E-03  4.3877842    
 2.03617854E-06 6.79745770E-09  902268.37      902263.98     2.72157755E-03  4.3879033    
 2.04981899E-06 6.84299417E-09  920188.58      920184.19     2.79334159E-03  4.3908449    
 2.06355082E-06 6.88883570E-09  939303.71      939299.32     2.87215520E-03  4.3859442    
 2.07737464E-06 6.93498432E-09  957912.16      957907.77     2.94761170E-03  4.3893718    
 2.09129106E-06 6.98144209E-09  977356.22      977351.82     3.02794416E-03  4.3885375    
 2.10530072E-06 7.02821109E-09  997232.20      997227.81     3.11071225E-03  4.3874223    
 2.11940422E-06 7.07529339E-09  1016984.6      1016980.2     3.19240517E-03  4.3908330    
 2.13360221E-06 7.12269110E-09  1038073.3      1038068.9     3.28224566E-03  4.3862306    
 2.14789530E-06 7.17040633E-09  1058730.2      1058725.8     3.36906945E-03  4.3888932    
 2.16228415E-06 7.21844121E-09  1080068.3      1080063.9     3.45991332E-03  4.3892908    
 2.17676939E-06 7.26679787E-09  1102185.9      1102181.5     3.55548405E-03  4.3869405    
 2.19135167E-06 7.31547848E-09  1124017.3      1124012.9     3.64886895E-03  4.3903567    
 2.20603163E-06 7.36448520E-09  1147163.2      1147158.8     3.75049512E-03  4.3869837    
 2.22080994E-06 7.41382021E-09  1170153.5      1170149.1     3.85078634E-03  4.3884138    
 2.23568724E-06 7.46348573E-09  1193569.1      1193564.7     3.95350665E-03  4.3900441    
 2.25066421E-06 7.51348396E-09  1218179.6      1218175.2     4.06384746E-03  4.3864580    
 2.26574151E-06 7.56381713E-09  1242308.7      1242304.3     4.17059763E-03  4.3898797    
 2.28091982E-06 7.61448748E-09  1267711.4      1267707.0     4.28554465E-03  4.3877369    
 2.29619980E-06 7.66549727E-09  1293297.0      1293292.6     4.40137780E-03  4.3879336    
 2.31158215E-06 7.71684879E-09  1318991.0      1318986.6     4.51751523E-03  4.3907976    
 2.32706754E-06 7.76854430E-09  1346373.8      1346369.4     4.64489421E-03  4.3859746    
 2.34265667E-06 7.82058613E-09  1373042.3      1373037.9     4.76692239E-03  4.3894019    
 2.35835023E-06 7.87297659E-09  1400920.3      1400915.9     4.89692372E-03  4.3884901    
 2.37414893E-06 7.92571802E-09  1429392.6      1429388.2     5.03069095E-03  4.3924786    
 2.39005346E-06 7.97881276E-09  1457700.2      1457695.7     5.16280462E-03  4.4491669    
 2.40606454E-06 8.03226319E-09  1487935.4      1487930.8     5.30818995E-03  4.5739150    
 2.42218287E-06 8.08607168E-09  1517526.0      1517521.2     5.44850852E-03  4.6982139    
 2.43840918E-06 8.14024064E-09  1548119.3      1548114.4     5.59552123E-03  4.8261405    
 2.45474420E-06 8.19477248E-09  1579802.0      1579797.1     5.74998077E-03  4.9577035    
 2.47118864E-06 8.24966963E-09  1611088.4      1611083.3     5.90100262E-03  5.0840177    
 2.48774324E-06 8.30493454E-09  1644272.5      1644267.3     6.06546116E-03  5.2191688    
 2.50440875E-06 8.36056967E-09  1677204.9      1677199.5     6.22754607E-03  5.3559238    
 2.52118589E-06 8.41657750E-09  1710776.1      1710770.5     6.39377941E-03  5.4986765    
 2.53807543E-06 8.47296053E-09  1746029.0      1746023.4     6.57211128E-03  5.6490107    
 2.55507811E-06 8.52972128E-09  1780607.4      1780601.6     6.74474733E-03  5.7919134    
 2.57219470E-06 8.58686227E-09  1817026.3      1817020.3     6.93076365E-03  5.9425992    
 2.58942595E-06 8.64438604E-09  1853675.5      1853669.4     7.11796789E-03  6.0912581    
 2.60677263E-06 8.70229518E-09  1890512.5      1890506.3     7.30591544E-03  6.2388275    
 2.62423551E-06 8.76059224E-09  1929735.7      1929729.3     7.51178562E-03  6.4044764    
 2.64181539E-06 8.81927985E-09  1967952.0      1967945.5     7.70912915E-03  6.5661109    
 2.65951303E-06 8.87836060E-09  2007919.1      2007912.3     7.91950872E-03  6.7349781    
 2.67732922E-06 8.93783714E-09  2048702.1      2048695.2     8.13569875E-03  6.9048430    
 2.69526477E-06 8.99771211E-09  2089266.7      2089259.6     8.34935240E-03  7.0701879    
 2.71332047E-06 9.05798819E-09  2132611.4      2132604.1     8.58462329E-03  7.2472012    
 2.73149713E-06 9.11866806E-09  2174995.3      2174987.9     8.81139592E-03  7.4171847    
 2.74979555E-06 9.17975443E-09  2218853.9      2218846.3     9.04930618E-03  7.6007561    
 2.76821656E-06 9.24125002E-09  2264234.2      2264226.4     9.29894013E-03  7.7948951    
 2.78676096E-06 9.30315757E-09  2309066.1      2309058.1     9.54317191E-03  7.9819977    
 2.80542960E-06 9.36547984E-09  2356637.4      2356629.2     9.80930960E-03  8.1806001    
 2.82422330E-06 9.42821962E-09  2403806.6      2403798.2     1.00712613E-02  8.3730029    
 2.84314290E-06 9.49137968E-09  2451933.3      2451924.7     1.03402779E-02  8.5670013    
 2.86218924E-06 9.55496287E-09  2502425.9      2502417.2     1.06284957E-02  8.7714005    
 2.88136318E-06 9.61897199E-09  2551973.7      2551964.7     1.09076817E-02  8.9787992    
 2.90066556E-06 9.68340992E-09  2604181.0      2604171.8     1.12087073E-02  9.2016552    
 2.92009725E-06 9.74827952E-09  2656672.5      2656663.1     1.15112575E-02  9.4214895    
 2.93965911E-06 9.81358368E-09  2709479.9      2709470.2     1.18154162E-02  9.6391142    
 2.95935202E-06 9.87932532E-09  2765657.4      2765647.6     1.21481432E-02  9.8699531    
 2.97917685E-06 9.94550737E-09  2820416.7      2820406.6     1.24672859E-02  10.089471    
 2.99913449E-06 1.00121328E-08  2877709.0      2877698.6     1.28077398E-02  10.320723    
 3.01922583E-06 1.00792045E-08  2936119.5      2936108.9     1.31571379E-02  10.568057    
 3.03945176E-06 1.01467255E-08  2994242.5      2994231.7     1.35026571E-02  10.813062    
 3.05981319E-06 1.02146989E-08  3056374.5      3056363.4     1.38833850E-02  11.074883    
 3.08031101E-06 1.02831276E-08  3117076.8      3117065.5     1.42498775E-02  11.324311    
 3.10094616E-06 1.03520148E-08  3179946.2      3179934.6     1.46348862E-02  11.580477    
 3.12171953E-06 1.04213634E-08  3244939.1      3244927.3     1.50383378E-02  11.842228    
 3.14263207E-06 1.04911766E-08  3309174.7      3309162.6     1.54333075E-02  12.101228    
 3.16368471E-06 1.05614574E-08  3377363.4      3377351.0     1.58639881E-02  12.391117    
 3.18487837E-06 1.06322091E-08  3444917.3      3444904.6     1.62873374E-02  12.676054    
 3.20621402E-06 1.07034348E-08  3513903.0      3513890.0     1.67226877E-02  12.963666    
 3.22769259E-06 1.07751376E-08  3586215.7      3586202.4     1.71885007E-02  13.262668    
 3.24931505E-06 1.08473207E-08  3657205.9      3657192.4     1.76399978E-02  13.550208    
 3.27108236E-06 1.09199874E-08  3732038.1      3732024.2     1.81271388E-02  13.851099    
 3.29299549E-06 1.09931409E-08  3807211.9      3807197.7     1.86161043E-02  14.157150    
 3.31505541E-06 1.10667844E-08  3882905.1      3882890.6     1.91083281E-02  14.476212    
 3.33726312E-06 1.11409213E-08  3963356.8      3963341.9     1.96460797E-02  14.817927    
 3.35961959E-06 1.12155548E-08  4041811.3      4041796.2     2.01621940E-02  15.143402    
 3.38212584E-06 1.12906884E-08  4123930.0      4123914.5     2.07131439E-02  15.481592    
 3.40478285E-06 1.13663252E-08  4207577.9      4207562.0     2.12778264E-02  15.821106    
 3.42759164E-06 1.14424687E-08  4290850.1      4290833.9     2.18365962E-02  16.153974    
 3.45055323E-06 1.15191223E-08  4379902.2      4379885.7     2.24527091E-02  16.519269    
 3.47366865E-06 1.15962894E-08  4466830.4      4466813.5     2.30450045E-02  16.886502    
 3.49693891E-06 1.16739735E-08  4556940.3      4556923.1     2.36680599E-02  17.266500    
 3.52036506E-06 1.17521780E-08  4650011.6      4649993.9     2.43201059E-02  17.654328    
 3.54394814E-06 1.18309064E-08  4742038.1      4742020.1     2.49588462E-02  18.031046    
 3.56768921E-06 1.19101621E-08  4839768.4      4839750.0     2.56557986E-02  18.427984    
 3.59158932E-06 1.19899488E-08  4936504.9      4936486.1     2.63399865E-02  18.815163    
 3.61564954E-06 1.20702701E-08  5035378.7      5035359.5     2.70445133E-02  19.219783    
 3.63987094E-06 1.21511293E-08  5138928.2      5138908.5     2.77973506E-02  19.660445    
 3.66425460E-06 1.22325303E-08  5240628.4      5240608.2     2.85275060E-02  20.086905    
 3.68880161E-06 1.23144766E-08  5347877.1      5347856.5     2.93158302E-02  20.533395    
 3.71351306E-06 1.23969718E-08  5455521.5      5455500.5     3.01060680E-02  20.974194    
 3.73839005E-06 1.24800197E-08  5564005.7      5563984.2     3.09026378E-02  21.412539    
 3.76343369E-06 1.25636239E-08  5679205.8      5679183.8     3.17717464E-02  21.874897    
 3.78864510E-06 1.26477882E-08  5791595.2      5791572.8     3.26063994E-02  22.337060    
 3.81402541E-06 1.27325163E-08  5909283.3      5909260.4     3.34979882E-02  22.836897    
 3.83957574E-06 1.28178120E-08  6029057.7      6029034.3     3.44106016E-02  23.340371    
 3.86529723E-06 1.29036791E-08  6148346.0      6148322.2     3.53142361E-02  23.834004    
 3.89119103E-06 1.29901214E-08  6275965.4      6275941.0     3.63112577E-02  24.357785    
 3.91725829E-06 1.30771428E-08  6400434.1      6400409.2     3.72684747E-02  24.859457    
 3.94350018E-06 1.31647472E-08  6529571.0      6529545.6     3.82767557E-02  25.376524    
 3.96991787E-06 1.32529384E-08  6662833.3      6662807.4     3.93305690E-02  25.929185    
 3.99651253E-06 1.33417205E-08  6794657.4      6794630.8     4.03635298E-02  26.486983    
 4.02328535E-06 1.34310972E-08  6934708.8      6934681.7     4.14913755E-02  27.076557    
 4.05023752E-06 1.35210728E-08  7073216.4      7073188.7     4.25971092E-02  27.649165    
 4.07737024E-06 1.36116511E-08  7214908.2      7214879.9     4.37372407E-02  28.228136    
 4.10468473E-06 1.37028361E-08  7363167.7      7363138.8     4.49539571E-02  28.826512    
 4.13218219E-06 1.37946320E-08  7508843.0      7508813.6     4.61347523E-02  29.409437    
