 OPTXAGNF AGN Spectrum Model Parameters: NLS, Astar 0.0                          
 M_BH:  3.0000E+06 M_0            L  :   1.000     L/Ledd 
 D   :  1.5000E+18 cm             z  :   0.000     redshift 
 Rcor:   40.00     Rg             Ro :   4.000     Rg 
 C_T :  0.2000     keV            Tau:   15.00     Optical Depth 
 gam :   2.200     (-slope)       fpl:  0.2000     Fraction 
 E              0.5DeltaE      E.FE total     E.FE Disk      E.FE Compton   E.FE NonThermal
 (keV)          (keV)          E.E/cm2/s/E    E.E/cm2/s/E    E.E/cm2/s/E    E.E/cm2/s/E    
 1.00334952E-06 3.34952256E-09  161068.41      161045.96     2.10223346E-04  22.446543    
 1.01007101E-06 3.37196116E-09  164261.73      164239.27     2.15746606E-04  22.464096    
 1.01683752E-06 3.39455008E-09  167589.71      167567.24     2.21602957E-04  22.462204    
 1.02364936E-06 3.41729032E-09  171009.63      170987.17     2.27684549E-04  22.454112    
 1.03050683E-06 3.44018290E-09  174399.50      174377.03     2.33664314E-04  22.471579    
 1.03741024E-06 3.46322884E-09  178009.52      177987.07     2.40214555E-04  22.450397    
 1.04435990E-06 3.48642917E-09  181564.18      181541.71     2.46595061E-04  22.461645    
 1.05135611E-06 3.50978492E-09  185216.68      185194.21     2.53217472E-04  22.466060    
 1.05839920E-06 3.53329712E-09  189022.73      189000.28     2.60239476E-04  22.451645    
 1.06548946E-06 3.55696684E-09  192769.86      192747.39     2.67075086E-04  22.469140    
 1.07262722E-06 3.58079512E-09  196732.44      196709.99     2.74484369E-04  22.454251    
 1.07981280E-06 3.60478303E-09  200689.08      200666.62     2.81854238E-04  22.459189    
 1.08704652E-06 3.62893164E-09  204697.57      204675.10     2.89342155E-04  22.469915    
 1.09432869E-06 3.65324201E-09  208933.13      208910.68     2.97449050E-04  22.449174    
 1.10165965E-06 3.67771524E-09  213075.16      213052.69     3.05262990E-04  22.466697    
 1.10903971E-06 3.70235243E-09  217424.53      217402.07     3.13643174E-04  22.458106    
 1.11646922E-06 3.72715465E-09  221828.37      221805.91     3.22154764E-04  22.456730    
 1.12394850E-06 3.75212303E-09  226227.33      226204.86     3.30620423E-04  22.473772    
 1.13147788E-06 3.77725867E-09  230940.60      230918.16     3.39978765E-04  22.446698    
 1.13905770E-06 3.80256270E-09  235519.13      235496.67     3.48911050E-04  22.464250    
 1.14668830E-06 3.82803623E-09  240292.85      240270.38     3.58388435E-04  22.461962    
 1.15437002E-06 3.85368042E-09  245194.15      245171.70     3.68217429E-04  22.454267    
 1.16210319E-06 3.87949640E-09  250054.47      250032.00     3.77887979E-04  22.471732    
 1.16988818E-06 3.90548532E-09  255232.68      255210.23     3.88488091E-04  22.450154    
 1.17772531E-06 3.93164835E-09  260327.00      260304.54     3.98799942E-04  22.461799    
 1.18561494E-06 3.95798663E-09  265566.21      265543.74     4.09517115E-04  22.465817    
 1.19355743E-06 3.98450137E-09  271020.87      270998.42     4.20866072E-04  22.451800    
 1.20155313E-06 4.01119372E-09  276393.38      276370.91     4.31920702E-04  22.469293    
 1.20960239E-06 4.03806489E-09  282077.28      282054.82     4.43911055E-04  22.454009    
 1.21770557E-06 4.06511607E-09  287747.67      287725.21     4.55821957E-04  22.459344    
 1.22586303E-06 4.09234846E-09  293497.48      293475.01     4.67939869E-04  22.469673    
 1.23407514E-06 4.11976329E-09  299567.66      299545.21     4.81042320E-04  22.449329    
 1.24234227E-06 4.14736177E-09  305506.31      305483.84     4.93679116E-04  22.466851    
 1.25066478E-06 4.17514513E-09  311744.99      311722.54     5.07240746E-04  22.457864    
 1.25904304E-06 4.20311462E-09  318056.26      318033.80     5.20996957E-04  22.456885    
 1.26747742E-06 4.23127147E-09  324366.13      324343.66     5.34697266E-04  22.473529    
 1.27596831E-06 4.25961695E-09  331120.91      331098.46     5.49822421E-04  22.446854    
 1.28451608E-06 4.28815232E-09  337685.34      337662.88     5.64267818E-04  22.464404    
 1.29312111E-06 4.31687884E-09  344532.66      344510.19     5.79605138E-04  22.461719    
 1.30178379E-06 4.34579781E-09  351556.81      351534.36     5.95490619E-04  22.454422    
 1.31050450E-06 4.37491051E-09  358525.22      358502.75     6.11129942E-04  22.471885    
 1.31928362E-06 4.40421823E-09  365952.63      365930.18     6.28283859E-04  22.449912    
 1.32812156E-06 4.43372228E-09  373253.31      373230.84     6.44949333E-04  22.461953    
 1.33701871E-06 4.46342399E-09  380768.27      380745.80     6.62293117E-04  22.465575    
 1.34597546E-06 4.49332467E-09  388585.42      388562.97     6.80635274E-04  22.451955    
 1.35499221E-06 4.52342565E-09  396288.10      396265.63     6.98512945E-04  22.469447    
 1.36406936E-06 4.55372829E-09  404440.80      404418.34     7.17916768E-04  22.453767    
 1.37320733E-06 4.58423392E-09  412567.00      412544.54     7.37166692E-04  22.459498    
 1.38240650E-06 4.61494391E-09  420814.32      420791.85     7.56777441E-04  22.469430    
 1.39166731E-06 4.64585962E-09  429513.51      429491.06     7.77953738E-04  22.449485    
 1.40099015E-06 4.67698245E-09  438027.80      438005.33     7.98390103E-04  22.467004    
 1.41037545E-06 4.70831376E-09  446976.21      446953.75     8.20336832E-04  22.457621    
 1.41982361E-06 4.73985497E-09  456020.77      455998.32     8.42569238E-04  22.457040    
 1.42933508E-06 4.77160747E-09  465071.39      465048.92     8.64740965E-04  22.473287    
 1.43891026E-06 4.80357269E-09  474751.62      474729.17     8.89186542E-04  22.447010    
 1.44854958E-06 4.83575204E-09  484163.02      484140.55     9.12547793E-04  22.464558    
 1.45825348E-06 4.86814696E-09  493984.34      493961.88     9.37368263E-04  22.461477    
 1.46802239E-06 4.90075889E-09  504050.48      504028.02     9.63042124E-04  22.454577    
 1.47785673E-06 4.93358930E-09  514041.01      514018.54     9.88334198E-04  22.472039    
 1.48775696E-06 4.96663964E-09  524694.21      524671.76     1.01609396E-03  22.449670    
 1.49772351E-06 4.99991138E-09  535156.47      535134.01     1.04302779E-03  22.462107    
 1.50775683E-06 5.03340601E-09  545935.36      545912.90     1.07109551E-03  22.465332    
 1.51785736E-06 5.06712502E-09  557137.83      557115.38     1.10074002E-03  22.452111    
 1.52802556E-06 5.10106992E-09  568180.97      568158.50     1.12965197E-03  22.469600    
 1.53826187E-06 5.13524222E-09  579874.39      579851.94     1.16105288E-03  22.453524    
 1.54856676E-06 5.16964344E-09  591519.59      591497.13     1.19216380E-03  22.459653    
 1.55894067E-06 5.20427512E-09  603348.85      603326.38     1.22390038E-03  22.469188    
 1.56938409E-06 5.23913879E-09  615815.24      615792.79     1.25812566E-03  22.449640    
 1.57989746E-06 5.27423602E-09  628021.85      627999.38     1.29117555E-03  22.467158    
 1.59048127E-06 5.30956836E-09  640856.47      640834.01     1.32669181E-03  22.457379    
 1.60113597E-06 5.34513740E-09  653817.62      653795.16     1.36262317E-03  22.457195    
 1.61186206E-06 5.38094472E-09  666798.97      666776.50     1.39850447E-03  22.473044    
 1.62265999E-06 5.41699191E-09  680671.13      680648.68     1.43801385E-03  22.447166    
 1.63353026E-06 5.45328058E-09  694163.75      694141.28     1.47579389E-03  22.464712    
 1.64447336E-06 5.48981235E-09  708250.29      708227.83     1.51596095E-03  22.461234    
 1.65548976E-06 5.52658885E-09  722675.27      722652.82     1.55745459E-03  22.454732    
 1.66657996E-06 5.56361172E-09  736998.07      736975.60     1.59835716E-03  22.472192    
 1.67774445E-06 5.60088261E-09  752277.48      752255.02     1.64328005E-03  22.449427    
 1.68898374E-06 5.63840317E-09  767269.90      767247.44     1.68680899E-03  22.462262    
 1.70029832E-06 5.67617509E-09  782729.75      782707.28     1.73223136E-03  22.465090    
 1.71168869E-06 5.71420004E-09  798782.98      798760.53     1.78014264E-03  22.452266    
 1.72315537E-06 5.75247973E-09  814614.67      814592.19     1.82689930E-03  22.469754    
 1.73469887E-06 5.79101585E-09  831385.88      831363.43     1.87771485E-03  22.453282    
 1.74631969E-06 5.82981012E-09  848073.32      848050.86     1.92799496E-03  22.459807    
 1.75801837E-06 5.86886429E-09  865039.55      865017.08     1.97935501E-03  22.468946    
 1.76979541E-06 5.90818007E-09  882903.84      882881.38     2.03467008E-03  22.449796    
 1.78165135E-06 5.94775924E-09  900403.30      900380.83     2.08811865E-03  22.467312    
 1.79358672E-06 5.98760354E-09  918811.13      918788.67     2.14559434E-03  22.457137    
 1.80560203E-06 6.02771477E-09  937384.15      937361.69     2.20366545E-03  22.457349    
 1.81769784E-06 6.06809470E-09  956002.64      955980.16     2.26173338E-03  22.472802    
 1.82987468E-06 6.10874514E-09  975881.18      975858.73     2.32558909E-03  22.447321    
 1.84213310E-06 6.14966790E-09  995224.05      995201.59     2.38668727E-03  22.464866    
 1.85447363E-06 6.19086481E-09  1015427.3      1015404.8     2.45168970E-03  22.460992    
 1.86689683E-06 6.23233769E-09  1036097.7      1036075.3     2.51875089E-03  22.454887    
 1.87940326E-06 6.27408840E-09  1056630.6      1056608.1     2.58489885E-03  22.472345    
 1.89199346E-06 6.31611880E-09  1078544.2      1078521.8     2.65759628E-03  22.449185    
 1.90466801E-06 6.35843077E-09  1100027.5      1100005.0     2.72794523E-03  22.462416    
 1.91742747E-06 6.40102618E-09  1122200.1      1122177.7     2.80145277E-03  22.464847    
 1.93027240E-06 6.44390694E-09  1145203.6      1145181.1     2.87888658E-03  22.452421    
 1.94320339E-06 6.48707497E-09  1167899.3      1167876.8     2.95450180E-03  22.469907    
 1.95622099E-06 6.53053217E-09  1191952.2      1191929.8     3.03673562E-03  22.453039    
 1.96932581E-06 6.57428050E-09  1215864.1      1215841.6     3.11799602E-03  22.459962    
 1.98251841E-06 6.61832191E-09  1240197.0      1240174.5     3.20111311E-03  22.468703    
 1.99579939E-06 6.66265834E-09  1265795.3      1265772.9     3.29051349E-03  22.449951    
 2.00916934E-06 6.70729179E-09  1290881.6      1290859.1     3.37695089E-03  22.467465    
 2.02262885E-06 6.75222424E-09  1317281.5      1317259.0     3.46996323E-03  22.456894    
 2.03617854E-06 6.79745770E-09  1343895.0      1343872.5     3.56381580E-03  22.457504    
 2.04981899E-06 6.84299417E-09  1370597.3      1370574.8     3.65778898E-03  22.472559    
 2.06355082E-06 6.88883570E-09  1399081.6      1399059.1     3.76099346E-03  22.447477    
 2.07737464E-06 6.93498432E-09  1426810.1      1426787.6     3.85980186E-03  22.465020    
 2.09129106E-06 6.98144209E-09  1455784.6      1455762.1     3.96499527E-03  22.460749    
 2.10530072E-06 7.02821109E-09  1485403.2      1485380.7     4.07337808E-03  22.455042    
 2.11940422E-06 7.07529339E-09  1514837.3      1514814.8     4.18035299E-03  22.472498    
 2.13360221E-06 7.12269110E-09  1546264.2      1546241.7     4.29799700E-03  22.448943    
 2.14789530E-06 7.17040633E-09  1577047.0      1577024.5     4.41169071E-03  22.462570    
 2.16228415E-06 7.21844121E-09  1608845.7      1608823.3     4.53064866E-03  22.464605    
 2.17676939E-06 7.26679787E-09  1641806.8      1641784.4     4.65579636E-03  22.452576    
 2.19135167E-06 7.31547848E-09  1674340.9      1674318.5     4.77808175E-03  22.470061    
 2.20603163E-06 7.36448520E-09  1708835.5      1708813.1     4.91115897E-03  22.452797    
 2.22080994E-06 7.41382021E-09  1743097.8      1743075.4     5.04248811E-03  22.460116    
 2.23568724E-06 7.46348573E-09  1777994.3      1777971.9     5.17699810E-03  22.468461    
 2.25066421E-06 7.51348396E-09  1814673.1      1814650.6     5.32148705E-03  22.450106    
 2.26574151E-06 7.56381713E-09  1850633.5      1850611.1     5.46127410E-03  22.467619    
 2.28091982E-06 7.61448748E-09  1888493.5      1888471.1     5.61179484E-03  22.456652    
 2.29619980E-06 7.66549727E-09  1926626.4      1926603.9     5.76347596E-03  22.457659    
 2.31158215E-06 7.71684879E-09  1964920.5      1964898.1     5.91555554E-03  22.472317    
 2.32706754E-06 7.76854430E-09  2005734.0      2005711.5     6.08235581E-03  22.447633    
 2.34265667E-06 7.82058613E-09  2045481.4      2045458.9     6.24214927E-03  22.465174    
 2.35835023E-06 7.87297659E-09  2087033.2      2087010.7     6.41238348E-03  22.460507    
 2.37414893E-06 7.92571802E-09  2129471.3      2129448.8     6.58754913E-03  22.455197    
 2.39005346E-06 7.97881276E-09  2171663.3      2171640.8     6.76054944E-03  22.472651    
 2.40606454E-06 8.03226319E-09  2216730.9      2216708.4     6.95092889E-03  22.448700    
 2.42218287E-06 8.08607168E-09  2260836.5      2260814.0     7.13467347E-03  22.462724    
 2.43840918E-06 8.14024064E-09  2306437.9      2306415.4     7.32718396E-03  22.464362    
 2.45474420E-06 8.19477248E-09  2353664.5      2353642.1     7.52944604E-03  22.452731    
 2.47118864E-06 8.24966963E-09  2400299.4      2400277.0     7.72720649E-03  22.470214    
 2.48774324E-06 8.30493454E-09  2449765.8      2449743.3     7.94256219E-03  22.452555    
 2.50440875E-06 8.36056967E-09  2498856.0      2498833.6     8.15480966E-03  22.460271    
 2.52118589E-06 8.41657750E-09  2548899.3      2548876.8     8.37248947E-03  22.468218    
 2.53807543E-06 8.47296053E-09  2601451.8      2601429.3     8.60601223E-03  22.450262    
 2.55507811E-06 8.52972128E-09  2652997.2      2652974.8     8.83207638E-03  22.467773    
 2.57219470E-06 8.58686227E-09  2707289.0      2707266.5     9.07566190E-03  22.456410    
 2.58942595E-06 8.64438604E-09  2761924.1      2761901.6     9.32080303E-03  22.457813    
 2.60677263E-06 8.70229518E-09  2816839.0      2816816.6     9.56691752E-03  22.472074    
 2.62423551E-06 8.76059224E-09  2875314.7      2875292.3     9.83650163E-03  22.447788    
 2.64181539E-06 8.81927985E-09  2932287.5      2932265.0     1.00949201E-02  22.465327    
 2.65951303E-06 8.87836060E-09  2991872.5      2991850.0     1.03704093E-02  22.460265    
 2.67732922E-06 8.93783714E-09  3052675.0      3052652.6     1.06535072E-02  22.455352    
 2.69526477E-06 8.99771211E-09  3113151.1      3113128.7     1.09332838E-02  22.472804    
 2.71332047E-06 9.05798819E-09  3177776.3      3177753.9     1.12413681E-02  22.448458    
 2.73149713E-06 9.11866806E-09  3240967.0      3240944.5     1.15383240E-02  22.462878    
 2.74979555E-06 9.17975443E-09  3306358.3      3306335.8     1.18498646E-02  22.464120    
 2.76821656E-06 9.24125002E-09  3374020.5      3373998.0     1.21767574E-02  22.452887    
 2.78676096E-06 9.30315757E-09  3440863.7      3440841.2     1.24965761E-02  22.470367    
 2.80542960E-06 9.36547984E-09  3511795.4      3511772.9     1.28450805E-02  22.452312    
 2.82422330E-06 9.42821962E-09  3582126.6      3582104.1     1.31881035E-02  22.460425    
 2.84314290E-06 9.49137968E-09  3653886.4      3653863.9     1.35403778E-02  22.467976    
 2.86218924E-06 9.55496287E-09  3729177.8      3729155.3     1.39177962E-02  22.450417    
 2.88136318E-06 9.61897199E-09  3803058.0      3803035.5     1.42833876E-02  22.467926    
 2.90066556E-06 9.68340992E-09  3880908.0      3880885.5     1.46775778E-02  22.456167    
 2.92009725E-06 9.74827952E-09  3959181.8      3959159.3     1.50737647E-02  22.457968    
 2.93965911E-06 9.81358368E-09  4037926.4      4037903.9     1.54720578E-02  22.471832    
 2.95935202E-06 9.87932532E-09  4121702.4      4121679.9     1.59077613E-02  22.447944    
 2.97917685E-06 9.94550737E-09  4203360.0      4203337.5     1.63256760E-02  22.465481    
 2.99913449E-06 1.00121328E-08  4288799.0      4288776.5     1.67714979E-02  22.460022    
 3.01922583E-06 1.00792045E-08  4375907.1      4375884.6     1.72290323E-02  22.455507    
 3.03945176E-06 1.01467255E-08  4462585.0      4462562.5     1.76814872E-02  22.472957    
 3.05981319E-06 1.02146989E-08  4555248.6      4555226.1     1.81800483E-02  22.448216    
 3.08031101E-06 1.02831276E-08  4645776.6      4645754.1     1.86599680E-02  22.463032    
 3.10094616E-06 1.03520148E-08  4739539.7      4739517.2     1.91641346E-02  22.463878    
 3.12171953E-06 1.04213634E-08  4836473.4      4836451.0     1.96924526E-02  22.453042    
 3.14263207E-06 1.04911766E-08  4932275.1      4932252.7     2.02096634E-02  22.470521    
 3.16368471E-06 1.05614574E-08  5033979.8      5033957.4     2.07736379E-02  22.452070    
 3.18487837E-06 1.06322091E-08  5134735.5      5134713.0     2.13280122E-02  22.460579    
 3.20621402E-06 1.07034348E-08  5237628.8      5237606.3     2.18981018E-02  22.467733    
 3.22769259E-06 1.07751376E-08  5345490.0      5345467.6     2.25080825E-02  22.450573    
 3.24931505E-06 1.08473207E-08  5451375.3      5451352.8     2.30993167E-02  22.468080    
 3.27108236E-06 1.09199874E-08  5562997.9      5562975.4     2.37372268E-02  22.455925    
 3.29299549E-06 1.09931409E-08  5675129.8      5675107.4     2.43775263E-02  22.458123    
 3.31505541E-06 1.10667844E-08  5788036.5      5788014.0     2.50220925E-02  22.471589    
 3.33726312E-06 1.11409213E-08  5908050.2      5908027.7     2.57262778E-02  22.448100    
 3.35961959E-06 1.12155548E-08  6025079.5      6025057.0     2.64021290E-02  22.465635    
 3.38212584E-06 1.12906884E-08  6147581.2      6147558.7     2.71235978E-02  22.459780    
 3.40478285E-06 1.13663252E-08  6272366.5      6272343.9     2.78630497E-02  22.552321    
 3.42759164E-06 1.14424687E-08  6396589.6      6396566.5     2.85947590E-02  23.014005    
 3.45055323E-06 1.15191223E-08  6529446.8      6529423.1     2.94015598E-02  23.691882    
 3.47366865E-06 1.15962894E-08  6659129.4      6659105.1     3.01771714E-02  24.328701    
 3.49693891E-06 1.16739735E-08  6793564.6      6793539.6     3.09930636E-02  24.986647    
 3.52036506E-06 1.17521780E-08  6932423.0      6932397.3     3.18469195E-02  25.660534    
 3.54394814E-06 1.18309064E-08  7069719.0      7069692.6     3.26833515E-02  26.309161    
 3.56768921E-06 1.19101621E-08  7215536.2      7215509.2     3.35960133E-02  27.011569    
 3.59158932E-06 1.19899488E-08  7359867.1      7359839.4     3.44919597E-02  27.729738    
 3.61564954E-06 1.20702701E-08  7507390.1      7507361.6     3.54145404E-02  28.466319    
 3.63987094E-06 1.21511293E-08  7661898.9      7661869.6     3.64003846E-02  29.236312    
 3.66425460E-06 1.22325303E-08  7813642.3      7813612.3     3.73565266E-02  29.970025    
 3.68880161E-06 1.23144766E-08  7973676.2      7973645.4     3.83888417E-02  30.744748    
 3.71351306E-06 1.23969718E-08  8134299.8      8134268.2     3.94236628E-02  31.506417    
 3.73839005E-06 1.24800197E-08  8296176.5      8296144.2     4.04667759E-02  32.274874    
 3.76343369E-06 1.25636239E-08  8468089.2      8468056.1     4.16048801E-02  33.145223    
 3.78864510E-06 1.26477882E-08  8635799.2      8635765.2     4.26978642E-02  33.975387    
 3.81402541E-06 1.27325163E-08  8811427.1      8811392.2     4.38654069E-02  34.843677    
 3.83957574E-06 1.28178120E-08  8990171.6      8990135.8     4.50604819E-02  35.713935    
 3.86529723E-06 1.29036791E-08  9168187.4      9168150.8     4.62437988E-02  36.562868    
 3.89119103E-06 1.29901214E-08  9358654.8      9358617.3     4.75494087E-02  37.472659    
 3.91725829E-06 1.30771428E-08  9544410.4      9544372.0     4.88028934E-02  38.360441    
 3.94350018E-06 1.31647472E-08  9737142.2      9737102.9     5.01232478E-02  39.324104    
 3.96991787E-06 1.32529384E-08  9936039.5      9935999.2     5.15032280E-02  40.318647    
 3.99651253E-06 1.33417205E-08  10132784.      10132743.     5.28559015E-02  41.279292    
 4.02328535E-06 1.34310972E-08  10341827.      10341785.     5.43328293E-02  42.300151    
 4.05023752E-06 1.35210728E-08  10548559.      10548516.     5.57808009E-02  43.286136    
 4.07737024E-06 1.36116511E-08  10760050.      10760006.     5.72738176E-02  44.283676    
 4.10468473E-06 1.37028361E-08  10981359.      10981313.     5.88671246E-02  45.357309    
 4.13218219E-06 1.37946320E-08  11198801.      11198754.     6.04133917E-02  46.437364    
