 OPTXAGNF AGN Spectrum Model Parameters: NLS, Astar 0.0                          
 M_BH:  3.0000E+06 M_0            L  :  3.0000E-02 L/Ledd 
 D   :  1.5000E+18 cm             z  :   0.000     redshift 
 Rcor:   40.00     Rg             Ro :   4.000     Rg 
 C_T :  0.2000     keV            Tau:   15.00     Optical Depth 
 gam :   2.200     (-slope)       fpl:  0.2000     Fraction 
 E              0.5DeltaE      E.FE total     E.FE Disk      E.FE Compton   E.FE NonThermal
 (keV)          (keV)          E.E/cm2/s/E    E.E/cm2/s/E    E.E/cm2/s/E    E.E/cm2/s/E    
 1.00334952E-06 3.34952256E-09  67445.956      67445.325     6.62890436E-04 0.63026604    
 1.01007101E-06 3.37196116E-09  68782.535      68781.889     6.80306475E-04 0.64492852    
 1.01683752E-06 3.39455008E-09  70175.425      70174.761     6.98772805E-04 0.66314081    
 1.02364936E-06 3.41729032E-09  71606.766      71606.083     7.17949352E-04 0.68165882    
 1.03050683E-06 3.44018290E-09  73025.548      73024.848     7.36804822E-04 0.69952029    
 1.03741024E-06 3.46322884E-09  74536.379      74535.660     7.57459087E-04 0.71867666    
 1.04435990E-06 3.48642917E-09  76024.065      76023.328     7.77578150E-04 0.73698495    
 1.05135611E-06 3.50978492E-09  77552.668      77551.912     7.98459977E-04 0.75598928    
 1.05839920E-06 3.53329712E-09  79145.474      79144.696     8.20601777E-04 0.77692973    
 1.06548946E-06 3.55696684E-09  80713.652      80712.854     8.42155844E-04 0.79713690    
 1.07262722E-06 3.58079512E-09  82371.905      82371.086     8.65518786E-04 0.81859103    
 1.07981280E-06 3.60478303E-09  84027.679      84026.839     8.88757448E-04 0.83950839    
 1.08704652E-06 3.62893164E-09  85705.138      85704.276     9.12368329E-04 0.86038957    
 1.09432869E-06 3.65324201E-09  87477.519      87476.635     9.37930933E-04 0.88243228    
 1.10165965E-06 3.67771524E-09  89210.813      89209.908     9.62569804E-04 0.90395148    
 1.10903971E-06 3.70235243E-09  91030.787      91029.858     9.88994118E-04 0.92779041    
 1.11646922E-06 3.72715465E-09  92873.531      92872.578     1.01583277E-03 0.95170009    
 1.12394850E-06 3.75212303E-09  94714.249      94713.273     1.04252659E-03 0.97509569    
 1.13147788E-06 3.77725867E-09  96686.341      96685.339     1.07203515E-03  1.0002718    
 1.13905770E-06 3.80256270E-09  98602.127      98601.102     1.10020030E-03  1.0239772    
 1.14668830E-06 3.82803623E-09  100599.50      100598.45     1.13008421E-03  1.0485727    
 1.15437002E-06 3.85368042E-09  102650.20      102649.12     1.16107678E-03  1.0744364    
 1.16210319E-06 3.87949640E-09  104683.79      104682.69     1.19156976E-03  1.1007315    
 1.16988818E-06 3.90548532E-09  106850.23      106849.10     1.22499376E-03  1.1290051    
 1.17772531E-06 3.93164835E-09  108981.63      108980.47     1.25750882E-03  1.1560771    
 1.18561494E-06 3.95798663E-09  111173.58      111172.40     1.29130191E-03  1.1836630    
 1.19355743E-06 3.98450137E-09  113455.58      113454.36     1.32708708E-03  1.2121444    
 1.20155313E-06 4.01119372E-09  115703.26      115702.01     1.36194420E-03  1.2396148    
 1.20960239E-06 4.03806489E-09  118081.06      118079.79     1.39975175E-03  1.2697424    
 1.21770557E-06 4.06511607E-09  120453.24      120451.93     1.43730878E-03  1.3005663    
 1.22586303E-06 4.09234846E-09  122858.61      122857.27     1.47551853E-03  1.3315056    
 1.23407514E-06 4.11976329E-09  125397.84      125396.47     1.51683261E-03  1.3640449    
 1.24234227E-06 4.14736177E-09  127882.13      127880.74     1.55667844E-03  1.3950872    
 1.25066478E-06 4.17514513E-09  130491.79      130490.36     1.59944035E-03  1.4275309    
 1.25904304E-06 4.20311462E-09  133131.78      133130.32     1.64281579E-03  1.4599676    
 1.26747742E-06 4.23127147E-09  135771.22      135769.73     1.68601496E-03  1.4931778    
 1.27596831E-06 4.25961695E-09  138596.52      138594.99     1.73370678E-03  1.5302347    
 1.28451608E-06 4.28815232E-09  141342.33      141340.76     1.77925526E-03  1.5653679    
 1.29312111E-06 4.31687884E-09  144206.31      144204.71     1.82761604E-03  1.6017947    
 1.30178379E-06 4.34579781E-09  147144.18      147142.54     1.87770521E-03  1.6386771    
 1.31050450E-06 4.37491051E-09  150058.79      150057.11     1.92701821E-03  1.6746015    
 1.31928362E-06 4.40421823E-09  153165.12      153163.41     1.98110684E-03  1.7129125    
 1.32812156E-06 4.43372228E-09  156218.55      156216.79     2.03365536E-03  1.7516388    
 1.33701871E-06 4.46342399E-09  159361.49      159359.70     2.08834263E-03  1.7924194    
 1.34597546E-06 4.49332467E-09  162630.66      162628.82     2.14617783E-03  1.8345604    
 1.35499221E-06 4.52342565E-09  165852.04      165850.17     2.20254847E-03  1.8752221    
 1.36406936E-06 4.55372829E-09  169261.38      169259.46     2.26373114E-03  1.9180187    
 1.37320733E-06 4.58423392E-09  172659.67      172657.71     2.32442855E-03  1.9599010    
 1.38240650E-06 4.61494391E-09  176108.57      176106.57     2.38626366E-03  2.0021728    
 1.39166731E-06 4.64585962E-09  179746.17      179744.12     2.45303501E-03  2.0487897    
 1.40099015E-06 4.67698245E-09  183306.61      183304.51     2.51747331E-03  2.0947855    
 1.41037545E-06 4.70831376E-09  187048.32      187046.17     2.58667384E-03  2.1428808    
 1.41982361E-06 4.73985497E-09  190830.20      190828.01     2.65677511E-03  2.1907117    
 1.42933508E-06 4.77160747E-09  194614.66      194612.41     2.72668506E-03  2.2378451    
 1.43891026E-06 4.80357269E-09  198661.97      198659.68     2.80376452E-03  2.2878893    
 1.44854958E-06 4.83575204E-09  202597.11      202594.77     2.87742504E-03  2.3361808    
 1.45825348E-06 4.86814696E-09  206703.40      206701.01     2.95568653E-03  2.3887206    
 1.46802239E-06 4.90075889E-09  210911.92      210909.47     3.03663877E-03  2.4433690    
 1.47785673E-06 4.93358930E-09  215088.92      215086.42     3.11638721E-03  2.4966420    
 1.48775696E-06 4.96663964E-09  219542.55      219539.99     3.20391630E-03  2.5531065    
 1.49772351E-06 4.99991138E-09  223916.52      223913.91     3.28884122E-03  2.6074796    
 1.50775683E-06 5.03340601E-09  228422.69      228420.03     3.37734128E-03  2.6628940    
 1.51785736E-06 5.06712502E-09  233105.68      233102.96     3.47081298E-03  2.7206616    
 1.52802556E-06 5.10106992E-09  237722.23      237719.44     3.56197489E-03  2.7797944    
 1.53826187E-06 5.13524222E-09  242610.19      242607.34     3.66098448E-03  2.8433012    
 1.54856676E-06 5.16964344E-09  247478.08      247475.17     3.75907972E-03  2.9053863    
 1.55894067E-06 5.20427512E-09  252422.82      252419.85     3.85914765E-03  2.9676613    
 1.56938409E-06 5.23913879E-09  257633.46      257630.42     3.96706243E-03  3.0326168    
 1.57989746E-06 5.27423602E-09  262735.77      262732.67     4.07127119E-03  3.0951466    
 1.59048127E-06 5.30956836E-09  268100.15      268096.99     4.18325638E-03  3.1613056    
 1.60113597E-06 5.34513740E-09  273517.38      273514.15     4.29655034E-03  3.2313017    
 1.61186206E-06 5.38094472E-09  278943.11      278939.81     4.40968647E-03  3.3012524    
 1.62265999E-06 5.41699191E-09  284740.51      284737.13     4.53426184E-03  3.3754840    
 1.63353026E-06 5.45328058E-09  290379.65      290376.20     4.65338460E-03  3.4462565    
 1.64447336E-06 5.48981235E-09  296266.61      296263.09     4.78003356E-03  3.5194205    
 1.65548976E-06 5.52658885E-09  302294.80      302291.20     4.91086516E-03  3.5932986    
 1.66657996E-06 5.56361172E-09  308280.45      308276.78     5.03983313E-03  3.6671462    
 1.67774445E-06 5.60088261E-09  314665.16      314661.40     5.18147697E-03  3.7501517    
 1.68898374E-06 5.63840317E-09  320930.25      320926.41     5.31872576E-03  3.8307790    
 1.70029832E-06 5.67617509E-09  327390.36      327386.44     5.46194440E-03  3.9130496    
 1.71168869E-06 5.71420004E-09  334098.01      334094.01     5.61301043E-03  3.9974271    
 1.72315537E-06 5.75247973E-09  340713.35      340709.27     5.76043598E-03  4.0793483    
 1.73469887E-06 5.79101585E-09  347720.56      347716.39     5.92065896E-03  4.1651711    
 1.74631969E-06 5.82981012E-09  354692.93      354688.67     6.07919370E-03  4.2520020    
 1.75801837E-06 5.86886429E-09  361781.64      361777.29     6.24113342E-03  4.3436473    
 1.76979541E-06 5.90818007E-09  369244.87      369240.42     6.41554302E-03  4.4400706    
 1.78165135E-06 5.94775924E-09  376556.09      376551.56     6.58406762E-03  4.5328183    
 1.79358672E-06 5.98760354E-09  384246.13      384241.49     6.76528942E-03  4.6294254    
 1.80560203E-06 6.02771477E-09  392005.11      392000.38     6.94838852E-03  4.7254485    
 1.81769784E-06 6.06809470E-09  399783.18      399778.35     7.13147756E-03  4.8204886    
 1.82987468E-06 6.10874514E-09  408086.60      408081.66     7.33281492E-03  4.9246114    
 1.84213310E-06 6.14966790E-09  416166.84      416161.80     7.52545803E-03  5.0291155    
 1.85447363E-06 6.19086481E-09  424605.81      424600.66     7.73041082E-03  5.1378056    
 1.86689683E-06 6.23233769E-09  433239.63      433234.37     7.94185466E-03  5.2474620    
 1.87940326E-06 6.27408840E-09  441816.23      441810.87     8.15041915E-03  5.3548248    
 1.89199346E-06 6.31611880E-09  450968.40      450962.92     8.37963338E-03  5.4681060    
 1.90466801E-06 6.35843077E-09  459941.34      459935.75     8.60144306E-03  5.5778438    
 1.91742747E-06 6.40102618E-09  469201.71      469196.00     8.83321141E-03  5.6941308    
 1.93027240E-06 6.44390694E-09  478808.39      478802.56     9.07735879E-03  5.8188699    
 1.94320339E-06 6.48707497E-09  488286.98      488281.03     9.31577233E-03  5.9404265    
 1.95622099E-06 6.53053217E-09  498331.24      498325.16     9.57505345E-03  6.0680108    
 1.96932581E-06 6.57428050E-09  508316.85      508310.65     9.83126545E-03  6.1928475    
 1.98251841E-06 6.61832191E-09  518478.05      518471.72     1.00933313E-02  6.3183501    
 1.99579939E-06 6.66265834E-09  529166.54      529160.08     1.03752075E-02  6.4492295    
 2.00916934E-06 6.70729179E-09  539641.88      539635.29     1.06477417E-02  6.5814390    
 2.02262885E-06 6.75222424E-09  550664.63      550657.90     1.09410058E-02  6.7245252    
 2.03617854E-06 6.79745770E-09  561776.49      561769.61     1.12369189E-02  6.8670626    
 2.04981899E-06 6.84299417E-09  572925.56      572918.54     1.15332122E-02  7.0081742    
 2.06355082E-06 6.88883570E-09  584816.95      584809.79     1.18586104E-02  7.1569470    
 2.07737464E-06 6.93498432E-09  596393.76      596386.45     1.21701483E-02  7.2996076    
 2.09129106E-06 6.98144209E-09  608489.69      608482.23     1.25018170E-02  7.4477763    
 2.10530072E-06 7.02821109E-09  620854.01      620846.40     1.28435413E-02  7.6048875    
 2.11940422E-06 7.07529339E-09  633141.75      633133.97     1.31808267E-02  7.7639088    
 2.13360221E-06 7.12269110E-09  646259.45      646251.50     1.35517499E-02  7.9324421    
 2.14789530E-06 7.17040633E-09  659109.18      659101.07     1.39102183E-02  8.0947462    
 2.16228415E-06 7.21844121E-09  672382.11      672373.83     1.42852838E-02  8.2604882    
 2.17676939E-06 7.26679787E-09  686139.18      686130.74     1.46798644E-02  8.4299014    
 2.19135167E-06 7.31547848E-09  699718.73      699710.12     1.50654206E-02  8.5964418    
 2.20603163E-06 7.36448520E-09  714114.65      714105.85     1.54850012E-02  8.7801203    
 2.22080994E-06 7.41382021E-09  728414.10      728405.12     1.58990704E-02  8.9654021    
 2.23568724E-06 7.46348573E-09  742977.80      742968.63     1.63231681E-02  9.1518338    
 2.25066421E-06 7.51348396E-09  758283.54      758274.17     1.67787272E-02  9.3453720    
 2.26574151E-06 7.56381713E-09  773290.58      773281.03     1.72194621E-02  9.5323615    
 2.28091982E-06 7.61448748E-09  789088.45      789078.70     1.76940379E-02  9.7267763    
 2.29619980E-06 7.66549727E-09  805000.11      804990.17     1.81722720E-02  9.9223805    
 2.31158215E-06 7.71684879E-09  820979.24      820969.09     1.86517623E-02  10.126698    
 2.32706754E-06 7.76854430E-09  838006.90      837996.53     1.91776633E-02  10.347935    
 2.34265667E-06 7.82058613E-09  854591.32      854580.74     1.96814734E-02  10.559657    
 2.35835023E-06 7.87297659E-09  871926.79      871915.99     2.02182005E-02  10.778574    
 2.37414893E-06 7.92571802E-09  889631.28      889620.26     2.07704751E-02  10.998997    
 2.39005346E-06 7.97881276E-09  907233.75      907222.51     2.13159229E-02  11.215473    
 2.40606454E-06 8.03226319E-09  926032.76      926021.29     2.19161624E-02  11.446638    
 2.42218287E-06 8.08607168E-09  944431.93      944420.22     2.24954837E-02  11.683762    
 2.43840918E-06 8.14024064E-09  963453.65      963441.70     2.31024416E-02  11.930102    
 2.45474420E-06 8.19477248E-09  983151.68      983139.47     2.37401433E-02  12.181878    
 2.47118864E-06 8.24966963E-09  1002604.0      1002591.6     2.43636525E-02  12.426980    
 2.48774324E-06 8.30493454E-09  1023234.2      1023221.5     2.50426345E-02  12.683719    
 2.50440875E-06 8.36056967E-09  1043708.4      1043695.4     2.57118168E-02  12.934982    
 2.52118589E-06 8.41657750E-09  1064579.2      1064566.0     2.63981257E-02  13.192273    
 2.53807543E-06 8.47296053E-09  1086493.8      1086480.3     2.71343824E-02  13.476429    
 2.55507811E-06 8.52972128E-09  1107990.2      1107976.4     2.78471242E-02  13.753944    
 2.57219470E-06 8.58686227E-09  1130628.7      1130614.6     2.86151053E-02  14.043150    
 2.58942595E-06 8.64438604E-09  1153410.4      1153396.0     2.93879905E-02  14.329919    
 2.60677263E-06 8.70229518E-09  1176308.9      1176294.3     3.01639443E-02  14.614654    
 2.62423551E-06 8.76059224E-09  1200687.9      1200673.0     3.10138900E-02  14.913412    
 2.64181539E-06 8.81927985E-09  1224442.7      1224427.5     3.18286339E-02  15.208621    
 2.65951303E-06 8.87836060E-09  1249283.8      1249268.3     3.26971957E-02  15.530489    
 2.67732922E-06 8.93783714E-09  1274631.3      1274615.4     3.35897452E-02  15.857991    
 2.69526477E-06 8.99771211E-09  1299843.8      1299827.6     3.44718234E-02  16.179276    
 2.71332047E-06 9.05798819E-09  1326780.8      1326764.2     3.54431457E-02  16.518399    
 2.73149713E-06 9.11866806E-09  1353122.3      1353105.4     3.63793836E-02  16.845296    
 2.74979555E-06 9.17975443E-09  1380378.7      1380361.5     3.73616017E-02  17.179409    
 2.76821656E-06 9.24125002E-09  1408579.1      1408561.6     3.83922193E-02  17.532032    
 2.78676096E-06 9.30315757E-09  1436440.0      1436422.1     3.94005345E-02  17.892917    
 2.80542960E-06 9.36547984E-09  1465999.8      1465981.5     4.04992850E-02  18.275066    
 2.82422330E-06 9.42821962E-09  1495310.8      1495292.1     4.15807540E-02  18.648083    
 2.84314290E-06 9.49137968E-09  1525215.8      1525196.7     4.26913888E-02  19.024125    
 2.86218924E-06 9.55496287E-09  1556588.2      1556568.7     4.38812925E-02  19.413106    
 2.88136318E-06 9.61897199E-09  1587375.2      1587355.3     4.50339099E-02  19.790803    
 2.90066556E-06 9.68340992E-09  1619811.4      1619791.2     4.62766877E-02  20.197936    
 2.92009725E-06 9.74827952E-09  1652424.3      1652403.6     4.75257595E-02  20.621597    
 2.93965911E-06 9.81358368E-09  1685233.5      1685212.4     4.87814711E-02  21.044516    
 2.95935202E-06 9.87932532E-09  1720132.2      1720110.7     5.01551214E-02  21.489032    
 2.97917685E-06 9.94550737E-09  1754152.4      1754130.4     5.14726910E-02  21.916007    
 2.99913449E-06 1.00121328E-08  1789743.0      1789720.6     5.28782394E-02  22.357199    
 3.01922583E-06 1.00792045E-08  1826027.2      1826004.4     5.43207116E-02  22.802441    
 3.03945176E-06 1.01467255E-08  1862133.9      1862110.5     5.57471699E-02  23.257474    
 3.05981319E-06 1.02146989E-08  1900725.5      1900701.6     5.73189797E-02  23.760244    
 3.08031101E-06 1.02831276E-08  1938431.7      1938407.4     5.88320210E-02  24.245331    
 3.10094616E-06 1.03520148E-08  1977481.4      1977456.6     6.04215015E-02  24.742058    
 3.12171953E-06 1.04213634E-08  2017847.5      2017822.2     6.20871191E-02  25.248421    
 3.14263207E-06 1.04911766E-08  2057745.0      2057719.2     6.37177204E-02  25.742718    
 3.16368471E-06 1.05614574E-08  2100092.4      2100066.0     6.54957448E-02  26.262451    
 3.18487837E-06 1.06322091E-08  2142047.1      2142020.2     6.72435034E-02  26.795186    
 3.20621402E-06 1.07034348E-08  2184889.6      2184862.2     6.90408043E-02  27.352286    
 3.22769259E-06 1.07751376E-08  2229793.7      2229765.7     7.09638610E-02  27.930850    
 3.24931505E-06 1.08473207E-08  2273879.5      2273850.9     7.28278186E-02  28.490557    
 3.27108236E-06 1.09199874E-08  2320345.6      2320316.5     7.48389210E-02  29.073275    
 3.29299549E-06 1.09931409E-08  2367024.2      2366994.4     7.68575548E-02  29.650532    
 3.31505541E-06 1.10667844E-08  2414025.3      2413995.0     7.88896388E-02  30.228304    
 3.33726312E-06 1.11409213E-08  2463974.1      2463943.1     8.11096692E-02  30.865913    
 3.35961959E-06 1.12155548E-08  2512687.0      2512655.4     8.32403766E-02  31.499414    
 3.38212584E-06 1.12906884E-08  2563669.8      2563637.5     8.55148905E-02  32.155697    
 3.40478285E-06 1.13663252E-08  2615600.3      2615567.4     8.78460941E-02  32.814714    
 3.42759164E-06 1.14424687E-08  2667299.2      2667265.7     9.01528889E-02  33.462676    
 3.45055323E-06 1.15191223E-08  2722577.6      2722543.3     9.26964035E-02  34.145506    
 3.47366865E-06 1.15962894E-08  2776541.9      2776507.0     9.51415953E-02  34.810666    
 3.49693891E-06 1.16739735E-08  2832477.2      2832441.5     9.77137678E-02  35.527068    
 3.52036506E-06 1.17521780E-08  2890246.5      2890210.1     0.10040562      36.279921    
 3.54394814E-06 1.18309064E-08  2947370.3      2947333.2     0.10304254      37.013628    
 3.56768921E-06 1.19101621E-08  3008025.6      3007987.7     0.10591976      37.783451    
 3.59158932E-06 1.19899488E-08  3068066.9      3068028.2     0.10874429      38.534670    
 3.61564954E-06 1.20702701E-08  3129432.1      3129392.7     0.11165278      39.293265    
 3.63987094E-06 1.21511293E-08  3193692.1      3193651.9     0.11476070      40.085359    
 3.66425460E-06 1.22325303E-08  3256809.0      3256768.0     0.11777499      40.899163    
 3.68880161E-06 1.23144766E-08  3323360.5      3323318.7     0.12102940      41.766451    
 3.71351306E-06 1.23969718E-08  3390158.1      3390115.4     0.12429171      42.623905    
 3.73839005E-06 1.24800197E-08  3457476.7      3457433.1     0.12758016      43.477444    
 3.76343369E-06 1.25636239E-08  3528951.6      3528907.1     0.13116805      44.371156    
 3.78864510E-06 1.26477882E-08  3598689.0      3598643.6     0.13461370      45.232292    
 3.81402541E-06 1.27325163E-08  3671705.8      3671659.5     0.13829439      46.134331    
 3.83957574E-06 1.28178120E-08  3746014.5      3745967.2     0.14206186      47.099144    
 3.86529723E-06 1.29036791E-08  3820024.2      3819976.0     0.14579227      48.060853    
 3.89119103E-06 1.29901214E-08  3899188.1      3899138.9     0.14990818      49.078095    
 3.91725829E-06 1.30771428E-08  3976404.9      3976354.7     0.15385978      50.055405    
 3.94350018E-06 1.31647472E-08  4056510.5      4056459.3     0.15802216      51.057159    
 3.96991787E-06 1.32529384E-08  4139168.7      4139116.4     0.16237250      52.075992    
 3.99651253E-06 1.33417205E-08  4220939.3      4220886.1     0.16663676      53.092772    
 4.02328535E-06 1.34310972E-08  4307798.9      4307744.5     0.17129270      54.223389    
 4.05023752E-06 1.35210728E-08  4393705.6      4393650.0     0.17585736      55.338685    
 4.07737024E-06 1.36116511E-08  4481582.9      4481526.3     0.18056401      56.466168    
 4.10468473E-06 1.37028361E-08  4573522.2      4573464.3     0.18558680      57.629893    
 4.13218219E-06 1.37946320E-08  4663865.9      4663807.0     0.19046131      58.758751    
