 OPTXAGNF AGN Spectrum Model Parameters: NLS, Astar 0.0                          
 M_BH:  3.0000E+07 M_0            L  :  0.2000     L/Ledd 
 D   :  1.5000E+18 cm             z  :   0.000     redshift 
 Rcor:   40.00     Rg             Ro :   4.000     Rg 
 C_T :  0.2000     keV            Tau:   15.00     Optical Depth 
 gam :   2.200     (-slope)       fpl:  0.2000     Fraction 
 E              0.5DeltaE      E.FE total     E.FE Disk      E.FE Compton   E.FE NonThermal
 (keV)          (keV)          E.E/cm2/s/E    E.E/cm2/s/E    E.E/cm2/s/E    E.E/cm2/s/E    
 1.00334952E-06 3.34952256E-09  6094504.3      6094421.1     9.05113967E-02  83.168033    
 1.01007101E-06 3.37196116E-09  6215266.6      6215181.4     9.28893807E-02  85.143479    
 1.01683752E-06 3.39455008E-09  6341115.5      6341028.2     9.54107704E-02  87.219489    
 1.02364936E-06 3.41729032E-09  6470437.8      6470348.4     9.80291326E-02  89.327166    
 1.03050683E-06 3.44018290E-09  6598625.9      6598534.4     0.10060366      91.373159    
 1.03741024E-06 3.46322884E-09  6735128.9      6735035.3     0.10342378      93.546880    
 1.04435990E-06 3.48642917E-09  6869541.5      6869445.8     0.10617084      95.641359    
 1.05135611E-06 3.50978492E-09  7007650.3      7007552.4     0.10902203      97.817300    
 1.05839920E-06 3.53329712E-09  7151558.6      7151458.3     0.11204527      100.20194    
 1.06548946E-06 3.55696684E-09  7293242.6      7293140.0     0.11498826      102.51756    
 1.07262722E-06 3.58079512E-09  7443063.1      7442958.1     0.11817822      104.95891    
 1.07981280E-06 3.60478303E-09  7592659.9      7592552.5     0.12135122      107.34916    
 1.08704652E-06 3.62893164E-09  7744215.7      7744105.8     0.12457504      109.73825    
 1.09432869E-06 3.65324201E-09  7904345.6      7904233.3     0.12806535      112.24474    
 1.10165965E-06 3.67771524E-09  8060945.3      8060830.4     0.13142953      114.71637    
 1.10903971E-06 3.70235243E-09  8225374.7      8225257.2     0.13503750      117.43848    
 1.11646922E-06 3.72715465E-09  8391861.0      8391740.7     0.13870203      120.16928    
 1.12394850E-06 3.75212303E-09  8558164.7      8558041.7     0.14234679      122.85074    
 1.13147788E-06 3.77725867E-09  8736334.8      8736208.9     0.14637588      125.71313    
 1.13905770E-06 3.80256270E-09  8909419.5      8909290.9     0.15022153      128.43023    
 1.14668830E-06 3.82803623E-09  9089873.4      9089742.0     0.15430186      131.23892    
 1.15437002E-06 3.85368042E-09  9275144.7      9275010.4     0.15853357      134.19715    
 1.16210319E-06 3.87949640E-09  9458870.7      9458733.3     0.16269707      137.21672    
 1.16988818E-06 3.90548532E-09  9654596.6      9654456.0     0.16726076      140.43810    
 1.17772531E-06 3.93164835E-09  9847157.5      9847013.8     0.17170034      143.53893    
 1.18561494E-06 3.95798663E-09  10045188.      10045041.     0.17631443      146.69467    
 1.19355743E-06 3.98450137E-09  10251352.      10251202.     0.18120051      149.94363    
 1.20155313E-06 4.01119372E-09  10454416.      10454263.     0.18595987      153.09344    
 1.20960239E-06 4.03806489E-09  10669234.      10669077.     0.19112209      156.53988    
 1.21770557E-06 4.06511607E-09  10883544.      10883384.     0.19625009      160.07210    
 1.22586303E-06 4.09234846E-09  11100853.      11100689.     0.20146722      163.61651    
 1.23407514E-06 4.11976329E-09  11330251.      11330084.     0.20710821      167.32850    
 1.24234227E-06 4.14736177E-09  11554689.      11554518.     0.21254873      170.88830    
 1.25066478E-06 4.17514513E-09  11790449.      11790275.     0.21838740      174.59508    
 1.25904304E-06 4.20311462E-09  12028950.      12028771.     0.22430984      178.30694    
 1.26747742E-06 4.23127147E-09  12267401.      12267218.     0.23020822      182.12557    
 1.27596831E-06 4.25961695E-09  12522638.      12522451.     0.23672001      186.35627    
 1.28451608E-06 4.28815232E-09  12770697.      12770506.     0.24293916      190.38609    
 1.29312111E-06 4.31687884E-09  13029429.      13029234.     0.24954229      194.55388    
 1.30178379E-06 4.34579781E-09  13294835.      13294636.     0.25638141      198.77149    
 1.31050450E-06 4.37491051E-09  13558140.      13557937.     0.26311456      202.89183    
 1.31928362E-06 4.40421823E-09  13838761.      13838554.     0.27049976      207.26922    
 1.32812156E-06 4.43372228E-09  14114605.      14114393.     0.27767467      211.72057    
 1.33701871E-06 4.46342399E-09  14398534.      14398317.     0.28514161      216.39367    
 1.34597546E-06 4.49332467E-09  14693862.      14693640.     0.29303836      221.21222    
 1.35499221E-06 4.52342565E-09  14984876.      14984650.     0.30073514      225.87681    
 1.36406936E-06 4.55372829E-09  15292864.      15292633.     0.30908894      230.76940    
 1.37320733E-06 4.58423392E-09  15599856.      15599621.     0.31737649      235.56794    
 1.38240650E-06 4.61494391E-09  15911419.      15911179.     0.32581938      240.41897    
 1.39166731E-06 4.64585962E-09  16240024.      16239778.     0.33493625      245.76189    
 1.40099015E-06 4.67698245E-09  16561661.      16561409.     0.34373456      251.03968    
 1.41037545E-06 4.70831376E-09  16899669.      16899412.     0.35318311      256.54429    
 1.41982361E-06 4.73985497E-09  17241305.      17241043.     0.36275464      262.02297    
 1.42933508E-06 4.77160747E-09  17583175.      17582907.     0.37230004      267.43005    
 1.43891026E-06 4.80357269E-09  17948783.      17948510.     0.38282435      273.14958    
 1.44854958E-06 4.83575204E-09  18304262.      18303982.     0.39288185      278.70014    
 1.45825348E-06 4.86814696E-09  18675197.      18674912.     0.40356756      284.73107    
 1.46802239E-06 4.90075889E-09  19055365.      19055073.     0.41462065      290.98970    
 1.47785673E-06 4.93358930E-09  19432688.      19432390.     0.42550937      297.10267    
 1.48775696E-06 4.96663964E-09  19834991.      19834687.     0.43746045      303.56182    
 1.49772351E-06 4.99991138E-09  20230103.      20229793.     0.44905596      309.79838    
 1.50775683E-06 5.03340601E-09  20637153.      20636837.     0.46113961      316.14973    
 1.51785736E-06 5.06712502E-09  21060171.      21059848.     0.47390207      322.77887    
 1.52802556E-06 5.10106992E-09  21477190.      21476860.     0.48634916      329.57490    
 1.53826187E-06 5.13524222E-09  21918719.      21918382.     0.49986775      336.84626    
 1.54856676E-06 5.16964344E-09  22358436.      22358092.     0.51326149      343.96549    
 1.55894067E-06 5.20427512E-09  22805095.      22804743.     0.52692458      351.10815    
 1.56938409E-06 5.23913879E-09  23275764.      23275405.     0.54165906      358.54386    
 1.57989746E-06 5.27423602E-09  23736652.      23736286.     0.55588753      365.72102    
 1.59048127E-06 5.30956836E-09  24221207.      24220833.     0.57117777      373.32031    
 1.60113597E-06 5.34513740E-09  24710534.      24710152.     0.58664670      381.35283    
 1.61186206E-06 5.38094472E-09  25200630.      25200240.     0.60209408      389.38033    
 1.62265999E-06 5.41699191E-09  25724287.      25723888.     0.61910334      397.87840    
 1.63353026E-06 5.45328058E-09  26233655.      26233248.     0.63536811      406.00094    
 1.64447336E-06 5.48981235E-09  26765401.      26764986.     0.65266049      414.38748    
 1.65548976E-06 5.52658885E-09  27309901.      27309477.     0.67052396      422.85700    
 1.66657996E-06 5.56361172E-09  27850560.      27850128.     0.68813296      431.35089    
 1.67774445E-06 5.60088261E-09  28427253.      28426812.     0.70747269      440.87151    
 1.68898374E-06 5.63840317E-09  28993147.      28992697.     0.72621234      450.12359    
 1.70029832E-06 5.67617509E-09  29576652.      29576191.     0.74576708      459.55929    
 1.71168869E-06 5.71420004E-09  30182507.      30182037.     0.76639328      469.22904    
 1.72315537E-06 5.75247973E-09  30780030.      30779551.     0.78652242      478.63175    
 1.73469887E-06 5.79101585E-09  31412936.      31412446.     0.80839887      488.46549    
 1.74631969E-06 5.82981012E-09  32042696.      32042197.     0.83004482      498.44641    
 1.75801837E-06 5.86886429E-09  32682964.      32682454.     0.85215567      508.98139    
 1.76979541E-06 5.90818007E-09  33357047.      33356526.     0.87596911      520.03156    
 1.78165135E-06 5.94775924E-09  34017408.      34016877.     0.89897904      530.67775    
 1.79358672E-06 5.98760354E-09  34711972.      34711429.     0.92372259      541.75331    
 1.80560203E-06 6.02771477E-09  35412762.      35412209.     0.94872246      552.76687    
 1.81769784E-06 6.06809470E-09  36115278.      36114713.     0.97372095      563.67500    
 1.82987468E-06 6.10874514E-09  36865225.      36864648.      1.0012110      575.63659    
 1.84213310E-06 6.14966790E-09  37595026.      37594437.      1.0275140      587.64755    
 1.85447363E-06 6.19086481E-09  38357215.      38356614.      1.0554977      600.11403    
 1.86689683E-06 6.23233769E-09  39136997.      39136384.      1.0843676      612.69028    
 1.87940326E-06 6.27408840E-09  39911617.      39910991.      1.1128444      625.01469    
 1.89199346E-06 6.31611880E-09  40738200.      40737560.      1.1441406      637.99862    
 1.90466801E-06 6.35843077E-09  41548604.      41547952.      1.1744259      650.59764    
 1.91742747E-06 6.40102618E-09  42384960.      42384295.      1.2060708      663.97513    
 1.93027240E-06 6.44390694E-09  43252582.      43251902.      1.2394060      678.29247    
 1.94320339E-06 6.48707497E-09  44108643.      44107950.      1.2719582      692.24703    
 1.95622099E-06 6.53053217E-09  45015773.      45015065.      1.3073597      706.87680    
 1.96932581E-06 6.57428050E-09  45917611.      45916888.      1.3423421      721.20267    
 1.98251841E-06 6.61832191E-09  46835302.      46834565.      1.3781237      735.60579    
 1.99579939E-06 6.66265834E-09  47800596.      47799844.      1.4166102      750.62261    
 2.00916934E-06 6.70729179E-09  48746652.      48745885.      1.4538211      765.84140    
 2.02262885E-06 6.75222424E-09  49742126.      49741342.      1.4938624      782.26325    
 2.03617854E-06 6.79745770E-09  50745647.      50744847.      1.5342654      798.61888    
 2.04981899E-06 6.84299417E-09  51752530.      51751714.      1.5747203      814.81776    
 2.06355082E-06 6.88883570E-09  52826426.      52825592.      1.6191490      831.87665    
 2.07737464E-06 6.93498432E-09  53871926.      53871076.      1.6616853      848.25446    
 2.09129106E-06 6.98144209E-09  54964291.      54963424.      1.7069702      865.27113    
 2.10530072E-06 7.02821109E-09  56080886.      56080001.      1.7536280      883.34432    
 2.11940422E-06 7.07529339E-09  57190571.      57189668.      1.7996797      901.60523    
 2.13360221E-06 7.12269110E-09  58375176.      58374254.      1.8503242      920.93426    
 2.14789530E-06 7.17040633E-09  59535597.      59534656.      1.8992682      939.56610    
 2.16228415E-06 7.21844121E-09  60734222.      60733261.      1.9504782      958.58695    
 2.17676939E-06 7.26679787E-09  61976550.      61975570.      2.0043527      978.02243    
 2.19135167E-06 7.31547848E-09  63202858.      63201859.      2.0569951      997.17087    
 2.20603163E-06 7.36448520E-09  64502857.      64501836.      2.1142830      1018.2920    
 2.22080994E-06 7.41382021E-09  65794152.      65793111.      2.1708184      1039.5596    
 2.23568724E-06 7.46348573E-09  67109303.      67108240.      2.2287230      1060.9596    
 2.25066421E-06 7.51348396E-09  68491434.      68490348.      2.2909232      1083.1625    
 2.26574151E-06 7.56381713E-09  69846609.      69845502.      2.3510994      1104.6309    
 2.28091982E-06 7.61448748E-09  71273166.      71272037.      2.4158960      1126.9380    
 2.29619980E-06 7.66549727E-09  72709998.      72708846.      2.4811921      1149.4355    
 2.31158215E-06 7.71684879E-09  74152925.      74151749.      2.5466597      1172.9344    
 2.32706754E-06 7.76854430E-09  75690491.      75689290.      2.6184639      1198.3151    
 2.34265667E-06 7.82058613E-09  77188058.      77186832.      2.6872520      1222.6239    
 2.35835023E-06 7.87297659E-09  78753413.      78752163.      2.7605344      1247.7478    
 2.37414893E-06 7.92571802E-09  80352079.      80350803.      2.8359395      1273.0444    
 2.39005346E-06 7.97881276E-09  81941543.      81940242.      2.9104125      1297.8996    
 2.40606454E-06 8.03226319E-09  83638999.      83637671.      2.9923665      1324.4915    
 2.42218287E-06 8.08607168E-09  85300376.      85299021.      3.0714644      1351.7469    
 2.43840918E-06 8.14024064E-09  87017944.      87016560.      3.1543356      1380.0231    
 2.45474420E-06 8.19477248E-09  88796551.      88795139.      3.2414044      1408.9170    
 2.47118864E-06 8.24966963E-09  90552991.      90551551.      3.3265355      1437.0588    
 2.48774324E-06 8.30493454E-09  92415731.      92414261.      3.4192404      1466.5195    
 2.50440875E-06 8.36056967E-09  94264401.      94262902.      3.5106073      1495.3702    
 2.52118589E-06 8.41657750E-09  96148876.      96147347.      3.6043126      1524.9680    
 2.53807543E-06 8.47296053E-09  98127546.      98125985.      3.7048374      1557.6269    
 2.55507811E-06 8.52972128E-09 1.00068479E+08 1.00066886E+08  3.8021517      1589.4921    
 2.57219470E-06 8.58686227E-09 1.02112490E+08 1.02110863E+08  3.9070079      1622.6844    
 2.58942595E-06 8.64438604E-09 1.04169425E+08 1.04167765E+08  4.0125337      1655.6029    
 2.60677263E-06 8.70229518E-09 1.06236915E+08 1.06235223E+08  4.1184785      1688.2941    
 2.62423551E-06 8.76059224E-09 1.08438004E+08 1.08436278E+08  4.2345256      1722.5766    
 2.64181539E-06 8.81927985E-09 1.10582778E+08 1.10581017E+08  4.3457665      1756.5306    
 2.65951303E-06 8.87836060E-09 1.12825578E+08 1.12823780E+08  4.4643553      1793.5544    
 2.67732922E-06 8.93783714E-09 1.15114084E+08 1.15112248E+08  4.5862192      1831.1474    
 2.69526477E-06 8.99771211E-09 1.17390412E+08 1.17388539E+08  4.7066535      1868.0375    
 2.71332047E-06 9.05798819E-09 1.19822358E+08 1.19820446E+08  4.8392724      1906.9553    
 2.73149713E-06 9.11866806E-09 1.22200579E+08 1.22198629E+08  4.9671012      1944.4882    
 2.74979555E-06 9.17975443E-09 1.24661365E+08 1.24659377E+08  5.1012078      1982.8430    
 2.76821656E-06 9.24125002E-09 1.27207334E+08 1.27205305E+08  5.2419224      2023.4114    
 2.78676096E-06 9.30315757E-09 1.29722676E+08 1.29720605E+08  5.3795921      2064.9113    
 2.80542960E-06 9.36547984E-09 1.32391317E+08 1.32389202E+08  5.5296091      2108.7730    
 2.82422330E-06 9.42821962E-09 1.35037515E+08 1.35035358E+08  5.6772666      2151.5990    
 2.84314290E-06 9.49137968E-09 1.37737327E+08 1.37735127E+08  5.8289061      2194.7719    
 2.86218924E-06 9.55496287E-09 1.40569531E+08 1.40567286E+08  5.9913685      2239.4181    
 2.88136318E-06 9.61897199E-09 1.43348941E+08 1.43346652E+08  6.1487400      2282.7934    
 2.90066556E-06 9.68340992E-09 1.46277153E+08 1.46274817E+08  6.3184213      2329.6505    
 2.92009725E-06 9.74827952E-09 1.49221314E+08 1.49218929E+08  6.4889619      2378.3373    
 2.93965911E-06 9.81358368E-09 1.52183203E+08 1.52180770E+08  6.6604090      2426.8965    
 2.95935202E-06 9.87932532E-09 1.55333609E+08 1.55331125E+08  6.8479586      2477.9166    
 2.97917685E-06 9.94550737E-09 1.58404768E+08 1.58402234E+08  7.0278513      2526.9432    
 2.99913449E-06 1.00121328E-08 1.61617622E+08 1.61615037E+08  7.2197559      2577.5908    
 3.01922583E-06 1.00792045E-08 1.64893060E+08 1.64890424E+08  7.4167017      2628.7300    
 3.03945176E-06 1.01467255E-08 1.68152495E+08 1.68149806E+08  7.6114611      2681.1207    
 3.05981319E-06 1.02146989E-08 1.71636113E+08 1.71633366E+08  7.8260656      2738.8676    
 3.08031101E-06 1.02831276E-08 1.75039877E+08 1.75037075E+08  8.0326463      2794.5660    
 3.10094616E-06 1.03520148E-08 1.78564849E+08 1.78561989E+08  8.2496633      2851.5939    
 3.12171953E-06 1.04213634E-08 1.82208585E+08 1.82205666E+08  8.4770754      2909.7224    
 3.14263207E-06 1.04911766E-08 1.85810068E+08 1.85807092E+08  8.6997067      2966.4795    
 3.16368471E-06 1.05614574E-08 1.89632555E+08 1.89629520E+08  8.9424658      3026.1895    
 3.18487837E-06 1.06322091E-08 1.93419641E+08 1.93416544E+08  9.1810926      3087.5195    
 3.20621402E-06 1.07034348E-08 1.97286831E+08 1.97283671E+08  9.4264835      3151.5064    
 3.22769259E-06 1.07751376E-08 2.01339991E+08 2.01336763E+08  9.6890439      3217.9224    
 3.24931505E-06 1.08473207E-08 2.05319355E+08 2.05316063E+08  9.9435355      3282.1907    
 3.27108236E-06 1.09199874E-08 2.09513449E+08 2.09510090E+08  10.218117      3349.0863    
 3.29299549E-06 1.09931409E-08 2.13726714E+08 2.13723288E+08  10.493726      3415.3619    
 3.31505541E-06 1.10667844E-08 2.17969097E+08 2.17965605E+08  10.771172      3481.7834    
 3.33726312E-06 1.11409213E-08 2.22477364E+08 2.22473798E+08  11.074278      3555.1639    
 3.35961959E-06 1.12155548E-08 2.26874186E+08 2.26870546E+08  11.365189      3627.9092    
 3.38212584E-06 1.12906884E-08 2.31475753E+08 2.31472038E+08  11.675734      3703.2553    
 3.40478285E-06 1.13663252E-08 2.36162817E+08 2.36159026E+08  11.994019      3778.9162    
 3.42759164E-06 1.14424687E-08 2.40829022E+08 2.40825157E+08  12.308971      3853.3187    
 3.45055323E-06 1.15191223E-08 2.45818067E+08 2.45814122E+08  12.656242      3931.7030    
 3.47366865E-06 1.15962894E-08 2.50688629E+08 2.50684608E+08  12.990090      4008.2221    
 3.49693891E-06 1.16739735E-08 2.55736965E+08 2.55732861E+08  13.341274      4090.6439    
 3.52036506E-06 1.17521780E-08 2.60950728E+08 2.60946537E+08  13.708797      4177.0765    
 3.54394814E-06 1.18309064E-08 2.66106305E+08 2.66102030E+08  14.068821      4261.3253    
 3.56768921E-06 1.19101621E-08 2.71580381E+08 2.71576016E+08  14.461654      4349.7019    
 3.59158932E-06 1.19899488E-08 2.76999108E+08 2.76994658E+08  14.847292      4435.9569    
 3.61564954E-06 1.20702701E-08 2.82537265E+08 2.82532726E+08  15.244394      4523.0577    
 3.63987094E-06 1.21511293E-08 2.88336481E+08 2.88331851E+08  15.668723      4614.2182    
 3.66425460E-06 1.22325303E-08 2.94032648E+08 2.94027924E+08  16.080268      4707.7971    
 3.68880161E-06 1.23144766E-08 3.00038567E+08 3.00033743E+08  16.524597      4807.3686    
 3.71351306E-06 1.23969718E-08 3.06066698E+08 3.06061775E+08  16.970005      4905.8191    
 3.73839005E-06 1.24800197E-08 3.12141847E+08 3.12136825E+08  17.418981      5003.8257    
 3.76343369E-06 1.25636239E-08 3.18591792E+08 3.18586668E+08  17.908840      5106.4254    
 3.78864510E-06 1.26477882E-08 3.24885110E+08 3.24879886E+08  18.379279      5205.3200    
 3.81402541E-06 1.27325163E-08 3.31474153E+08 3.31468825E+08  18.881807      5309.0905    
 3.83957574E-06 1.28178120E-08 3.38179712E+08 3.38174273E+08  19.396184      5420.0465    
 3.86529723E-06 1.29036791E-08 3.44858361E+08 3.44852811E+08  19.905500      5530.4878    
 3.89119103E-06 1.29901214E-08 3.52001750E+08 3.51996083E+08  20.467448      5647.2705    
 3.91725829E-06 1.30771428E-08 3.58969633E+08 3.58963853E+08  21.006963      5759.4908    
 3.94350018E-06 1.31647472E-08 3.66197998E+08 3.66192102E+08  21.575256      5874.5093    
 3.96991787E-06 1.32529384E-08 3.73656540E+08 3.73650526E+08  22.169210      5991.4832    
 3.99651253E-06 1.33417205E-08 3.81035113E+08 3.81028981E+08  22.751412      6108.4032    
 4.02328535E-06 1.34310972E-08 3.88872509E+08 3.88866247E+08  23.387089      6238.5134    
 4.05023752E-06 1.35210728E-08 3.96624046E+08 3.96617656E+08  24.010304      6366.5749    
 4.07737024E-06 1.36116511E-08 4.04553292E+08 4.04546772E+08  24.652904      6496.0340    
 4.10468473E-06 1.37028361E-08 4.12848752E+08 4.12842097E+08  25.338666      6629.6415    
 4.13218219E-06 1.37946320E-08 4.21000439E+08 4.20993654E+08  26.004183      6759.2648    
