 OPTXAGNF AGN Spectrum Model Parameters: BLS, Astar 0.0                          
 M_BH:  3.0000E+07 M_0            L  :  0.2000     L/Ledd 
 D   :  1.5000E+18 cm             z  :   0.000     redshift 
 Rcor:   60.00     Rg             Ro :   4.000     Rg 
 C_T :  0.2000     keV            Tau:   15.00     Optical Depth 
 gam :   1.800     (-slope)       fpl:  0.5000     Fraction 
 E              0.5DeltaE      E.FE total     E.FE Disk      E.FE Compton   E.FE NonThermal
 (keV)          (keV)          E.E/cm2/s/E    E.E/cm2/s/E    E.E/cm2/s/E    E.E/cm2/s/E    
 1.00334952E-06 3.34952256E-09  6044299.2      6044086.6     0.44342432      212.10961    
 1.01007101E-06 3.37196116E-09  6164066.5      6163849.6     0.45507410      216.45640    
 1.01683752E-06 3.39455008E-09  6288878.4      6288657.0     0.46742642      220.93734    
 1.02364936E-06 3.41729032E-09  6417135.2      6416909.2     0.48025380      225.49792    
 1.03050683E-06 3.44018290E-09  6544267.2      6544036.6     0.49286641      230.14272    
 1.03741024E-06 3.46322884E-09  6679645.9      6679410.1     0.50668221      235.25764    
 1.04435990E-06 3.48642917E-09  6812951.2      6812710.5     0.52014003      240.22234    
 1.05135611E-06 3.50978492E-09  6949922.3      6949676.5     0.53410805      245.26627    
 1.05839920E-06 3.53329712E-09  7092644.9      7092393.9     0.54891885      250.45537    
 1.06548946E-06 3.55696684E-09  7233161.5      7232905.4     0.56333652      255.49049    
 1.07262722E-06 3.58079512E-09  7381747.6      7381486.2     0.57896413      260.77901    
 1.07981280E-06 3.60478303E-09  7530112.0      7529845.1     0.59450861      266.24349    
 1.08704652E-06 3.62893164E-09  7680419.3      7680146.8     0.61030206      271.90149    
 1.09432869E-06 3.65324201E-09  7839230.3      7838951.8     0.62740099      277.83512    
 1.10165965E-06 3.67771524E-09  7994539.9      7994255.7     0.64388205      283.53930    
 1.10903971E-06 3.70235243E-09  8157614.5      8157324.4     0.66155736      289.46417    
 1.11646922E-06 3.72715465E-09  8322729.1      8322433.0     0.67950982      295.37677    
 1.12394850E-06 3.75212303E-09  8487662.5      8487360.5     0.69736540      301.24683    
 1.13147788E-06 3.77725867E-09  8664364.9      8664056.3     0.71710371      307.79859    
 1.13905770E-06 3.80256270E-09  8836023.8      8835708.8     0.73594344      314.26003    
 1.14668830E-06 3.82803623E-09  9014991.3      9014669.6     0.75593281      320.93120    
 1.15437002E-06 3.85368042E-09  9198736.4      9198407.9     0.77666375      327.68660    
 1.16210319E-06 3.87949640E-09  9380948.6      9380613.5     0.79706051      334.29324    
 1.16988818E-06 3.90548532E-09  9575061.9      9574719.8     0.81941778      341.24332    
 1.17772531E-06 3.93164835E-09  9766036.2      9765687.3     0.84116707      348.06245    
 1.18561494E-06 3.95798663E-09  9962435.5      9962079.3     0.86377121      355.35541    
 1.19355743E-06 3.98450137E-09  10166901.      10166537.     0.88770781      363.07798    
 1.20155313E-06 4.01119372E-09  10368293.      10367921.     0.91102365      370.56169    
 1.20960239E-06 4.03806489E-09  10581341.      10580962.     0.93631297      378.39490    
 1.21770557E-06 4.06511607E-09  10793885.      10793498.     0.96143471      386.09247    
 1.22586303E-06 4.09234846E-09  11009403.      11009008.     0.98699304      393.80370    
 1.23407514E-06 4.11976329E-09  11236912.      11236509.      1.0146278      401.93674    
 1.24234227E-06 4.14736177E-09  11459501.      11459089.      1.0412805      410.25540    
 1.25066478E-06 4.17514513E-09  11693319.      11692899.      1.0698836      419.07792    
 1.25904304E-06 4.20311462E-09  11929855.      11929426.      1.0988971      427.87014    
 1.26747742E-06 4.23127147E-09  12166342.      12165904.      1.1277927      436.54495    
 1.27596831E-06 4.25961695E-09  12419476.      12419029.      1.1596934      445.71474    
 1.28451608E-06 4.28815232E-09  12665491.      12665035.      1.1901603      454.50137    
 1.29312111E-06 4.31687884E-09  12922092.      12921627.      1.2225084      463.68788    
 1.30178379E-06 4.34579781E-09  13185311.      13184836.      1.2560125      473.59893    
 1.31050450E-06 4.37491051E-09  13446448.      13445963.      1.2889975      483.41521    
 1.31928362E-06 4.40421823E-09  13724757.      13724262.      1.3251767      493.77129    
 1.32812156E-06 4.43372228E-09  13998328.      13997823.      1.3603258      503.78956    
 1.33701871E-06 4.46342399E-09  14279918.      14279403.      1.3969054      513.98023    
 1.34597546E-06 4.49332467E-09  14572813.      14572287.      1.4355906      524.42983    
 1.35499221E-06 4.52342565E-09  14861429.      14860893.      1.4732961      534.82853    
 1.36406936E-06 4.55372829E-09  15166881.      15166333.      1.5142203      546.34905    
 1.37320733E-06 4.58423392E-09  15471344.      15470785.      1.5548199      557.78874    
 1.38240650E-06 4.61494391E-09  15780341.      15779770.      1.5961804      569.25599    
 1.39166731E-06 4.64585962E-09  16106238.      16105655.      1.6408426      581.19758    
 1.40099015E-06 4.67698245E-09  16425225.      16424630.      1.6839443      592.72241    
 1.41037545E-06 4.70831376E-09  16760448.      16759842.      1.7302313      604.67826    
 1.41982361E-06 4.73985497E-09  17099270.      17098651.      1.7771207      616.97815    
 1.42933508E-06 4.77160747E-09  17438324.      17437692.      1.8238821      629.74348    
 1.43891026E-06 4.80357269E-09  17800921.      17800275.      1.8754390      643.39820    
 1.44854958E-06 4.83575204E-09  18153471.      18152812.      1.9247090      656.45113    
 1.45825348E-06 4.86814696E-09  18521351.      18520679.      1.9770564      669.91846    
 1.46802239E-06 4.90075889E-09  18898386.      18897701.      2.0312036      683.52635    
 1.47785673E-06 4.93358930E-09  19272600.      19271901.      2.0845455      696.87891    
 1.48775696E-06 4.96663964E-09  19671589.      19670876.      2.1430916      711.42616    
 1.49772351E-06 4.99991138E-09  20063447.      20062718.      2.1998959      726.22094    
 1.50775683E-06 5.03340601E-09  20467144.      20466401.      2.2590913      741.37967    
 1.51785736E-06 5.06712502E-09  20886677.      20885918.      2.3216121      756.92689    
 1.52802556E-06 5.10106992E-09  21300261.      21299487.      2.3825879      772.04137    
 1.53826187E-06 5.13524222E-09  21738152.      21737362.      2.4488127      787.83793    
 1.54856676E-06 5.16964344E-09  22174247.      22173441.      2.5144259      803.40751    
 1.55894067E-06 5.20427512E-09  22617226.      22616404.      2.5813585      819.61239    
 1.56938409E-06 5.23913879E-09  23084018.      23083179.      2.6535394      837.29491    
 1.57989746E-06 5.27423602E-09  23541110.      23540253.      2.7232416      854.41253    
 1.59048127E-06 5.30956836E-09  24021673.      24020798.      2.7981450      872.21126    
 1.60113597E-06 5.34513740E-09  24506969.      24506076.      2.8739237      889.92674    
 1.61186206E-06 5.38094472E-09  24993027.      24992117.      2.9495968      907.45788    
 1.62265999E-06 5.41699191E-09  25512370.      25511441.      3.0329210      925.99078    
 1.63353026E-06 5.45328058E-09  26017542.      26016594.      3.1125983      944.60283    
 1.64447336E-06 5.48981235E-09  26544908.      26543941.      3.1973093      964.56545    
 1.65548976E-06 5.52658885E-09  27084923.      27083935.      3.2848179      984.80099    
 1.66657996E-06 5.56361172E-09  27621129.      27620121.      3.3710799      1004.6213    
 1.67774445E-06 5.60088261E-09  28193071.      28192042.      3.4658201      1025.4946    
 1.68898374E-06 5.63840317E-09  28754303.      28753254.      3.5576206      1045.6963    
 1.70029832E-06 5.67617509E-09  29333000.      29331930.      3.6534140      1066.3773    
 1.71168869E-06 5.71420004E-09  29933865.      29932772.      3.7544560      1088.6385    
 1.72315537E-06 5.75247973E-09  30526466.      30525351.      3.8530631      1111.0512    
 1.73469887E-06 5.79101585E-09  31154159.      31153020.      3.9602295      1134.5771    
 1.74631969E-06 5.82981012E-09  31778732.      31777570.      4.0662667      1157.6325    
 1.75801837E-06 5.86886429E-09  32413725.      32412540.      4.1745813      1180.7912    
 1.76979541E-06 5.90818007E-09  33082254.      33081045.      4.2912361      1204.8217    
 1.78165135E-06 5.94775924E-09  33737175.      33735942.      4.4039548      1228.2744    
 1.79358672E-06 5.98760354E-09  34426017.      34424759.      4.5251657      1253.8919    
 1.80560203E-06 6.02771477E-09  35121036.      35119751.      4.6476321      1280.2210    
 1.81769784E-06 6.06809470E-09  35817765.      35816454.      4.7700919      1306.2700    
 1.82987468E-06 6.10874514E-09  36561535.      36560196.      4.9047565      1333.7357    
 1.84213310E-06 6.14966790E-09  37285323.      37283958.      5.0336061      1360.0840    
 1.85447363E-06 6.19086481E-09  38041233.      38039840.      5.1706888      1387.2568    
 1.86689683E-06 6.23233769E-09  38814591.      38813171.      5.3121127      1414.9702    
 1.87940326E-06 6.27408840E-09  39582830.      39581381.      5.4516109      1443.6781    
 1.89199346E-06 6.31611880E-09  40402605.      40401124.      5.6049200      1474.7785    
 1.90466801E-06 6.35843077E-09  41206334.      41204824.      5.7532767      1504.7728    
 1.91742747E-06 6.40102618E-09  42035801.      42034259.      5.9082939      1535.3694    
 1.93027240E-06 6.44390694E-09  42896275.      42894702.      6.0715904      1566.6650    
 1.94320339E-06 6.48707497E-09  43745284.      43743680.      6.2310520      1597.1714    
 1.95622099E-06 6.53053217E-09  44644940.      44643304.      6.4044701      1629.4210    
 1.96932581E-06 6.57428050E-09  45539350.      45537680.      6.5758354      1663.1190    
 1.98251841E-06 6.61832191E-09  46449482.      46447778.      6.7511158      1697.5422    
 1.99579939E-06 6.66265834E-09  47406826.      47405086.      6.9396456      1733.3044    
 2.00916934E-06 6.70729179E-09  48345089.      48343314.      7.1219273      1767.8514    
 2.02262885E-06 6.75222424E-09  49332362.      49330551.      7.3180733      1803.7464    
 2.03617854E-06 6.79745770E-09  50327615.      50325768.      7.5159909      1839.4321    
 2.04981899E-06 6.84299417E-09  51326204.      51324321.      7.7141627      1875.4124    
 2.06355082E-06 6.88883570E-09  52391254.      52389331.      7.9318000      1915.6956    
 2.07737464E-06 6.93498432E-09  53428144.      53426181.      8.1401674      1954.8157    
 2.09129106E-06 6.98144209E-09  54511512.      54509508.      8.3619983      1995.2452    
 2.10530072E-06 7.02821109E-09  55618908.      55616864.      8.5905543      2035.9893    
 2.11940422E-06 7.07529339E-09  56719452.      56717367.      8.8161415      2075.9874    
 2.13360221E-06 7.12269110E-09  57894298.      57892171.      9.0642255      2118.0509    
 2.14789530E-06 7.17040633E-09  59045159.      59042990.      9.3039798      2159.8578    
 2.16228415E-06 7.21844121E-09  60233912.      60231697.      9.5548341      2204.7758    
 2.17676939E-06 7.26679787E-09  61466008.      61463746.      9.8187399      2251.3256    
 2.19135167E-06 7.31547848E-09  62682216.      62679909.      10.076610      2296.6204    
 2.20603163E-06 7.36448520E-09  63971506.      63969151.      10.357236      2344.0456    
 2.22080994E-06 7.41382021E-09  65252163.      65249762.      10.634175      2390.4995    
 2.23568724E-06 7.46348573E-09  66556479.      66554031.      10.917821      2437.2480    
 2.25066421E-06 7.51348396E-09  67927224.      67924726.      11.222509      2487.2659    
 2.26574151E-06 7.56381713E-09  69271238.      69268689.      11.517282      2538.1329    
 2.28091982E-06 7.61448748E-09  70686047.      70683443.      11.834687      2591.5648    
 2.29619980E-06 7.66549727E-09  72111044.      72108387.      12.154538      2644.5922    
 2.31158215E-06 7.71684879E-09  73542085.      73539375.      12.475230      2697.1938    
 2.32706754E-06 7.76854430E-09  75066984.      75064219.      12.826960      2752.4410    
 2.34265667E-06 7.82058613E-09  76552213.      76549394.      13.163916      2805.7142    
 2.35835023E-06 7.87297659E-09  78104675.      78101799.      13.522887      2862.5683    
 2.37414893E-06 7.92571802E-09  79690174.      79687237.      13.892255      2922.7659    
 2.39005346E-06 7.97881276E-09  81266547.      81263551.      14.257057      2982.1498    
 2.40606454E-06 8.03226319E-09  82950023.      82946963.      14.658503      3044.8209    
 2.42218287E-06 8.08607168E-09  84597714.      84594594.      15.045958      3105.2710    
 2.43840918E-06 8.14024064E-09  86301132.      86297950.      15.451897      3167.0068    
 2.45474420E-06 8.19477248E-09  88065087.      88061840.      15.878395      3230.2367    
 2.47118864E-06 8.24966963E-09  89807059.      89803748.      16.295403      3294.3709    
 2.48774324E-06 8.30493454E-09  91654458.      91651077.      16.749508      3364.6504    
 2.50440875E-06 8.36056967E-09  93487902.      93484452.      17.197060      3433.6398    
 2.52118589E-06 8.41657750E-09  95356856.      95353335.      17.656065      3503.1251    
 2.53807543E-06 8.47296053E-09  97319228.      97315634.      18.148473      3575.0807    
 2.55507811E-06 8.52972128E-09  99244171.      99240507.      18.625155      3644.7820    
 2.57219470E-06 8.58686227E-09 1.01271343E+08 1.01267606E+08  19.138779      3717.4770    
 2.58942595E-06 8.64438604E-09 1.03311335E+08 1.03307523E+08  19.655682      3793.0967    
 2.60677263E-06 8.70229518E-09 1.05361799E+08 1.05357907E+08  20.174638      3871.0144    
 2.62423551E-06 8.76059224E-09 1.07544761E+08 1.07540787E+08  20.743075      3953.2615    
 2.64181539E-06 8.81927985E-09 1.09671869E+08 1.09667815E+08  21.287972      4032.1905    
 2.65951303E-06 8.87836060E-09 1.11896194E+08 1.11892058E+08  21.868859      4113.7344    
 2.67732922E-06 8.93783714E-09 1.14165847E+08 1.14161629E+08  22.465787      4195.7669    
 2.69526477E-06 8.99771211E-09 1.16423423E+08 1.16419123E+08  23.055713      4276.8426    
 2.71332047E-06 9.05798819E-09 1.18835338E+08 1.18830948E+08  23.705320      4366.6914    
 2.73149713E-06 9.11866806E-09 1.21193974E+08 1.21189493E+08  24.331464      4456.4141    
 2.74979555E-06 9.17975443E-09 1.23634494E+08 1.23629920E+08  24.988358      4548.2210    
 2.76821656E-06 9.24125002E-09 1.26159493E+08 1.26154825E+08  25.677618      4641.9072    
 2.78676096E-06 9.30315757E-09 1.28654115E+08 1.28649355E+08  26.351963      4733.2858    
 2.80542960E-06 9.36547984E-09 1.31300772E+08 1.31295916E+08  27.086786      4828.8737    
 2.82422330E-06 9.42821962E-09 1.33925171E+08 1.33920220E+08  27.810051      4923.2741    
 2.84314290E-06 9.49137968E-09 1.36602748E+08 1.36597696E+08  28.552821      5023.4393    
 2.86218924E-06 9.55496287E-09 1.39411628E+08 1.39406468E+08  29.348600      5130.5050    
 2.88136318E-06 9.61897199E-09 1.42168147E+08 1.42162883E+08  30.119444      5233.9795    
 2.90066556E-06 9.68340992E-09 1.45072241E+08 1.45066869E+08  30.950582      5341.7094    
 2.92009725E-06 9.74827952E-09 1.47992150E+08 1.47986670E+08  31.785927      5448.5005    
 2.93965911E-06 9.81358368E-09 1.50929640E+08 1.50924053E+08  32.625713      5554.6887    
 2.95935202E-06 9.87932532E-09 1.54054094E+08 1.54048394E+08  33.544368      5666.9755    
 2.97917685E-06 9.94550737E-09 1.57099959E+08 1.57094143E+08  34.425519      5781.8725    
 2.99913449E-06 1.00121328E-08 1.60286356E+08 1.60280417E+08  35.365504      5903.1867    
 3.01922583E-06 1.00792045E-08 1.63534819E+08 1.63528757E+08  36.330180      6025.1245    
 3.03945176E-06 1.01467255E-08 1.66767408E+08 1.66761225E+08  37.284147      6144.9193    
 3.05981319E-06 1.02146989E-08 1.70222329E+08 1.70216020E+08  38.335312      6271.1937    
 3.08031101E-06 1.02831276E-08 1.73598055E+08 1.73591623E+08  39.347178      6393.0105    
 3.10094616E-06 1.03520148E-08 1.77093990E+08 1.77087430E+08  40.410159      6519.2882    
 3.12171953E-06 1.04213634E-08 1.80707718E+08 1.80701020E+08  41.524054      6656.2174    
 3.14263207E-06 1.04911766E-08 1.84279542E+08 1.84272708E+08  42.614533      6791.8262    
 3.16368471E-06 1.05614574E-08 1.88070551E+08 1.88063573E+08  43.803594      6934.1812    
 3.18487837E-06 1.06322091E-08 1.91826444E+08 1.91819326E+08  44.972416      7073.1542    
 3.20621402E-06 1.07034348E-08 1.95661780E+08 1.95654520E+08  46.174367      7213.3737    
 3.22769259E-06 1.07751376E-08 1.99681551E+08 1.99674145E+08  47.460411      7358.1542    
 3.24931505E-06 1.08473207E-08 2.03628137E+08 2.03620587E+08  48.706934      7501.6877    
 3.27108236E-06 1.09199874E-08 2.07787692E+08 2.07779982E+08  50.051853      7659.5460    
 3.29299549E-06 1.09931409E-08 2.11966261E+08 2.11958391E+08  51.401807      7818.1979    
 3.31505541E-06 1.10667844E-08 2.16173706E+08 2.16165677E+08  52.760755      7975.9491    
 3.33726312E-06 1.11409213E-08 2.20644841E+08 2.20636646E+08  54.245382      8141.3790    
 3.35961959E-06 1.12155548E-08 2.25005445E+08 2.24997089E+08  55.670277      8300.5928    
 3.38212584E-06 1.12906884E-08 2.29569107E+08 2.29560585E+08  57.191335      8465.0334    
 3.40478285E-06 1.13663252E-08 2.34217566E+08 2.34208872E+08  58.750299      8635.0794    
 3.42759164E-06 1.14424687E-08 2.38845344E+08 2.38836473E+08  60.292941      8810.7961    
 3.45055323E-06 1.15191223E-08 2.43793305E+08 2.43784244E+08  61.993873      8998.9453    
 3.47366865E-06 1.15962894E-08 2.48623757E+08 2.48614513E+08  63.629057      9179.7318    
 3.49693891E-06 1.16739735E-08 2.53630513E+08 2.53621082E+08  65.349151      9364.9299    
 3.52036506E-06 1.17521780E-08 2.58801329E+08 2.58791709E+08  67.149268      9553.4830    
 3.54394814E-06 1.18309064E-08 2.63914439E+08 2.63904632E+08  68.912656      9737.9455    
 3.56768921E-06 1.19101621E-08 2.69343428E+08 2.69333420E+08  70.836728      9937.2330    
 3.59158932E-06 1.19899488E-08 2.74717533E+08 2.74707319E+08  72.725565      10142.086    
 3.61564954E-06 1.20702701E-08 2.80210084E+08 2.80199659E+08  74.670542      10350.501    
 3.63987094E-06 1.21511293E-08 2.85961543E+08 2.85950901E+08  76.748870      10565.906    
 3.66425460E-06 1.22325303E-08 2.91610795E+08 2.91599941E+08  78.764588      10774.623    
 3.68880161E-06 1.23144766E-08 2.97567243E+08 2.97556170E+08  80.940867      10991.798    
 3.71351306E-06 1.23969718E-08 3.03545720E+08 3.03534429E+08  83.122426      11207.466    
 3.73839005E-06 1.24800197E-08 3.09570832E+08 3.09559318E+08  85.321462      11429.553    
 3.76343369E-06 1.25636239E-08 3.15967666E+08 3.15955904E+08  87.720722      11674.301    
 3.78864510E-06 1.26477882E-08 3.22209161E+08 3.22197160E+08  90.024873      11910.639    
 3.81402541E-06 1.27325163E-08 3.28743942E+08 3.28731695E+08  92.486178      12155.298    
 3.83957574E-06 1.28178120E-08 3.35394272E+08 3.35381776E+08  95.005514      12400.774    
 3.86529723E-06 1.29036791E-08 3.42017910E+08 3.42005170E+08  97.500063      12642.404    
 3.89119103E-06 1.29901214E-08 3.49102459E+08 3.49089461E+08  100.25238      12897.733    
 3.91725829E-06 1.30771428E-08 3.56012957E+08 3.55999700E+08  102.89482      13154.465    
 3.94350018E-06 1.31647472E-08 3.63181801E+08 3.63168267E+08  105.67820      13428.697    
 3.96991787E-06 1.32529384E-08 3.70578926E+08 3.70565109E+08  108.58726      13709.078    
 3.99651253E-06 1.33417205E-08 3.77896735E+08 3.77882641E+08  111.43876      13982.686    
 4.02328535E-06 1.34310972E-08 3.85669581E+08 3.85655197E+08  114.55215      14269.570    
 4.05023752E-06 1.35210728E-08 3.93357271E+08 3.93342604E+08  117.60451      14549.511    
 4.07737024E-06 1.36116511E-08 4.01221206E+08 4.01206252E+08  120.75180      14833.429    
 4.10468473E-06 1.37028361E-08 4.09448350E+08 4.09433085E+08  124.11047      15140.778    
 4.13218219E-06 1.37946320E-08 4.17532915E+08 4.17517337E+08  127.36999      15450.185    
