 OPTXAGNF AGN Spectrum Model Parameters: NLS, Astar 0.0                          
 M_BH:  3.0000E+07 M_0            L  :  1.0000E-02 L/Ledd 
 D   :  1.5000E+18 cm             z  :   0.000     redshift 
 Rcor:   40.00     Rg             Ro :   4.000     Rg 
 C_T :  0.2000     keV            Tau:   15.00     Optical Depth 
 gam :   2.200     (-slope)       fpl:  0.2000     Fraction 
 E              0.5DeltaE      E.FE total     E.FE Disk      E.FE Compton   E.FE NonThermal
 (keV)          (keV)          E.E/cm2/s/E    E.E/cm2/s/E    E.E/cm2/s/E    E.E/cm2/s/E    
 1.00334952E-06 3.34952256E-09  2873769.0      2873556.9     0.68332319      211.36695    
 1.01007101E-06 3.37196116E-09  2930641.9      2930425.7     0.70127471      215.45760    
 1.01683752E-06 3.39455008E-09  2989905.1      2989684.7     0.72030873      219.76138    
 1.02364936E-06 3.41729032E-09  3050801.0      3050575.9     0.74007473      224.38554    
 1.03050683E-06 3.44018290E-09  3111165.3      3110935.6     0.75950980      228.95033    
 1.03741024E-06 3.46322884E-09  3175435.6      3175201.1     0.78079879      233.75414    
 1.04435990E-06 3.48642917E-09  3238725.2      3238486.0     0.80153617      238.41585    
 1.05135611E-06 3.50978492E-09  3303751.7      3303507.8     0.82305968      243.14784    
 1.05839920E-06 3.53329712E-09  3371502.4      3371253.6     0.84588176      248.00942    
 1.06548946E-06 3.55696684E-09  3438210.1      3437956.3     0.86809809      252.87978    
 1.07262722E-06 3.58079512E-09  3508739.4      3508480.3     0.89217870      258.25165    
 1.07981280E-06 3.60478303E-09  3579164.9      3578900.4     0.91613121      263.57248    
 1.08704652E-06 3.62893164E-09  3650511.4      3650241.6     0.94046733      268.89714    
 1.09432869E-06 3.65324201E-09  3725884.2      3725608.7     0.96681494      274.44594    
 1.10165965E-06 3.67771524E-09  3799601.0      3799320.2     0.99221051      279.80357    
 1.10903971E-06 3.70235243E-09  3876994.4      3876708.1      1.0194462      285.35175    
 1.11646922E-06 3.72715465E-09  3955354.8      3955062.6      1.0471089      291.11271    
 1.12394850E-06 3.75212303E-09  4033631.2      4033333.1      1.0746223      297.07470    
 1.13147788E-06 3.77725867E-09  4117478.1      4117173.5      1.1050366      303.41788    
 1.13905770E-06 3.80256270E-09  4198939.9      4198629.3      1.1340663      309.48454    
 1.14668830E-06 3.82803623E-09  4283861.4      4283544.5      1.1648674      315.73422    
 1.15437002E-06 3.85368042E-09  4371044.8      4370721.5      1.1968110      322.05922    
 1.16210319E-06 3.87949640E-09  4457504.8      4457175.3      1.2282398      328.26690    
 1.16988818E-06 3.90548532E-09  4549596.7      4549260.4      1.2626892      335.07387    
 1.17772531E-06 3.93164835E-09  4640205.7      4639862.4      1.2962019      341.98007    
 1.18561494E-06 3.95798663E-09  4733382.6      4733032.3      1.3310317      349.01465    
 1.19355743E-06 3.98450137E-09  4830376.3      4830018.7      1.3679144      356.23912    
 1.20155313E-06 4.01119372E-09  4925918.2      4925553.6      1.4038407      363.26243    
 1.20960239E-06 4.03806489E-09  5026974.6      5026602.6      1.4428076      370.58964    
 1.21770557E-06 4.06511607E-09  5127794.6      5127415.3      1.4815163      377.83845    
 1.22586303E-06 4.09234846E-09  5230023.5      5229636.6      1.5208977      385.42903    
 1.23407514E-06 4.11976329E-09  5337924.1      5337528.9      1.5634783      393.66506    
 1.24234227E-06 4.14736177E-09  5443500.7      5443097.4      1.6045457      401.61779    
 1.25066478E-06 4.17514513E-09  5554388.6      5553977.1      1.6486182      409.87389    
 1.25904304E-06 4.20311462E-09  5666563.2      5666143.4      1.6933230      418.10779    
 1.26747742E-06 4.23127147E-09  5778717.1      5778289.1      1.7378462      426.24538    
 1.27596831E-06 4.25961695E-09  5898742.5      5898305.8      1.7869991      434.87449    
 1.28451608E-06 4.28815232E-09  6015405.6      6014960.2      1.8339433      443.60166    
 1.29312111E-06 4.31687884E-09  6137075.0      6136620.2      1.8837856      452.87612    
 1.30178379E-06 4.34579781E-09  6261874.4      6261410.2      1.9354090      462.27921    
 1.31050450E-06 4.37491051E-09  6385692.4      6385219.0      1.9862325      471.48605    
 1.31928362E-06 4.40421823E-09  6517627.7      6517144.5      2.0419774      481.16501    
 1.32812156E-06 4.43372228E-09  6647326.8      6646834.2      2.0961351      490.55613    
 1.33701871E-06 4.46342399E-09  6780817.7      6780315.4      2.1524968      500.18722    
 1.34597546E-06 4.49332467E-09  6919652.9      6919140.1      2.2121025      510.62104    
 1.35499221E-06 4.52342565E-09  7056470.5      7055947.2      2.2701989      521.03640    
 1.36406936E-06 4.55372829E-09  7201243.2      7200708.9      2.3332540      531.94559    
 1.37320733E-06 4.58423392E-09  7345552.1      7345007.0      2.3958091      542.66091    
 1.38240650E-06 4.61494391E-09  7492005.8      7491449.9      2.4595365      553.40584    
 1.39166731E-06 4.64585962E-09  7646444.3      7645877.2      2.5283506      564.56766    
 1.40099015E-06 4.67698245E-09  7797623.1      7797045.0      2.5947605      575.52231    
 1.41037545E-06 4.70831376E-09  7956473.3      7955883.1      2.6660777      587.49338    
 1.41982361E-06 4.73985497E-09  8117026.3      8116423.8      2.7383231      599.72787    
 1.42933508E-06 4.77160747E-09  8277692.4      8277077.8      2.8103712      611.81341    
 1.43891026E-06 4.80357269E-09  8449476.9      8448849.4      2.8898073      624.56908    
 1.44854958E-06 4.83575204E-09  8616522.7      8615882.9      2.9657202      636.80499    
 1.45825348E-06 4.86814696E-09  8790809.0      8790156.6      3.0463742      649.40830    
 1.46802239E-06 4.90075889E-09  8969420.9      8968755.3      3.1298008      662.38309    
 1.47785673E-06 4.93358930E-09  9146706.5      9146027.5      3.2119869      675.79036    
 1.48775696E-06 4.96663964E-09  9335688.7      9334995.2      3.3021905      690.20856    
 1.49772351E-06 4.99991138E-09  9521309.3      9520601.8      3.3897106      704.14814    
 1.50775683E-06 5.03340601E-09  9712521.9      9711800.1      3.4809145      718.33925    
 1.51785736E-06 5.06712502E-09  9911210.5      9910474.1      3.5772413      732.87605    
 1.52802556E-06 5.10106992E-09  10107098.      10106347.      3.6711880      747.04691    
 1.53826187E-06 5.13524222E-09  10314457.      10313691.      3.7732211      762.13306    
 1.54856676E-06 5.16964344E-09  10520974.      10520193.      3.8743119      777.85297    
 1.55894067E-06 5.20427512E-09  10730745.      10729948.      3.9774353      793.81947    
 1.56938409E-06 5.23913879E-09  10951752.      10950938.      4.0886441      810.42908    
 1.57989746E-06 5.27423602E-09  11168190.      11167359.      4.1960341      826.46898    
 1.59048127E-06 5.30956836E-09  11395701.      11394854.      4.3114368      843.11359    
 1.60113597E-06 5.34513740E-09  11625450.      11624586.      4.4281880      859.70354    
 1.61186206E-06 5.38094472E-09  11855566.      11854685.      4.5447765      876.50429    
 1.62265999E-06 5.41699191E-09  12101380.      12100480.      4.6731517      895.31936    
 1.63353026E-06 5.45328058E-09  12340521.      12339602.      4.7959085      913.48171    
 1.64447336E-06 5.48981235E-09  12590129.      12589192.      4.9264200      932.22873    
 1.65548976E-06 5.52658885E-09  12845706.      12844749.      5.0612411      951.15468    
 1.66657996E-06 5.56361172E-09  13099495.      13098520.      5.1941418      969.72372    
 1.67774445E-06 5.60088261E-09  13370131.      13369137.      5.3401032      989.22497    
 1.68898374E-06 5.63840317E-09  13635729.      13634715.      5.4815359      1008.7758    
 1.70029832E-06 5.67617509E-09  13909565.      13908529.      5.6291196      1029.7437    
 1.71168869E-06 5.71420004E-09  14193851.      14192794.      5.7847886      1051.3644    
 1.72315537E-06 5.75247973E-09  14474253.      14473175.      5.9367065      1072.3908    
 1.73469887E-06 5.79101585E-09  14771193.      14770092.      6.1018100      1094.3777    
 1.74631969E-06 5.82981012E-09  15066671.      15065549.      6.2651738      1115.9581    
 1.75801837E-06 5.86886429E-09  15367066.      15365922.      6.4320458      1137.6390    
 1.76979541E-06 5.90818007E-09  15683263.      15682095.      6.6117655      1161.0620    
 1.78165135E-06 5.94775924E-09  15993063.      15991871.      6.7854216      1184.7841    
 1.79358672E-06 5.98760354E-09  16318843.      16317626.      6.9721596      1209.5555    
 1.80560203E-06 6.02771477E-09  16647539.      16646298.      7.1608316      1234.1873    
 1.81769784E-06 6.06809470E-09  16977052.      16975786.      7.3494931      1258.5818    
 1.82987468E-06 6.10874514E-09  17328716.      17327425.      7.5569554      1284.2352    
 1.84213310E-06 6.14966790E-09  17670987.      17669670.      7.7554600      1308.9865    
 1.85447363E-06 6.19086481E-09  18028387.      18027043.      7.9666468      1335.5872    
 1.86689683E-06 6.23233769E-09  18394008.      18392636.      8.1845209      1363.6336    
 1.87940326E-06 6.27408840E-09  18757233.      18755833.      8.3994283      1391.1965    
 1.89199346E-06 6.31611880E-09  19144715.      19143286.      8.6356101      1420.2473    
 1.90466801E-06 6.35843077E-09  19524660.      19523203.      8.8641631      1448.3293    
 1.91742747E-06 6.40102618E-09  19916726.      19915239.      9.1029758      1476.9550    
 1.93027240E-06 6.44390694E-09  20323387.      20321871.      9.3545417      1506.3773    
 1.94320339E-06 6.48707497E-09  20724671.      20723125.      9.6002001      1536.4247    
 1.95622099E-06 6.53053217E-09  21149786.      21148207.      9.8673566      1569.0672    
 1.96932581E-06 6.57428050E-09  21572447.      21570835.      10.131351      1601.1135    
 1.98251841E-06 6.61832191E-09  22002515.      22000871.      10.401376      1633.3316    
 1.99579939E-06 6.66265834E-09  22454790.      22453112.      10.691809      1666.7446    
 2.00916934E-06 6.70729179E-09  22898112.      22896402.      10.972618      1699.0944    
 2.02262885E-06 6.75222424E-09  23364485.      23362740.      11.274783      1732.9032    
 2.03617854E-06 6.79745770E-09  23834624.      23832844.      11.579676      1768.3428    
 2.04981899E-06 6.84299417E-09  24306350.      24304534.      11.884961      1804.5063    
 2.06355082E-06 6.88883570E-09  24809318.      24807463.      12.220229      1842.6962    
 2.07737464E-06 6.93498432E-09  25299072.      25297180.      12.541217      1879.3269    
 2.09129106E-06 6.98144209E-09  25810678.      25808748.      12.882944      1917.1311    
 2.10530072E-06 7.02821109E-09  26333588.      26331620.      13.235029      1955.2264    
 2.11940422E-06 7.07529339E-09  26853300.      26851294.      13.582541      1993.0298    
 2.13360221E-06 7.12269110E-09  27407925.      27405876.      13.964704      2035.0295    
 2.14789530E-06 7.17040633E-09  27951307.      27949216.      14.334037      2076.7066    
 2.16228415E-06 7.21844121E-09  28512501.      28510367.      14.720467      2119.2675    
 2.17676939E-06 7.26679787E-09  29094060.      29091882.      15.126999      2162.7724    
 2.19135167E-06 7.31547848E-09  29668185.      29665964.      15.524234      2205.1788    
 2.20603163E-06 7.36448520E-09  30276631.      30274366.      15.956519      2249.4890    
 2.22080994E-06 7.41382021E-09  30881048.      30878738.      16.383125      2293.6329    
 2.23568724E-06 7.46348573E-09  31496595.      31494238.      16.820061      2340.3772    
 2.25066421E-06 7.51348396E-09  32143331.      32140924.      17.289405      2390.0929    
 2.26574151E-06 7.56381713E-09  32777551.      32775095.      17.743478      2438.1105    
 2.28091982E-06 7.61448748E-09  33445004.      33442497.      18.232410      2488.0480    
 2.29619980E-06 7.66549727E-09  34117260.      34114703.      18.725109      2537.6416    
 2.31158215E-06 7.71684879E-09  34792379.      34789773.      19.219101      2586.8761    
 2.32706754E-06 7.76854430E-09  35511535.      35508876.      19.760899      2639.4525    
 2.34265667E-06 7.82058613E-09  36212122.      36209408.      20.279941      2693.0232    
 2.35835023E-06 7.87297659E-09  36944258.      36941488.      20.832889      2749.2605    
 2.37414893E-06 7.92571802E-09  37691905.      37689078.      21.401850      2805.8856    
 2.39005346E-06 7.97881276E-09  38435309.      38432426.      21.963779      2861.4743    
 2.40606454E-06 8.03226319E-09  39228933.      39225990.      22.582144      2920.0029    
 2.42218287E-06 8.08607168E-09  40005820.      40002820.      23.178962      2976.6048    
 2.43840918E-06 8.14024064E-09  40808852.      40805792.      23.804246      3035.5112    
 2.45474420E-06 8.19477248E-09  41640277.      41637153.      24.461194      3099.4811    
 2.47118864E-06 8.24966963E-09  42461442.      42458254.      25.103524      3162.4248    
 2.48774324E-06 8.30493454E-09  43332015.      43328761.      25.802989      3228.4050    
 2.50440875E-06 8.36056967E-09  44196088.      44192768.      26.492359      3292.9444    
 2.52118589E-06 8.41657750E-09  45076828.      45073442.      27.199369      3357.9485    
 2.53807543E-06 8.47296053E-09  46001336.      45997883.      27.957822      3425.1677    
 2.55507811E-06 8.52972128E-09  46908367.      46904846.      28.692054      3492.1432    
 2.57219470E-06 8.58686227E-09  47863290.      47859694.      29.483179      3565.8599    
 2.58942595E-06 8.64438604E-09  48824250.      48820580.      30.279354      3639.5353    
 2.60677263E-06 8.70229518E-09  49790155.      49786412.      31.078689      3712.6641    
 2.62423551E-06 8.76059224E-09  50818089.      50814268.      31.954228      3789.4681    
 2.64181539E-06 8.81927985E-09  51819940.      51816044.      32.793511      3863.3427    
 2.65951303E-06 8.87836060E-09  52867311.      52863338.      33.688220      3939.5688    
 2.67732922E-06 8.93783714E-09  53935926.      53931872.      34.607633      4019.1239    
 2.69526477E-06 8.99771211E-09  54998951.      54994814.      35.516261      4101.1152    
 2.71332047E-06 9.05798819E-09  56134179.      56129954.      36.516797      4188.3118    
 2.73149713E-06 9.11866806E-09  57244549.      57240239.      37.481200      4272.2702    
 2.74979555E-06 9.17975443E-09  58393249.      58388852.      38.492955      4358.1153    
 2.76821656E-06 9.24125002E-09  59581477.      59576992.      39.554553      4445.6591    
 2.78676096E-06 9.30315757E-09  60755572.      60751000.      40.593182      4531.2815    
 2.80542960E-06 9.36547984E-09  62000756.      61996090.      41.724942      4624.4779    
 2.82422330E-06 9.42821962E-09  63235602.      63230839.      42.838904      4719.9535    
 2.84314290E-06 9.49137968E-09  64495350.      64490489.      43.982900      4816.5567    
 2.86218924E-06 9.55496287E-09  65816470.      65811509.      45.208526      4916.5649    
 2.88136318E-06 9.61897199E-09  67113208.      67108149.      46.395753      5013.4024    
 2.90066556E-06 9.68340992E-09  68478908.      68473747.      47.675825      5114.0625    
 2.92009725E-06 9.74827952E-09  69852054.      69846790.      48.962376      5214.3542    
 2.93965911E-06 9.81358368E-09  71233486.      71228117.      50.255763      5318.2582    
 2.95935202E-06 9.87932532E-09  72702231.      72696747.      51.670597      5432.1664    
 2.97917685E-06 9.94550737E-09  74134379.      74128784.      53.027679      5541.8157    
 2.99913449E-06 1.00121328E-08  75632163.      75626453.      54.475355      5655.2105    
 3.01922583E-06 1.00792045E-08  77158967.      77153142.      55.961051      5769.1847    
 3.03945176E-06 1.01467255E-08  78678456.      78672517.      57.430255      5881.2886    
 3.05981319E-06 1.02146989E-08  80301689.      80295630.      59.049127      5999.9344    
 3.08031101E-06 1.02831276E-08  81888087.      81881906.      60.607483      6120.2529    
 3.10094616E-06 1.03520148E-08  83530616.      83524306.      62.244546      6247.5367    
 3.12171953E-06 1.04213634E-08  85228120.      85221678.      63.960003      6377.7138    
 3.14263207E-06 1.04911766E-08  86906193.      86899623.      65.639402      6504.6507    
 3.16368471E-06 1.05614574E-08  88686475.      88679770.      67.470596      6637.6076    
 3.18487837E-06 1.06322091E-08  90450491.      90443654.      69.270623      6767.5889    
 3.20621402E-06 1.07034348E-08  92251616.      92244645.      71.121659      6899.6989    
 3.22769259E-06 1.07751376E-08  94138726.      94131610.      73.102175      7043.6505    
 3.24931505E-06 1.08473207E-08  95991872.      95984610.      75.021838      7187.2548    
 3.27108236E-06 1.09199874E-08  97944263.      97936849.      77.093001      7337.0752    
 3.29299549E-06 1.09931409E-08  99905605.      99898040.      79.171914      7485.4062    
 3.31505541E-06 1.10667844E-08 1.01880509E+08 1.01872795E+08  81.264673      7632.9839    
 3.33726312E-06 1.11409213E-08 1.03978208E+08 1.03970337E+08  83.550936      7787.4492    
 3.35961959E-06 1.12155548E-08 1.06024607E+08 1.06016583E+08  85.745229      7938.2090    
 3.38212584E-06 1.12906884E-08 1.08165589E+08 1.08157399E+08  88.087579      8102.1554    
 3.40478285E-06 1.13663252E-08 1.10346123E+08 1.10337761E+08  90.488288      8271.5409    
 3.42759164E-06 1.14424687E-08 1.12517179E+08 1.12508648E+08  92.863865      8437.9307    
 3.45055323E-06 1.15191223E-08 1.14837199E+08 1.14828490E+08  95.483149      8613.5868    
 3.47366865E-06 1.15962894E-08 1.17102734E+08 1.17093853E+08  98.001201      8782.7224    
 3.49693891E-06 1.16739735E-08 1.19450349E+08 1.19441292E+08  100.64998      8955.8493    
 3.52036506E-06 1.17521780E-08 1.21874324E+08 1.21865085E+08  103.42196      9134.8435    
 3.54394814E-06 1.18309064E-08 1.24271658E+08 1.24262232E+08  106.13739      9319.4400    
 3.56768921E-06 1.19101621E-08 1.26815851E+08 1.26806224E+08  109.10020      9517.4317    
 3.59158932E-06 1.19899488E-08 1.29334700E+08 1.29324878E+08  112.00876      9710.4051    
 3.61564954E-06 1.20702701E-08 1.31908715E+08 1.31898695E+08  115.00375      9905.2924    
 3.63987094E-06 1.21511293E-08 1.34603061E+08 1.34592836E+08  118.20403      10106.473    
 3.66425460E-06 1.22325303E-08 1.37250147E+08 1.37239723E+08  121.30792      10301.802    
 3.68880161E-06 1.23144766E-08 1.40039953E+08 1.40029320E+08  124.65899      10508.272    
 3.71351306E-06 1.23969718E-08 1.42840158E+08 1.42829305E+08  128.01819      10725.662    
 3.73839005E-06 1.24800197E-08 1.45662196E+08 1.45651120E+08  131.40429      10944.871    
 3.76343369E-06 1.25636239E-08 1.48656782E+08 1.48645472E+08  135.09862      11174.770    
 3.78864510E-06 1.26477882E-08 1.51579536E+08 1.51568002E+08  138.64654      11395.885    
 3.81402541E-06 1.27325163E-08 1.54638455E+08 1.54626688E+08  142.43638      11624.501    
 3.83957574E-06 1.28178120E-08 1.57751114E+08 1.57739114E+08  146.31555      11853.909    
 3.86529723E-06 1.29036791E-08 1.60851640E+08 1.60839406E+08  150.15656      12084.413    
 3.89119103E-06 1.29901214E-08 1.64165912E+08 1.64153414E+08  154.39437      12343.474    
 3.91725829E-06 1.30771428E-08 1.67399773E+08 1.67387020E+08  158.46304      12594.430    
 3.94350018E-06 1.31647472E-08 1.70753514E+08 1.70740500E+08  162.74867      12851.854    
 3.96991787E-06 1.32529384E-08 1.74213162E+08 1.74199881E+08  167.22775      13113.787    
 3.99651253E-06 1.33417205E-08 1.77636349E+08 1.77622807E+08  171.61823      13369.758    
 4.02328535E-06 1.34310972E-08 1.81270366E+08 1.81256552E+08  176.41184      13637.646    
 4.05023752E-06 1.35210728E-08 1.84865230E+08 1.84851141E+08  181.11149      13907.707    
 4.07737024E-06 1.36116511E-08 1.88541923E+08 1.88527542E+08  185.95727      14194.796    
 4.10468473E-06 1.37028361E-08 1.92386846E+08 1.92372160E+08  191.12843      14494.063    
 4.13218219E-06 1.37946320E-08 1.96166113E+08 1.96151133E+08  196.14695      14783.897    
