 OPTXAGNF AGN Spectrum Model Parameters: NLS, Astar 0.0                          
 M_BH:  3.0000E+08 M_0            L  :  0.1000     L/Ledd 
 D   :  1.5000E+18 cm             z  :   0.000     redshift 
 Rcor:   40.00     Rg             Ro :   4.000     Rg 
 C_T :  0.2000     keV            Tau:   15.00     Optical Depth 
 gam :   2.200     (-slope)       fpl:  0.2000     Fraction 
 E              0.5DeltaE      E.FE total     E.FE Disk      E.FE Compton   E.FE NonThermal
 (keV)          (keV)          E.E/cm2/s/E    E.E/cm2/s/E    E.E/cm2/s/E    E.E/cm2/s/E    
 1.00334952E-06 3.34952256E-09 2.87376896E+08 2.87355691E+08  68.332319      21136.695    
 1.01007101E-06 3.37196116E-09 2.93064188E+08 2.93042572E+08  70.127471      21545.760    
 1.01683752E-06 3.39455008E-09 2.98990514E+08 2.98968465E+08  72.030873      21976.138    
 1.02364936E-06 3.41729032E-09 3.05080100E+08 3.05057587E+08  74.007473      22438.554    
 1.03050683E-06 3.44018290E-09 3.11116529E+08 3.11093558E+08  75.950980      22895.033    
 1.03741024E-06 3.46322884E-09 3.17543561E+08 3.17520108E+08  78.079879      23375.414    
 1.04435990E-06 3.48642917E-09 3.23872522E+08 3.23848600E+08  80.153617      23841.585    
 1.05135611E-06 3.50978492E-09 3.30375172E+08 3.30350775E+08  82.305968      24314.784    
 1.05839920E-06 3.53329712E-09 3.37150244E+08 3.37125358E+08  84.588176      24800.942    
 1.06548946E-06 3.55696684E-09 3.43821007E+08 3.43795633E+08  86.809809      25287.978    
 1.07262722E-06 3.58079512E-09 3.50873942E+08 3.50848027E+08  89.217870      25825.165    
 1.07981280E-06 3.60478303E-09 3.57916490E+08 3.57890041E+08  91.613121      26357.248    
 1.08704652E-06 3.62893164E-09 3.65051141E+08 3.65024157E+08  94.046733      26889.714    
 1.09432869E-06 3.65324201E-09 3.72588415E+08 3.72560874E+08  96.681494      27444.594    
 1.10165965E-06 3.67771524E-09 3.79960103E+08 3.79932024E+08  99.221051      27980.357    
 1.10903971E-06 3.70235243E-09 3.87699444E+08 3.87670807E+08  101.94462      28535.175    
 1.11646922E-06 3.72715465E-09 3.95535475E+08 3.95506259E+08  104.71089      29111.271    
 1.12394850E-06 3.75212303E-09 4.03363122E+08 4.03333307E+08  107.46223      29707.470    
 1.13147788E-06 3.77725867E-09 4.11747807E+08 4.11717355E+08  110.50366      30341.788    
 1.13905770E-06 3.80256270E-09 4.19893988E+08 4.19862926E+08  113.40663      30948.454    
 1.14668830E-06 3.82803623E-09 4.28386141E+08 4.28354451E+08  116.48674      31573.422    
 1.15437002E-06 3.85368042E-09 4.37104479E+08 4.37072154E+08  119.68110      32205.922    
 1.16210319E-06 3.87949640E-09 4.45750481E+08 4.45717532E+08  122.82398      32826.690    
 1.16988818E-06 3.90548532E-09 4.54959672E+08 4.54926038E+08  126.26892      33507.387    
 1.17772531E-06 3.93164835E-09 4.64020572E+08 4.63986245E+08  129.62019      34198.007    
 1.18561494E-06 3.95798663E-09 4.73338262E+08 4.73303227E+08  133.10317      34901.465    
 1.19355743E-06 3.98450137E-09 4.83037629E+08 4.83001868E+08  136.79144      35623.912    
 1.20155313E-06 4.01119372E-09 4.92591825E+08 4.92555358E+08  140.38407      36326.243    
 1.20960239E-06 4.03806489E-09 5.02697463E+08 5.02660259E+08  144.28076      37058.964    
 1.21770557E-06 4.06511607E-09 5.12779465E+08 5.12741533E+08  148.15163      37783.845    
 1.22586303E-06 4.09234846E-09 5.23002350E+08 5.22963655E+08  152.08977      38542.903    
 1.23407514E-06 4.11976329E-09 5.33792415E+08 5.33752892E+08  156.34783      39366.506    
 1.24234227E-06 4.14736177E-09 5.44350066E+08 5.44309744E+08  160.45457      40161.779    
 1.25066478E-06 4.17514513E-09 5.55438859E+08 5.55397707E+08  164.86182      40987.389    
 1.25904304E-06 4.20311462E-09 5.66656321E+08 5.66614341E+08  169.33230      41810.779    
 1.26747742E-06 4.23127147E-09 5.77871713E+08 5.77828915E+08  173.78462      42624.538    
 1.27596831E-06 4.25961695E-09 5.89874249E+08 5.89830583E+08  178.69991      43487.449    
 1.28451608E-06 4.28815232E-09 6.01540563E+08 6.01496019E+08  183.39433      44360.166    
 1.29312111E-06 4.31687884E-09 6.13707499E+08 6.13662023E+08  188.37856      45287.612    
 1.30178379E-06 4.34579781E-09 6.26187439E+08 6.26141018E+08  193.54090      46227.921    
 1.31050450E-06 4.37491051E-09 6.38569244E+08 6.38521896E+08  198.62325      47148.605    
 1.31928362E-06 4.40421823E-09 6.51762768E+08 6.51714448E+08  204.19774      48116.501    
 1.32812156E-06 4.43372228E-09 6.64732683E+08 6.64683418E+08  209.61351      49055.613    
 1.33701871E-06 4.46342399E-09 6.78081774E+08 6.78031541E+08  215.24968      50018.722    
 1.34597546E-06 4.49332467E-09 6.91965295E+08 6.91914011E+08  221.21025      51062.104    
 1.35499221E-06 4.52342565E-09 7.05647051E+08 7.05594721E+08  227.01989      52103.640    
 1.36406936E-06 4.55372829E-09 7.20124316E+08 7.20070888E+08  233.32540      53194.559    
 1.37320733E-06 4.58423392E-09 7.34555211E+08 7.34500705E+08  239.58091      54266.091    
 1.38240650E-06 4.61494391E-09 7.49200575E+08 7.49144989E+08  245.95365      55340.584    
 1.39166731E-06 4.64585962E-09 7.64644428E+08 7.64587718E+08  252.83506      56456.766    
 1.40099015E-06 4.67698245E-09 7.79762314E+08 7.79704502E+08  259.47605      57552.231    
 1.41037545E-06 4.70831376E-09 7.95647328E+08 7.95588312E+08  266.60777      58749.338    
 1.41982361E-06 4.73985497E-09 8.11702627E+08 8.11642380E+08  273.83231      59972.787    
 1.42933508E-06 4.77160747E-09 8.27769238E+08 8.27707776E+08  281.03712      61181.341    
 1.43891026E-06 4.80357269E-09 8.44947690E+08 8.44884944E+08  288.98073      62456.908    
 1.44854958E-06 4.83575204E-09 8.61652271E+08 8.61588294E+08  296.57202      63680.499    
 1.45825348E-06 4.86814696E-09 8.79080902E+08 8.79015657E+08  304.63742      64940.830    
 1.46802239E-06 4.90075889E-09 8.96942085E+08 8.96875534E+08  312.98008      66238.309    
 1.47785673E-06 4.93358930E-09 9.14670653E+08 9.14602753E+08  321.19869      67579.036    
 1.48775696E-06 4.96663964E-09 9.33568867E+08 9.33499516E+08  330.21905      69020.856    
 1.49772351E-06 4.99991138E-09 9.52130931E+08 9.52060177E+08  338.97106      70414.814    
 1.50775683E-06 5.03340601E-09 9.71252195E+08 9.71180013E+08  348.09145      71833.925    
 1.51785736E-06 5.06712502E-09 9.91121054E+08 9.91047409E+08  357.72413      73287.605    
 1.52802556E-06 5.10106992E-09 1.01070976E+09 1.01063469E+09  367.11880      74704.691    
 1.53826187E-06 5.13524222E-09 1.03144569E+09 1.03136910E+09  377.32211      76213.306    
 1.54856676E-06 5.16964344E-09 1.05209745E+09 1.05201928E+09  387.43119      77785.297    
 1.55894067E-06 5.20427512E-09 1.07307453E+09 1.07299475E+09  397.74353      79381.947    
 1.56938409E-06 5.23913879E-09 1.09517520E+09 1.09509375E+09  408.86441      81042.908    
 1.57989746E-06 5.27423602E-09 1.11681898E+09 1.11673591E+09  419.60341      82646.898    
 1.59048127E-06 5.30956836E-09 1.13957014E+09 1.13948539E+09  431.14368      84311.359    
 1.60113597E-06 5.34513740E-09 1.16254504E+09 1.16245863E+09  442.81880      85970.354    
 1.61186206E-06 5.38094472E-09 1.18555660E+09 1.18546850E+09  454.47765      87650.429    
 1.62265999E-06 5.41699191E-09 1.21013802E+09 1.21004802E+09  467.31517      89531.936    
 1.63353026E-06 5.45328058E-09 1.23405205E+09 1.23396022E+09  479.59085      91348.171    
 1.64447336E-06 5.48981235E-09 1.25901291E+09 1.25891920E+09  492.64200      93222.873    
 1.65548976E-06 5.52658885E-09 1.28457056E+09 1.28447494E+09  506.12411      95115.468    
 1.66657996E-06 5.56361172E-09 1.30994949E+09 1.30985200E+09  519.41418      96972.372    
 1.67774445E-06 5.60088261E-09 1.33701313E+09 1.33691368E+09  534.01032      98922.497    
 1.68898374E-06 5.63840317E-09 1.36357288E+09 1.36347145E+09  548.15359      100877.58    
 1.70029832E-06 5.67617509E-09 1.39095646E+09 1.39085292E+09  562.91196      102974.37    
 1.71168869E-06 5.71420004E-09 1.41938511E+09 1.41927939E+09  578.47886      105136.44    
 1.72315537E-06 5.75247973E-09 1.44742531E+09 1.44731748E+09  593.67065      107239.08    
 1.73469887E-06 5.79101585E-09 1.47711926E+09 1.47700921E+09  610.18100      109437.77    
 1.74631969E-06 5.82981012E-09 1.50666709E+09 1.50655486E+09  626.51738      111595.81    
 1.75801837E-06 5.86886429E-09 1.53670660E+09 1.53659219E+09  643.20458      113763.90    
 1.76979541E-06 5.90818007E-09 1.56832631E+09 1.56820955E+09  661.17655      116106.20    
 1.78165135E-06 5.94775924E-09 1.59930626E+09 1.59918711E+09  678.54216      118478.41    
 1.79358672E-06 5.98760354E-09 1.63188428E+09 1.63176262E+09  697.21596      120955.55    
 1.80560203E-06 6.02771477E-09 1.66475394E+09 1.66462981E+09  716.08316      123418.73    
 1.81769784E-06 6.06809470E-09 1.69770522E+09 1.69757863E+09  734.94931      125858.18    
 1.82987468E-06 6.10874514E-09 1.73287164E+09 1.73274246E+09  755.69554      128423.52    
 1.84213310E-06 6.14966790E-09 1.76709868E+09 1.76696701E+09  775.54600      130898.65    
 1.85447363E-06 6.19086481E-09 1.80283866E+09 1.80270430E+09  796.66468      133558.72    
 1.86689683E-06 6.23233769E-09 1.83940082E+09 1.83926363E+09  818.45209      136363.36    
 1.87940326E-06 6.27408840E-09 1.87572330E+09 1.87558334E+09  839.94283      139119.65    
 1.89199346E-06 6.31611880E-09 1.91447150E+09 1.91432861E+09  863.56101      142024.73    
 1.90466801E-06 6.35843077E-09 1.95246604E+09 1.95232032E+09  886.41631      144832.93    
 1.91742747E-06 6.40102618E-09 1.99167255E+09 1.99152395E+09  910.29758      147695.50    
 1.93027240E-06 6.44390694E-09 2.03233866E+09 2.03218709E+09  935.45417      150637.73    
 1.94320339E-06 6.48707497E-09 2.07246708E+09 2.07231248E+09  960.02001      153642.47    
 1.95622099E-06 6.53053217E-09 2.11497860E+09 2.11482071E+09  986.73566      156906.72    
 1.96932581E-06 6.57428050E-09 2.15724465E+09 2.15708353E+09  1013.1351      160111.35    
 1.98251841E-06 6.61832191E-09 2.20025147E+09 2.20008710E+09  1040.1376      163333.16    
 1.99579939E-06 6.66265834E-09 2.24547899E+09 2.24531125E+09  1069.1809      166674.46    
 2.00916934E-06 6.70729179E-09 2.28981117E+09 2.28964017E+09  1097.2618      169909.44    
 2.02262885E-06 6.75222424E-09 2.33644845E+09 2.33627404E+09  1127.4783      173290.32    
 2.03617854E-06 6.79745770E-09 2.38346242E+09 2.38328443E+09  1157.9676      176834.28    
 2.04981899E-06 6.84299417E-09 2.43063500E+09 2.43045336E+09  1188.4961      180450.63    
 2.06355082E-06 6.88883570E-09 2.48093177E+09 2.48074627E+09  1222.0229      184269.62    
 2.07737464E-06 6.93498432E-09 2.52990719E+09 2.52971801E+09  1254.1217      187932.69    
 2.09129106E-06 6.98144209E-09 2.58106785E+09 2.58087485E+09  1288.2944      191713.11    
 2.10530072E-06 7.02821109E-09 2.63335883E+09 2.63316198E+09  1323.5029      195522.64    
 2.11940422E-06 7.07529339E-09 2.68533001E+09 2.68512935E+09  1358.2541      199302.98    
 2.13360221E-06 7.12269110E-09 2.74079250E+09 2.74058760E+09  1396.4704      203502.95    
 2.14789530E-06 7.17040633E-09 2.79513072E+09 2.79492162E+09  1433.4037      207670.66    
 2.16228415E-06 7.21844121E-09 2.85125005E+09 2.85103666E+09  1472.0467      211926.75    
 2.17676939E-06 7.26679787E-09 2.90940601E+09 2.90918822E+09  1512.6999      216277.24    
 2.19135167E-06 7.31547848E-09 2.96681847E+09 2.96659640E+09  1552.4234      220517.88    
 2.20603163E-06 7.36448520E-09 3.02766310E+09 3.02743656E+09  1595.6519      224948.90    
 2.22080994E-06 7.41382021E-09 3.08810483E+09 3.08787383E+09  1638.3125      229363.29    
 2.23568724E-06 7.46348573E-09 3.14965950E+09 3.14942378E+09  1682.0061      234037.72    
 2.25066421E-06 7.51348396E-09 3.21433312E+09 3.21409238E+09  1728.9405      239009.29    
 2.26574151E-06 7.56381713E-09 3.27775508E+09 3.27750950E+09  1774.3478      243811.05    
 2.28091982E-06 7.61448748E-09 3.34450037E+09 3.34424974E+09  1823.2410      248804.80    
 2.29619980E-06 7.66549727E-09 3.41172595E+09 3.41147032E+09  1872.5109      253764.16    
 2.31158215E-06 7.71684879E-09 3.47923788E+09 3.47897728E+09  1921.9101      258687.61    
 2.32706754E-06 7.76854430E-09 3.55115347E+09 3.55088755E+09  1976.0899      263945.25    
 2.34265667E-06 7.82058613E-09 3.62121218E+09 3.62094085E+09  2027.9941      269302.32    
 2.35835023E-06 7.87297659E-09 3.69442578E+09 3.69414877E+09  2083.2889      274926.05    
 2.37414893E-06 7.92571802E-09 3.76919055E+09 3.76890782E+09  2140.1850      280588.56    
 2.39005346E-06 7.97881276E-09 3.84353092E+09 3.84324258E+09  2196.3779      286147.43    
 2.40606454E-06 8.03226319E-09 3.92289326E+09 3.92259900E+09  2258.2144      292000.29    
 2.42218287E-06 8.08607168E-09 4.00058196E+09 4.00028198E+09  2317.8962      297660.48    
 2.43840918E-06 8.14024064E-09 4.08088518E+09 4.08057925E+09  2380.4246      303551.12    
 2.45474420E-06 8.19477248E-09 4.16402769E+09 4.16371530E+09  2446.1194      309948.11    
 2.47118864E-06 8.24966963E-09 4.24614417E+09 4.24582541E+09  2510.3524      316242.48    
 2.48774324E-06 8.30493454E-09 4.33320149E+09 4.33287607E+09  2580.2989      322840.50    
 2.50440875E-06 8.36056967E-09 4.41960875E+09 4.41927681E+09  2649.2359      329294.44    
 2.52118589E-06 8.41657750E-09 4.50768276E+09 4.50734424E+09  2719.9369      335794.85    
 2.53807543E-06 8.47296053E-09 4.60013360E+09 4.59978829E+09  2795.7822      342516.77    
 2.55507811E-06 8.52972128E-09 4.69083672E+09 4.69048463E+09  2869.2054      349214.32    
 2.57219470E-06 8.58686227E-09 4.78632898E+09 4.78596945E+09  2948.3179      356585.99    
 2.58942595E-06 8.64438604E-09 4.88242499E+09 4.88205801E+09  3027.9354      363953.53    
 2.60677263E-06 8.70229518E-09 4.97901553E+09 4.97864116E+09  3107.8689      371266.41    
 2.62423551E-06 8.76059224E-09 5.08180891E+09 5.08142677E+09  3195.4228      378946.81    
 2.64181539E-06 8.81927985E-09 5.18199405E+09 5.18160443E+09  3279.3511      386334.27    
 2.65951303E-06 8.87836060E-09 5.28673110E+09 5.28633377E+09  3368.8220      393956.88    
 2.67732922E-06 8.93783714E-09 5.39359258E+09 5.39318721E+09  3460.7633      401912.39    
 2.69526477E-06 8.99771211E-09 5.49989507E+09 5.49948141E+09  3551.6261      410111.52    
 2.71332047E-06 9.05798819E-09 5.61341787E+09 5.61299539E+09  3651.6797      418831.18    
 2.73149713E-06 9.11866806E-09 5.72445488E+09 5.72402390E+09  3748.1200      427227.02    
 2.74979555E-06 9.17975443E-09 5.83932486E+09 5.83888520E+09  3849.2955      435811.53    
 2.76821656E-06 9.24125002E-09 5.95814774E+09 5.95769922E+09  3955.4553      444565.91    
 2.78676096E-06 9.30315757E-09 6.07555720E+09 6.07510002E+09  4059.3182      453128.15    
 2.80542960E-06 9.36547984E-09 6.20007558E+09 6.19960896E+09  4172.4942      462447.79    
 2.82422330E-06 9.42821962E-09 6.32356023E+09 6.32308395E+09  4283.8904      471995.35    
 2.84314290E-06 9.49137968E-09 6.44953500E+09 6.44904895E+09  4398.2900      481655.67    
 2.86218924E-06 9.55496287E-09 6.58164704E+09 6.58115086E+09  4520.8526      491656.49    
 2.88136318E-06 9.61897199E-09 6.71132084E+09 6.71081486E+09  4639.5753      501340.24    
 2.90066556E-06 9.68340992E-09 6.84789083E+09 6.84737466E+09  4767.5825      511406.25    
 2.92009725E-06 9.74827952E-09 6.98520536E+09 6.98467903E+09  4896.2376      521435.42    
 2.93965911E-06 9.81358368E-09 7.12334855E+09 7.12281170E+09  5025.5763      531825.82    
 2.95935202E-06 9.87932532E-09 7.27022311E+09 7.26967473E+09  5167.0597      543216.64    
 2.97917685E-06 9.94550737E-09 7.41343791E+09 7.41287842E+09  5302.7679      554181.57    
 2.99913449E-06 1.00121328E-08 7.56321628E+09 7.56264531E+09  5447.5355      565521.05    
 3.01922583E-06 1.00792045E-08 7.71589669E+09 7.71531418E+09  5596.1051      576918.47    
 3.03945176E-06 1.01467255E-08 7.86784556E+09 7.86725169E+09  5743.0255      588128.86    
 3.05981319E-06 1.02146989E-08 8.03016888E+09 8.02956298E+09  5904.9127      599993.44    
 3.08031101E-06 1.02831276E-08 8.18880871E+09 8.18819063E+09  6060.7483      612025.29    
 3.10094616E-06 1.03520148E-08 8.35306158E+09 8.35243060E+09  6224.4546      624753.67    
 3.12171953E-06 1.04213634E-08 8.52281197E+09 8.52216780E+09  6396.0003      637771.38    
 3.14263207E-06 1.04911766E-08 8.69061929E+09 8.68996227E+09  6563.9402      650465.07    
 3.16368471E-06 1.05614574E-08 8.86864750E+09 8.86797700E+09  6747.0596      663760.76    
 3.18487837E-06 1.06322091E-08 9.04504907E+09 9.04436538E+09  6927.0623      676758.89    
 3.20621402E-06 1.07034348E-08 9.22516155E+09 9.22446447E+09  7112.1659      689969.89    
 3.22769259E-06 1.07751376E-08 9.41387263E+09 9.41316096E+09  7310.2175      704365.05    
 3.24931505E-06 1.08473207E-08 9.59918720E+09 9.59846098E+09  7502.1838      718725.48    
 3.27108236E-06 1.09199874E-08 9.79442630E+09 9.79368488E+09  7709.3001      733707.52    
 3.29299549E-06 1.09931409E-08 9.99056048E+09 9.98980402E+09  7917.1914      748540.62    
 3.31505541E-06 1.10667844E-08 1.01880509E+10 1.01872795E+10  8126.4673      763298.39    
 3.33726312E-06 1.11409213E-08 1.03978208E+10 1.03970337E+10  8355.0936      778744.92    
 3.35961959E-06 1.12155548E-08 1.06024607E+10 1.06016583E+10  8574.5229      793820.90    
 3.38212584E-06 1.12906884E-08 1.08165589E+10 1.08157399E+10  8808.7579      810215.54    
 3.40478285E-06 1.13663252E-08 1.10346123E+10 1.10337761E+10  9048.8288      827154.09    
 3.42759164E-06 1.14424687E-08 1.12517179E+10 1.12508648E+10  9286.3865      843793.07    
 3.45055323E-06 1.15191223E-08 1.14837199E+10 1.14828490E+10  9548.3149      861358.68    
 3.47366865E-06 1.15962894E-08 1.17102734E+10 1.17093853E+10  9800.1201      878272.24    
 3.49693891E-06 1.16739735E-08 1.19450349E+10 1.19441292E+10  10064.998      895584.93    
 3.52036506E-06 1.17521780E-08 1.21874324E+10 1.21865085E+10  10342.196      913484.35    
 3.54394814E-06 1.18309064E-08 1.24271658E+10 1.24262232E+10  10613.739      931944.00    
 3.56768921E-06 1.19101621E-08 1.26815851E+10 1.26806224E+10  10910.020      951743.17    
 3.59158932E-06 1.19899488E-08 1.29334700E+10 1.29324878E+10  11200.876      971040.51    
 3.61564954E-06 1.20702701E-08 1.31908715E+10 1.31898695E+10  11500.375      990529.24    
 3.63987094E-06 1.21511293E-08 1.34603061E+10 1.34592836E+10  11820.403      1010647.3    
 3.66425460E-06 1.22325303E-08 1.37250147E+10 1.37239723E+10  12130.792      1030180.2    
 3.68880161E-06 1.23144766E-08 1.40039953E+10 1.40029320E+10  12465.899      1050827.2    
 3.71351306E-06 1.23969718E-08 1.42840158E+10 1.42829305E+10  12801.819      1072566.2    
 3.73839005E-06 1.24800197E-08 1.45662196E+10 1.45651120E+10  13140.429      1094487.1    
 3.76343369E-06 1.25636239E-08 1.48656782E+10 1.48645472E+10  13509.862      1117477.0    
 3.78864510E-06 1.26477882E-08 1.51579536E+10 1.51568002E+10  13864.654      1139588.5    
 3.81402541E-06 1.27325163E-08 1.54638455E+10 1.54626688E+10  14243.638      1162450.1    
 3.83957574E-06 1.28178120E-08 1.57751114E+10 1.57739114E+10  14631.555      1185390.9    
 3.86529723E-06 1.29036791E-08 1.60851640E+10 1.60839406E+10  15015.656      1208441.3    
 3.89119103E-06 1.29901214E-08 1.64165912E+10 1.64153414E+10  15439.437      1234347.4    
 3.91725829E-06 1.30771428E-08 1.67399773E+10 1.67387020E+10  15846.304      1259443.0    
 3.94350018E-06 1.31647472E-08 1.70753514E+10 1.70740500E+10  16274.867      1285185.4    
 3.96991787E-06 1.32529384E-08 1.74213162E+10 1.74199881E+10  16722.775      1311378.7    
 3.99651253E-06 1.33417205E-08 1.77636349E+10 1.77622807E+10  17161.823      1336975.8    
 4.02328535E-06 1.34310972E-08 1.81270366E+10 1.81256552E+10  17641.184      1363764.6    
 4.05023752E-06 1.35210728E-08 1.84865230E+10 1.84851141E+10  18111.149      1390770.7    
 4.07737024E-06 1.36116511E-08 1.88541923E+10 1.88527542E+10  18595.727      1419479.6    
 4.10468473E-06 1.37028361E-08 1.92386846E+10 1.92372160E+10  19112.843      1449406.3    
 4.13218219E-06 1.37946320E-08 1.96166113E+10 1.96151133E+10  19614.695      1478389.7    
