 OPTXAGNF AGN Spectrum Model Parameters: BLS, Astar 0.0                          
 M_BH:  3.0000E+08 M_0            L  :  2.0000E-02 L/Ledd 
 D   :  1.5000E+18 cm             z  :   0.000     redshift 
 Rcor:   60.00     Rg             Ro :   4.000     Rg 
 C_T :  0.2000     keV            Tau:   15.00     Optical Depth 
 gam :   1.800     (-slope)       fpl:  0.5000     Fraction 
 E              0.5DeltaE      E.FE total     E.FE Disk      E.FE Compton   E.FE NonThermal
 (keV)          (keV)          E.E/cm2/s/E    E.E/cm2/s/E    E.E/cm2/s/E    E.E/cm2/s/E    
 1.00334952E-06 3.34952256E-09 1.89837793E+08 1.89824968E+08  143.10516      12681.997    
 1.01007101E-06 3.37196116E-09 1.93590378E+08 1.93577293E+08  146.86432      12937.853    
 1.01683752E-06 3.39455008E-09 1.97500352E+08 1.97487000E+08  150.85013      13201.424    
 1.02364936E-06 3.41729032E-09 2.01517817E+08 2.01504193E+08  154.98921      13468.432    
 1.03050683E-06 3.44018290E-09 2.05500368E+08 2.05486479E+08  159.05899      13730.016    
 1.03741024E-06 3.46322884E-09 2.09740032E+08 2.09725862E+08  163.51695      14006.298    
 1.04435990E-06 3.48642917E-09 2.13915243E+08 2.13900786E+08  167.85940      14289.550    
 1.05135611E-06 3.50978492E-09 2.18204832E+08 2.18190074E+08  172.36646      14585.564    
 1.05839920E-06 3.53329712E-09 2.22673737E+08 2.22658669E+08  177.14541      14890.588    
 1.06548946E-06 3.55696684E-09 2.27074082E+08 2.27058713E+08  181.79752      15186.790    
 1.07262722E-06 3.58079512E-09 2.31725921E+08 2.31710238E+08  186.83997      15495.889    
 1.07981280E-06 3.60478303E-09 2.36371001E+08 2.36355008E+08  191.85560      15800.382    
 1.08704652E-06 3.62893164E-09 2.41076763E+08 2.41060458E+08  196.95154      16108.130    
 1.09432869E-06 3.65324201E-09 2.46047471E+08 2.46030821E+08  202.46864      16446.908    
 1.10165965E-06 3.67771524E-09 2.50909355E+08 2.50892365E+08  207.78640      16782.142    
 1.10903971E-06 3.70235243E-09 2.56013153E+08 2.55995809E+08  213.48943      17130.373    
 1.11646922E-06 3.72715465E-09 2.61180616E+08 2.61162919E+08  219.28185      17477.920    
 1.12394850E-06 3.75212303E-09 2.66342650E+08 2.66324604E+08  225.04302      17820.972    
 1.13147788E-06 3.77725867E-09 2.71871096E+08 2.71852682E+08  231.41155      18182.780    
 1.13905770E-06 3.80256270E-09 2.77242806E+08 2.77224033E+08  237.49019      18535.794    
 1.14668830E-06 3.82803623E-09 2.82842143E+08 2.82822981E+08  243.93969      18918.312    
 1.15437002E-06 3.85368042E-09 2.88590309E+08 2.88570743E+08  250.62841      19315.266    
 1.16210319E-06 3.87949640E-09 2.94291029E+08 2.94271069E+08  257.20932      19703.545    
 1.16988818E-06 3.90548532E-09 3.00362107E+08 3.00341731E+08  264.42265      20111.904    
 1.17772531E-06 3.93164835E-09 3.06335785E+08 3.06315005E+08  271.43985      20508.180    
 1.18561494E-06 3.95798663E-09 3.12478396E+08 3.12457207E+08  278.73281      20910.699    
 1.19355743E-06 3.98450137E-09 3.18872017E+08 3.18850399E+08  286.45557      21331.651    
 1.20155313E-06 4.01119372E-09 3.25170367E+08 3.25148309E+08  293.97809      21763.904    
 1.20960239E-06 4.03806489E-09 3.31831297E+08 3.31808771E+08  302.13720      22224.093    
 1.21770557E-06 4.06511607E-09 3.38476811E+08 3.38453824E+08  310.24223      22676.309    
 1.22586303E-06 4.09234846E-09 3.45215037E+08 3.45191589E+08  318.48810      23129.326    
 1.23407514E-06 4.11976329E-09 3.52326087E+08 3.52302159E+08  327.40373      23600.622    
 1.24234227E-06 4.14736177E-09 3.59284559E+08 3.59260167E+08  336.00257      24056.597    
 1.25066478E-06 4.17514513E-09 3.66592187E+08 3.66567303E+08  345.23056      24538.824    
 1.25904304E-06 4.20311462E-09 3.73984521E+08 3.73959118E+08  354.59090      25049.311    
 1.26747742E-06 4.23127147E-09 3.81375670E+08 3.81349747E+08  363.91320      25558.753    
 1.27596831E-06 4.25961695E-09 3.89284075E+08 3.89257604E+08  374.20477      26097.424    
 1.28451608E-06 4.28815232E-09 3.96971738E+08 3.96944740E+08  384.03391      26613.430    
 1.29312111E-06 4.31687884E-09 4.04988403E+08 4.04960864E+08  394.46978      27144.949    
 1.30178379E-06 4.34579781E-09 4.13210813E+08 4.13182725E+08  405.27852      27682.711    
 1.31050450E-06 4.37491051E-09 4.21368971E+08 4.21340332E+08  415.91980      28223.509    
 1.31928362E-06 4.40421823E-09 4.30060428E+08 4.30031174E+08  427.59135      28826.595    
 1.32812156E-06 4.43372228E-09 4.38605216E+08 4.38575363E+08  438.93062      29414.782    
 1.33701871E-06 4.46342399E-09 4.47399197E+08 4.47368733E+08  450.73129      30013.155    
 1.34597546E-06 4.49332467E-09 4.56544236E+08 4.56513146E+08  463.21105      30626.861    
 1.35499221E-06 4.52342565E-09 4.65556993E+08 4.65525293E+08  475.37485      31224.220    
 1.36406936E-06 4.55372829E-09 4.75092227E+08 4.75059891E+08  488.57672      31847.159    
 1.37320733E-06 4.58423392E-09 4.84597240E+08 4.84564256E+08  501.67389      32482.424    
 1.38240650E-06 4.61494391E-09 4.94243312E+08 4.94209645E+08  515.01648      33151.715    
 1.39166731E-06 4.64585962E-09 5.04413723E+08 5.04379341E+08  529.42391      33853.025    
 1.40099015E-06 4.67698245E-09 5.14370399E+08 5.14335326E+08  543.32802      34529.420    
 1.41037545E-06 4.70831376E-09 5.24830757E+08 5.24794967E+08  558.25943      35231.441    
 1.41982361E-06 4.73985497E-09 5.35403070E+08 5.35366565E+08  573.38512      35931.116    
 1.42933508E-06 4.77160747E-09 5.45983081E+08 5.45945869E+08  588.46952      36623.494    
 1.43891026E-06 4.80357269E-09 5.57292918E+08 5.57254929E+08  605.10045      37383.947    
 1.44854958E-06 4.83575204E-09 5.68292121E+08 5.68253352E+08  620.99385      38147.811    
 1.45825348E-06 4.86814696E-09 5.79766656E+08 5.79727079E+08  637.87971      38938.362    
 1.46802239E-06 4.90075889E-09 5.91525200E+08 5.91484807E+08  655.34594      39737.229    
 1.47785673E-06 4.93358930E-09 6.03197008E+08 6.03155816E+08  672.55249      40520.261    
 1.48775696E-06 4.96663964E-09 6.15636296E+08 6.15594262E+08  691.43733      41342.985    
 1.49772351E-06 4.99991138E-09 6.27855394E+08 6.27812540E+08  709.76040      42144.230    
 1.50775683E-06 5.03340601E-09 6.40441612E+08 6.40397889E+08  728.85460      42994.585    
 1.51785736E-06 5.06712502E-09 6.53518434E+08 6.53473780E+08  749.02114      43904.526    
 1.52802556E-06 5.10106992E-09 6.66411881E+08 6.66366321E+08  768.68943      44791.152    
 1.53826187E-06 5.13524222E-09 6.80057882E+08 6.80011373E+08  790.05038      45718.581    
 1.54856676E-06 5.16964344E-09 6.93648955E+08 6.93601515E+08  811.21407      46629.203    
 1.55894067E-06 5.20427512E-09 7.07453686E+08 7.07405310E+08  832.80322      47543.224    
 1.56938409E-06 5.23913879E-09 7.21995328E+08 7.21945975E+08  856.08478      48497.228    
 1.57989746E-06 5.27423602E-09 7.36237891E+08 7.36187546E+08  878.56698      49466.265    
 1.59048127E-06 5.30956836E-09 7.51206730E+08 7.51155319E+08  902.72637      50508.062    
 1.60113597E-06 5.34513740E-09 7.66322573E+08 7.66270098E+08  927.16798      51547.577    
 1.61186206E-06 5.38094472E-09 7.81462856E+08 7.81409329E+08  951.57552      52575.795    
 1.62265999E-06 5.41699191E-09 7.97632184E+08 7.97577547E+08  978.45016      53658.978    
 1.63353026E-06 5.45328058E-09 8.13364607E+08 8.13308903E+08  1004.1488      54699.558    
 1.64447336E-06 5.48981235E-09 8.29783388E+08 8.29726577E+08  1031.4705      55779.846    
 1.65548976E-06 5.52658885E-09 8.46593623E+08 8.46535632E+08  1059.6943      56930.552    
 1.66657996E-06 5.56361172E-09 8.63287308E+08 8.63228130E+08  1087.5160      58091.015    
 1.67774445E-06 5.60088261E-09 8.81085007E+08 8.81024572E+08  1118.0715      59316.499    
 1.68898374E-06 5.63840317E-09 8.98553072E+08 8.98491423E+08  1147.6790      60501.232    
 1.70029832E-06 5.67617509E-09 9.16561171E+08 9.16498284E+08  1178.5740      61708.132    
 1.71168869E-06 5.71420004E-09 9.35254121E+08 9.35189967E+08  1211.1612      62942.908    
 1.72315537E-06 5.75247973E-09 9.53693272E+08 9.53627868E+08  1242.9632      64160.996    
 1.73469887E-06 5.79101585E-09 9.73215852E+08 9.73149071E+08  1277.5250      65502.809    
 1.74631969E-06 5.82981012E-09 9.92643319E+08 9.92575152E+08  1311.7226      66854.958    
 1.75801837E-06 5.86886429E-09 1.01239329E+09 1.01232373E+09  1346.6545      68213.043    
 1.76979541E-06 5.90818007E-09 1.03317816E+09 1.03310715E+09  1384.2753      69623.599    
 1.78165135E-06 5.94775924E-09 1.05354480E+09 1.05347239E+09  1420.6269      70987.579    
 1.79358672E-06 5.98760354E-09 1.07495799E+09 1.07488412E+09  1459.7166      72402.628    
 1.80560203E-06 6.02771477E-09 1.09656265E+09 1.09648732E+09  1499.2109      73834.865    
 1.81769784E-06 6.06809470E-09 1.11822151E+09 1.11814464E+09  1538.7030      75328.477    
 1.82987468E-06 6.10874514E-09 1.14133044E+09 1.14125192E+09  1582.1299      76940.894    
 1.84213310E-06 6.14966790E-09 1.16382543E+09 1.16374532E+09  1623.6819      78485.304    
 1.85447363E-06 6.19086481E-09 1.18731087E+09 1.18722912E+09  1667.8882      80079.298    
 1.86689683E-06 6.23233769E-09 1.21133471E+09 1.21125131E+09  1713.4940      81687.003    
 1.87940326E-06 6.27408840E-09 1.23520260E+09 1.23511758E+09  1758.4788      83266.196    
 1.89199346E-06 6.31611880E-09 1.26065771E+09 1.26057094E+09  1807.9160      84956.009    
 1.90466801E-06 6.35843077E-09 1.28562080E+09 1.28553225E+09  1855.7565      86690.666    
 1.91742747E-06 6.40102618E-09 1.31137730E+09 1.31128691E+09  1905.7442      88484.859    
 1.93027240E-06 6.44390694E-09 1.33808891E+09 1.33799663E+09  1958.4007      90321.082    
 1.94320339E-06 6.48707497E-09 1.36444978E+09 1.36435566E+09  2009.8209      92108.944    
 1.95622099E-06 6.53053217E-09 1.39236931E+09 1.39227327E+09  2065.7401      93977.744    
 1.96932581E-06 6.57428050E-09 1.42012923E+09 1.42003130E+09  2120.9974      95812.333    
 1.98251841E-06 6.61832191E-09 1.44837436E+09 1.44827449E+09  2177.5167      97694.539    
 1.99579939E-06 6.66265834E-09 1.47807178E+09 1.47796977E+09  2238.3068      99771.260    
 2.00916934E-06 6.70729179E-09 1.50718511E+09 1.50708101E+09  2297.0828      101795.60    
 2.02262885E-06 6.75222424E-09 1.53780562E+09 1.53769936E+09  2360.3278      103901.32    
 2.03617854E-06 6.79745770E-09 1.56867307E+09 1.56856465E+09  2424.1436      105993.83    
 2.04981899E-06 6.84299417E-09 1.59964522E+09 1.59953466E+09  2488.0414      108068.75    
 2.06355082E-06 6.88883570E-09 1.63265910E+09 1.63254629E+09  2558.2133      110246.86    
 2.07737464E-06 6.93498432E-09 1.66481111E+09 1.66469607E+09  2625.3971      112407.12    
 2.09129106E-06 6.98144209E-09 1.69839158E+09 1.69827412E+09  2696.9205      114759.61    
 2.10530072E-06 7.02821109E-09 1.73271126E+09 1.73259134E+09  2770.6114      117149.08    
 2.11940422E-06 7.07529339E-09 1.76682340E+09 1.76670107E+09  2843.3452      119492.52    
 2.13360221E-06 7.12269110E-09 1.80321597E+09 1.80309108E+09  2923.3299      121961.11    
 2.14789530E-06 7.17040633E-09 1.83887573E+09 1.83874838E+09  3000.6296      124347.37    
 2.16228415E-06 7.21844121E-09 1.87569951E+09 1.87556965E+09  3081.5069      126781.25    
 2.17676939E-06 7.26679787E-09 1.91385386E+09 1.91372133E+09  3166.5905      129364.03    
 2.19135167E-06 7.31547848E-09 1.95152456E+09 1.95138931E+09  3249.7286      132003.21    
 2.20603163E-06 7.36448520E-09 1.99143629E+09 1.99129816E+09  3340.2005      134785.55    
 2.22080994E-06 7.41382021E-09 2.03108644E+09 2.03094550E+09  3429.4841      137508.06    
 2.23568724E-06 7.46348573E-09 2.07146414E+09 2.07132037E+09  3520.9291      140247.73    
 2.25066421E-06 7.51348396E-09 2.11387771E+09 2.11373100E+09  3619.1550      143084.76    
 2.26574151E-06 7.56381713E-09 2.15547649E+09 2.15532694E+09  3714.1855      145840.59    
 2.28091982E-06 7.61448748E-09 2.19924444E+09 2.19909180E+09  3816.5096      148819.17    
 2.29619980E-06 7.66549727E-09 2.24332726E+09 2.24317142E+09  3919.6219      151916.15    
 2.31158215E-06 7.71684879E-09 2.28759866E+09 2.28743964E+09  4023.0047      154997.55    
 2.32706754E-06 7.76854430E-09 2.33474261E+09 2.33458023E+09  4136.3897      158239.48    
 2.34265667E-06 7.82058613E-09 2.38067764E+09 2.38051204E+09  4245.0134      161353.51    
 2.35835023E-06 7.87297659E-09 2.42867096E+09 2.42850203E+09  4360.7309      164566.97    
 2.37414893E-06 7.92571802E-09 2.47767697E+09 2.47750467E+09  4479.7988      167818.39    
 2.39005346E-06 7.97881276E-09 2.52640868E+09 2.52623293E+09  4597.3952      171153.22    
 2.40606454E-06 8.03226319E-09 2.57841463E+09 2.57823508E+09  4726.7991      174817.70    
 2.42218287E-06 8.08607168E-09 2.62933215E+09 2.62914894E+09  4851.6947      178358.53    
 2.43840918E-06 8.14024064E-09 2.68195505E+09 2.68176809E+09  4982.5456      181976.73    
 2.45474420E-06 8.19477248E-09 2.73642905E+09 2.73623826E+09  5120.0213      185670.74    
 2.47118864E-06 8.24966963E-09 2.79023713E+09 2.79004260E+09  5254.4383      189275.54    
 2.48774324E-06 8.30493454E-09 2.84726489E+09 2.84706642E+09  5400.8085      193065.86    
 2.50440875E-06 8.36056967E-09 2.90387179E+09 2.90366927E+09  5545.0667      196971.91    
 2.52118589E-06 8.41657750E-09 2.96156655E+09 2.96135983E+09  5693.0149      201032.65    
 2.53807543E-06 8.47296053E-09 3.02211271E+09 3.02190160E+09  5851.7252      205253.06    
 2.55507811E-06 8.52972128E-09 3.08152377E+09 3.08130843E+09  6005.3683      209334.62    
 2.57219470E-06 8.58686227E-09 3.14405395E+09 3.14383420E+09  6170.9133      213578.29    
 2.58942595E-06 8.64438604E-09 3.20697945E+09 3.20675532E+09  6337.5144      217790.33    
 2.60677263E-06 8.70229518E-09 3.27022977E+09 3.27000126E+09  6504.7763      222008.69    
 2.62423551E-06 8.76059224E-09 3.33751809E+09 3.33728472E+09  6687.9797      226680.06    
 2.64181539E-06 8.81927985E-09 3.40311284E+09 3.40287468E+09  6863.5982      231300.06    
 2.65951303E-06 8.87836060E-09 3.47167120E+09 3.47142807E+09  7050.8113      236079.58    
 2.67732922E-06 8.93783714E-09 3.54161369E+09 3.54136556E+09  7243.1918      240887.70    
 2.69526477E-06 8.99771211E-09 3.61119590E+09 3.61094285E+09  7433.3159      245612.48    
 2.71332047E-06 9.05798819E-09 3.68547507E+09 3.68521684E+09  7642.6660      250584.37    
 2.73149713E-06 9.11866806E-09 3.75814168E+09 3.75787838E+09  7844.4569      255454.51    
 2.74979555E-06 9.17975443E-09 3.83330344E+09 3.83303469E+09  8056.1529      260691.10    
 2.76821656E-06 9.24125002E-09 3.91103735E+09 3.91076289E+09  8278.2746      266183.31    
 2.78676096E-06 9.30315757E-09 3.98785665E+09 3.98757662E+09  8495.5913      271532.90    
 2.80542960E-06 9.36547984E-09 4.06929781E+09 4.06901193E+09  8732.3888      277138.30    
 2.82422330E-06 9.42821962E-09 4.15007076E+09 4.14977918E+09  8965.4626      282619.77    
 2.84314290E-06 9.49137968E-09 4.23246528E+09 4.23216793E+09  9204.8186      288145.44    
 2.86218924E-06 9.55496287E-09 4.31884906E+09 4.31854565E+09  9461.2486      293947.51    
 2.88136318E-06 9.61897199E-09 4.40365422E+09 4.40334461E+09  9709.6462      299896.57    
 2.90066556E-06 9.68340992E-09 4.49294093E+09 4.49262474E+09  9977.4635      306211.55    
 2.92009725E-06 9.74827952E-09 4.58271494E+09 4.58239222E+09  10246.635      312467.46    
 2.93965911E-06 9.81358368E-09 4.67303141E+09 4.67270221E+09  10517.237      318684.43    
 2.95935202E-06 9.87932532E-09 4.76901781E+09 4.76868180E+09  10813.239      325202.41    
 2.97917685E-06 9.94550737E-09 4.86263428E+09 4.86229170E+09  11097.162      331482.42    
 2.99913449E-06 1.00121328E-08 4.96051403E+09 4.96016455E+09  11400.033      338077.47    
 3.01922583E-06 1.00792045E-08 5.06028117E+09 5.05992433E+09  11710.855      345132.74    
 3.03945176E-06 1.01467255E-08 5.15957951E+09 5.15921535E+09  12018.227      352144.14    
 3.05981319E-06 1.02146989E-08 5.26561006E+09 5.26523815E+09  12356.901      359549.80    
 3.08031101E-06 1.02831276E-08 5.36925717E+09 5.36887781E+09  12682.917      366680.57    
 3.10094616E-06 1.03520148E-08 5.47654867E+09 5.47616167E+09  13025.395      373975.65    
 3.12171953E-06 1.04213634E-08 5.58740859E+09 5.58701379E+09  13384.267      381406.74    
 3.14263207E-06 1.04911766E-08 5.69701565E+09 5.69661308E+09  13735.597      388839.04    
 3.16368471E-06 1.05614574E-08 5.81325169E+09 5.81284047E+09  14118.672      397102.93    
 3.18487837E-06 1.06322091E-08 5.92843976E+09 5.92802003E+09  14495.228      405239.46    
 3.20621402E-06 1.07034348E-08 6.04603844E+09 6.04561011E+09  14882.451      413449.55    
 3.22769259E-06 1.07751376E-08 6.16921143E+09 6.16877419E+09  15296.752      421936.59    
 3.24931505E-06 1.08473207E-08 6.29019160E+09 6.28974574E+09  15698.325      430164.90    
 3.27108236E-06 1.09199874E-08 6.41760419E+09 6.41714934E+09  16131.580      438715.56    
 3.29299549E-06 1.09931409E-08 6.54560307E+09 6.54513902E+09  16566.454      447481.43    
 3.31505541E-06 1.10667844E-08 6.67448816E+09 6.67401452E+09  17004.224      456639.85    
 3.33726312E-06 1.11409213E-08 6.81132638E+09 6.81084255E+09  17482.457      466339.23    
 3.35961959E-06 1.12155548E-08 6.94485289E+09 6.94435929E+09  17941.456      475655.44    
 3.38212584E-06 1.12906884E-08 7.08450574E+09 7.08400202E+09  18431.415      485288.67    
 3.40478285E-06 1.13663252E-08 7.22672389E+09 7.22620999E+09  18933.577      494963.05    
 3.42759164E-06 1.14424687E-08 7.36833819E+09 7.36781427E+09  19430.482      504490.44    
 3.45055323E-06 1.15191223E-08 7.51959237E+09 7.51905747E+09  19978.346      514918.26    
 3.47366865E-06 1.15962894E-08 7.66733314E+09 7.66678718E+09  20505.041      525451.97    
 3.49693891E-06 1.16739735E-08 7.82038899E+09 7.81983163E+09  21059.069      536296.54    
 3.52036506E-06 1.17521780E-08 7.97838777E+09 7.97781878E+09  21638.857      547343.45    
 3.54394814E-06 1.18309064E-08 8.13467462E+09 8.13409429E+09  22206.818      558127.48    
 3.56768921E-06 1.19101621E-08 8.30045783E+09 8.29986558E+09  22826.505      569418.04    
 3.59158932E-06 1.19899488E-08 8.46461361E+09 8.46400968E+09  23434.845      580492.75    
 3.61564954E-06 1.20702701E-08 8.63234353E+09 8.63172735E+09  24061.256      592119.81    
 3.63987094E-06 1.21511293E-08 8.80785297E+09 8.80722355E+09  24730.588      604689.14    
 3.66425460E-06 1.22325303E-08 8.98032262E+09 8.97968035E+09  25379.765      616898.76    
 3.68880161E-06 1.23144766E-08 9.16201499E+09 9.16135928E+09  26080.621      629622.25    
 3.71351306E-06 1.23969718E-08 9.34438817E+09 9.34371917E+09  26783.172      642212.46    
 3.73839005E-06 1.24800197E-08 9.52818269E+09 9.52750045E+09  27491.348      654752.88    
 3.76343369E-06 1.25636239E-08 9.72311875E+09 9.72242255E+09  28263.962      667928.41    
 3.78864510E-06 1.26477882E-08 9.91343493E+09 9.91272469E+09  29005.964      681235.10    
 3.81402541E-06 1.27325163E-08 1.01125453E+10 1.01118199E+10  29798.542      695514.07    
 3.83957574E-06 1.28178120E-08 1.03151324E+10 1.03143919E+10  30609.792      709887.56    
 3.86529723E-06 1.29036791E-08 1.05169517E+10 1.05161962E+10  31413.063      724020.73    
 3.89119103E-06 1.29901214E-08 1.07325576E+10 1.07317864E+10  32299.283      738932.25    
 3.91725829E-06 1.30771428E-08 1.09429961E+10 1.09422097E+10  33150.143      753291.49    
 3.94350018E-06 1.31647472E-08 1.11611730E+10 1.11603709E+10  34046.355      768093.39    
 3.96991787E-06 1.32529384E-08 1.13861855E+10 1.13853666E+10  34983.005      783948.77    
 3.99651253E-06 1.33417205E-08 1.16088669E+10 1.16080311E+10  35901.130      799925.68    
 4.02328535E-06 1.34310972E-08 1.18451373E+10 1.18442837E+10  36903.522      816734.26    
 4.05023752E-06 1.35210728E-08 1.20789021E+10 1.20780311E+10  37886.270      833112.88    
 4.07737024E-06 1.36116511E-08 1.23179504E+10 1.23170618E+10  38899.564      849667.65    
 4.10468473E-06 1.37028361E-08 1.25678382E+10 1.25669315E+10  39980.864      866733.25    
 4.13218219E-06 1.37946320E-08 1.28135209E+10 1.28125964E+10  41030.260      883477.99    
