 OPTXAGNF AGN Spectrum Model Parameters: BLS, Astar 0.0                          
 M_BH:  3.0000E+08 M_0            L  :  0.1000     L/Ledd 
 D   :  1.5000E+18 cm             z  :   0.000     redshift 
 Rcor:   60.00     Rg             Ro :   4.000     Rg 
 C_T :  0.2000     keV            Tau:   15.00     Optical Depth 
 gam :   1.800     (-slope)       fpl:  0.5000     Fraction 
 E              0.5DeltaE      E.FE total     E.FE Disk      E.FE Compton   E.FE NonThermal
 (keV)          (keV)          E.E/cm2/s/E    E.E/cm2/s/E    E.E/cm2/s/E    E.E/cm2/s/E    
 1.00334952E-06 3.34952256E-09 2.84893493E+08 2.84872589E+08  144.94409      20758.673    
 1.01007101E-06 3.37196116E-09 2.90531643E+08 2.90510326E+08  148.75179      21168.268    
 1.01683752E-06 3.39455008E-09 2.96406752E+08 2.96385009E+08  152.78909      21589.789    
 1.02364936E-06 3.41729032E-09 3.02443686E+08 3.02421510E+08  156.98165      22018.630    
 1.03050683E-06 3.44018290E-09 3.08427938E+08 3.08405320E+08  161.10401      22456.467    
 1.03741024E-06 3.46322884E-09 3.14799435E+08 3.14776333E+08  165.61960      22936.849    
 1.04435990E-06 3.48642917E-09 3.21073710E+08 3.21050136E+08  170.01819      23404.193    
 1.05135611E-06 3.50978492E-09 3.27520174E+08 3.27496120E+08  174.58351      23878.743    
 1.05839920E-06 3.53329712E-09 3.34236704E+08 3.34212158E+08  179.42426      24366.267    
 1.06548946E-06 3.55696684E-09 3.40849814E+08 3.40824790E+08  184.13654      24840.460    
 1.07262722E-06 3.58079512E-09 3.47841765E+08 3.47816238E+08  189.24422      25337.412    
 1.07981280E-06 3.60478303E-09 3.54823442E+08 3.54797396E+08  194.32474      25851.763    
 1.08704652E-06 3.62893164E-09 3.61896444E+08 3.61869860E+08  199.48662      26384.179    
 1.09432869E-06 3.65324201E-09 3.69368592E+08 3.69341445E+08  205.07513      26941.316    
 1.10165965E-06 3.67771524E-09 3.76676583E+08 3.76648894E+08  210.46172      27478.277    
 1.10903971E-06 3.70235243E-09 3.84349051E+08 3.84320799E+08  216.23859      28035.033    
 1.11646922E-06 3.72715465E-09 3.92117351E+08 3.92088538E+08  222.10603      28590.900    
 1.12394850E-06 3.75212303E-09 3.99877317E+08 3.99847945E+08  227.94180      29143.595    
 1.13147788E-06 3.77725867E-09 4.08189531E+08 4.08159538E+08  234.39285      29758.875    
 1.13905770E-06 3.80256270E-09 4.16265323E+08 4.16234716E+08  240.55024      30366.874    
 1.14668830E-06 3.82803623E-09 4.24684098E+08 4.24652857E+08  247.08333      30993.855    
 1.15437002E-06 3.85368042E-09 4.33327103E+08 4.33295220E+08  253.85875      31628.553    
 1.16210319E-06 3.87949640E-09 4.41898396E+08 4.41865885E+08  260.52496      32250.196    
 1.16988818E-06 3.90548532E-09 4.51027982E+08 4.50994811E+08  267.83184      32902.682    
 1.17772531E-06 3.93164835E-09 4.60010538E+08 4.59976719E+08  274.94004      33544.360    
 1.18561494E-06 3.95798663E-09 4.69247696E+08 4.69213183E+08  282.32760      34230.226    
 1.19355743E-06 3.98450137E-09 4.78863253E+08 4.78828007E+08  290.15058      34955.416    
 1.20155313E-06 4.01119372E-09 4.88334892E+08 4.88298935E+08  297.77069      35659.335    
 1.20960239E-06 4.03806489E-09 4.98353209E+08 4.98316508E+08  306.03572      36394.875    
 1.21770557E-06 4.06511607E-09 5.08348091E+08 5.08310658E+08  314.24597      37118.437    
 1.22586303E-06 4.09234846E-09 5.18482606E+08 5.18444440E+08  322.59889      37843.469    
 1.23407514E-06 4.11976329E-09 5.29179373E+08 5.29140434E+08  331.63034      38607.433    
 1.24234227E-06 4.14736177E-09 5.39645782E+08 5.39606051E+08  340.34085      39389.931    
 1.25066478E-06 4.17514513E-09 5.50638758E+08 5.50598190E+08  349.68875      40218.488    
 1.25904304E-06 4.20311462E-09 5.61759290E+08 5.61717887E+08  359.17073      41044.499    
 1.26747742E-06 4.23127147E-09 5.72877771E+08 5.72835542E+08  368.61418      41860.143    
 1.27596831E-06 4.25961695E-09 5.84776588E+08 5.84733488E+08  379.03959      42720.661    
 1.28451608E-06 4.28815232E-09 5.96342044E+08 5.96298109E+08  388.99652      43546.858    
 1.29312111E-06 4.31687884E-09 6.08403780E+08 6.08358970E+08  399.56812      44410.128    
 1.30178379E-06 4.34579781E-09 6.20775870E+08 6.20730118E+08  410.51748      45341.319    
 1.31050450E-06 4.37491051E-09 6.33050682E+08 6.33003997E+08  421.29719      46264.093    
 1.31928362E-06 4.40421823E-09 6.46130202E+08 6.46082533E+08  433.12068      47236.040    
 1.32812156E-06 4.43372228E-09 6.58988043E+08 6.58939421E+08  444.60754      48177.549    
 1.33701871E-06 4.46342399E-09 6.72221775E+08 6.72172184E+08  456.56185      49134.933    
 1.34597546E-06 4.49332467E-09 6.85985262E+08 6.85934677E+08  469.20416      50115.981    
 1.35499221E-06 4.52342565E-09 6.99548727E+08 6.99497152E+08  481.52637      51093.740    
 1.36406936E-06 4.55372829E-09 7.13900880E+08 7.13848210E+08  494.90028      52175.721    
 1.37320733E-06 4.58423392E-09 7.28207076E+08 7.28153317E+08  508.16812      53250.320    
 1.38240650E-06 4.61494391E-09 7.42725888E+08 7.42671039E+08  521.68461      54327.669    
 1.39166731E-06 4.64585962E-09 7.58036289E+08 7.57980304E+08  536.27992      55448.416    
 1.40099015E-06 4.67698245E-09 7.73023523E+08 7.72966441E+08  550.36532      56531.465    
 1.41037545E-06 4.70831376E-09 7.88771194E+08 7.88712974E+08  565.49151      57653.958    
 1.41982361E-06 4.73985497E-09 8.04687685E+08 8.04628294E+08  580.81454      58809.620    
 1.42933508E-06 4.77160747E-09 8.20615450E+08 8.20554844E+08  596.09574      60009.450    
 1.43891026E-06 4.80357269E-09 8.37645459E+08 8.37583556E+08  612.94382      61290.626    
 1.44854958E-06 4.83575204E-09 8.54205692E+08 8.54142546E+08  629.04468      62517.001    
 1.45825348E-06 4.86814696E-09 8.71483718E+08 8.71419290E+08  646.15106      63781.485    
 1.46802239E-06 4.90075889E-09 8.89190533E+08 8.89124811E+08  663.84546      65059.019    
 1.47785673E-06 4.93358930E-09 9.06765814E+08 9.06698820E+08  681.27677      66313.541    
 1.48775696E-06 4.96663964E-09 9.25500643E+08 9.25432263E+08  700.40847      67679.447    
 1.49772351E-06 4.99991138E-09 9.43902298E+08 9.43832510E+08  718.97102      69069.368    
 1.50775683E-06 5.03340601E-09 9.62858329E+08 9.62787098E+08  738.31486      70492.717    
 1.51785736E-06 5.06712502E-09 9.82555496E+08 9.82482785E+08  758.74519      71951.891    
 1.52802556E-06 5.10106992E-09 1.00197493E+09 1.00190078E+09  778.67071      73371.648    
 1.53826187E-06 5.13524222E-09 1.02253164E+09 1.02245599E+09  800.31122      74854.119    
 1.54856676E-06 5.16964344E-09 1.04300482E+09 1.04292769E+09  821.75188      76316.289    
 1.55894067E-06 5.20427512E-09 1.06380055E+09 1.06372187E+09  843.62362      77838.997    
 1.56938409E-06 5.23913879E-09 1.08571024E+09 1.08562987E+09  867.21012      79498.482    
 1.57989746E-06 5.27423602E-09 1.10716698E+09 1.10708498E+09  889.98671      81106.106    
 1.59048127E-06 5.30956836E-09 1.12972154E+09 1.12963785E+09  914.46266      82776.578    
 1.60113597E-06 5.34513740E-09 1.15249790E+09 1.15241252E+09  939.22458      84439.619    
 1.61186206E-06 5.38094472E-09 1.17531057E+09 1.17522352E+09  963.95199      86085.995    
 1.62265999E-06 5.41699191E-09 1.19967942E+09 1.19959060E+09  991.17912      87825.034    
 1.63353026E-06 5.45328058E-09 1.22338672E+09 1.22329613E+09  1017.2147      89573.959    
 1.64447336E-06 5.48981235E-09 1.24813188E+09 1.24803939E+09  1044.8949      91447.804    
 1.65548976E-06 5.52658885E-09 1.27346867E+09 1.27337425E+09  1073.4890      93346.930    
 1.66657996E-06 5.56361172E-09 1.29862829E+09 1.29853198E+09  1101.6759      95208.048    
 1.67774445E-06 5.60088261E-09 1.32545805E+09 1.32535975E+09  1132.6326      97166.380    
 1.68898374E-06 5.63840317E-09 1.35178821E+09 1.35168799E+09  1162.6289      99063.109    
 1.70029832E-06 5.67617509E-09 1.37893500E+09 1.37883280E+09  1193.9297      101004.91    
 1.71168869E-06 5.71420004E-09 1.40711789E+09 1.40701357E+09  1226.9452      103095.07    
 1.72315537E-06 5.75247973E-09 1.43491578E+09 1.43480932E+09  1259.1651      105199.38    
 1.73469887E-06 5.79101585E-09 1.46435312E+09 1.46424442E+09  1294.1814      107406.69    
 1.74631969E-06 5.82981012E-09 1.49364560E+09 1.49353470E+09  1328.8287      109570.78    
 1.75801837E-06 5.86886429E-09 1.52342552E+09 1.52331241E+09  1364.2200      111744.68    
 1.76979541E-06 5.90818007E-09 1.55477189E+09 1.55465649E+09  1402.3360      113999.25    
 1.78165135E-06 5.94775924E-09 1.58548394E+09 1.58536630E+09  1439.1661      116201.92    
 1.79358672E-06 5.98760354E-09 1.61778034E+09 1.61766026E+09  1478.7704      118606.91    
 1.80560203E-06 6.02771477E-09 1.65036596E+09 1.65024336E+09  1518.7849      121077.74    
 1.81769784E-06 6.06809470E-09 1.68303247E+09 1.68290739E+09  1558.7971      123522.92    
 1.82987468E-06 6.10874514E-09 1.71789499E+09 1.71776728E+09  1602.7965      126099.34    
 1.84213310E-06 6.14966790E-09 1.75182624E+09 1.75169602E+09  1644.8962      128572.70    
 1.85447363E-06 6.19086481E-09 1.78725723E+09 1.78712442E+09  1689.6854      131122.53    
 1.86689683E-06 6.23233769E-09 1.82350321E+09 1.82336775E+09  1735.8928      133724.39    
 1.87940326E-06 6.27408840E-09 1.85951174E+09 1.85937353E+09  1781.4710      136420.04    
 1.89199346E-06 6.31611880E-09 1.89792507E+09 1.89778391E+09  1831.5608      139337.35    
 1.90466801E-06 6.35843077E-09 1.93559127E+09 1.93544723E+09  1880.0328      142152.42    
 1.91742747E-06 6.40102618E-09 1.97445895E+09 1.97431200E+09  1930.6806      145023.54    
 1.93027240E-06 6.44390694E-09 2.01477360E+09 2.01462366E+09  1984.0328      147959.63    
 1.94320339E-06 6.48707497E-09 2.05455509E+09 2.05440223E+09  2036.1323      150822.95    
 1.95622099E-06 6.53053217E-09 2.09669897E+09 2.09654303E+09  2092.7908      153849.31    
 1.96932581E-06 6.57428050E-09 2.13859971E+09 2.13844054E+09  2148.7787      157013.04    
 1.98251841E-06 6.61832191E-09 2.18123485E+09 2.18107240E+09  2206.0455      160243.41    
 1.99579939E-06 6.66265834E-09 2.22607151E+09 2.22590565E+09  2267.6402      163598.03    
 2.00916934E-06 6.70729179E-09 2.27002056E+09 2.26985140E+09  2327.1939      166840.20    
 2.02262885E-06 6.75222424E-09 2.31625477E+09 2.31608217E+09  2391.2763      170207.63    
 2.03617854E-06 6.79745770E-09 2.36286223E+09 2.36268621E+09  2455.9373      173555.90    
 2.04981899E-06 6.84299417E-09 2.40962688E+09 2.40944743E+09  2520.6814      176933.37    
 2.06355082E-06 6.88883570E-09 2.45948892E+09 2.45930561E+09  2591.7837      180713.86    
 2.07737464E-06 6.93498432E-09 2.50804109E+09 2.50785404E+09  2659.8579      184384.83    
 2.09129106E-06 6.98144209E-09 2.55875960E+09 2.55856869E+09  2732.3299      188177.65    
 2.10530072E-06 7.02821109E-09 2.61059866E+09 2.61040385E+09  2806.9984      191999.94    
 2.11940422E-06 7.07529339E-09 2.66212065E+09 2.66192202E+09  2880.6972      195753.25    
 2.13360221E-06 7.12269110E-09 2.71710355E+09 2.71690089E+09  2961.7441      199698.53    
 2.14789530E-06 7.17040633E-09 2.77097190E+09 2.77076523E+09  3040.0701      203623.02    
 2.16228415E-06 7.21844121E-09 2.82660617E+09 2.82639521E+09  3122.0218      207838.92    
 2.17676939E-06 7.26679787E-09 2.88425952E+09 2.88404411E+09  3208.2362      212205.24    
 2.19135167E-06 7.31547848E-09 2.94117579E+09 2.94095604E+09  3292.4793      216455.14    
 2.20603163E-06 7.36448520E-09 3.00149457E+09 3.00127029E+09  3384.1546      220903.34    
 2.22080994E-06 7.41382021E-09 3.06141387E+09 3.06118513E+09  3474.6258      225261.53    
 2.23568724E-06 7.46348573E-09 3.12243624E+09 3.12220303E+09  3567.2876      229647.40    
 2.25066421E-06 7.51348396E-09 3.18655062E+09 3.18631261E+09  3666.8216      234341.37    
 2.26574151E-06 7.56381713E-09 3.24942441E+09 3.24918154E+09  3763.1173      239115.22    
 2.28091982E-06 7.61448748E-09 3.31559285E+09 3.31534486E+09  3866.8048      244126.79    
 2.29619980E-06 7.66549727E-09 3.38223742E+09 3.38198435E+09  3971.2913      249100.97    
 2.31158215E-06 7.71684879E-09 3.44916587E+09 3.44890776E+09  4076.0520      254035.83    
 2.32706754E-06 7.76854430E-09 3.52045981E+09 3.52019641E+09  4190.9499      259217.05    
 2.34265667E-06 7.82058613E-09 3.58991265E+09 3.58964413E+09  4301.0223      264215.33    
 2.35835023E-06 7.87297659E-09 3.66249318E+09 3.66221921E+09  4418.2846      269551.42    
 2.37414893E-06 7.92571802E-09 3.73661174E+09 3.73633200E+09  4538.9424      275198.72    
 2.39005346E-06 7.97881276E-09 3.81030960E+09 3.81002417E+09  4658.1090      280769.50    
 2.40606454E-06 8.03226319E-09 3.88898603E+09 3.88869459E+09  4789.2428      286646.66    
 2.42218287E-06 8.08607168E-09 3.96600327E+09 3.96570603E+09  4915.8075      292317.29    
 2.43840918E-06 8.14024064E-09 4.04561232E+09 4.04530916E+09  5048.4083      298107.92    
 2.45474420E-06 8.19477248E-09 4.12803575E+09 4.12772652E+09  5187.7235      304038.89    
 2.47118864E-06 8.24966963E-09 4.20944221E+09 4.20912682E+09  5323.9388      310058.93    
 2.48774324E-06 8.30493454E-09 4.29574707E+09 4.29542494E+09  5472.2694      316650.46    
 2.50440875E-06 8.36056967E-09 4.38140751E+09 4.38107877E+09  5618.4594      323121.27    
 2.52118589E-06 8.41657750E-09 4.46872028E+09 4.46838488E+09  5768.3897      329638.61    
 2.53807543E-06 8.47296053E-09 4.56037207E+09 4.56002975E+09  5929.2283      336386.37    
 2.55507811E-06 8.52972128E-09 4.65029105E+09 4.64994204E+09  6084.9309      342924.43    
 2.57219470E-06 8.58686227E-09 4.74495739E+09 4.74460139E+09  6252.6973      349743.34    
 2.58942595E-06 8.64438604E-09 4.84022254E+09 4.83985927E+09  6421.5344      356839.88    
 2.60677263E-06 8.70229518E-09 4.93597821E+09 4.93560747E+09  6591.0413      364148.38    
 2.62423551E-06 8.76059224E-09 5.03788312E+09 5.03750449E+09  6776.7068      371860.48    
 2.64181539E-06 8.81927985E-09 5.13720233E+09 5.13681611E+09  6954.6844      379263.48    
 2.65951303E-06 8.87836060E-09 5.24103410E+09 5.24064005E+09  7144.4146      386910.58    
 2.67732922E-06 8.93783714E-09 5.34697166E+09 5.34656972E+09  7339.3828      394603.52    
 2.69526477E-06 8.99771211E-09 5.45235474E+09 5.45194499E+09  7532.0640      402210.23    
 2.71332047E-06 9.05798819E-09 5.56489600E+09 5.56447761E+09  7744.2335      410639.84    
 2.73149713E-06 9.11866806E-09 5.67497326E+09 5.67454626E+09  7948.7410      419054.35    
 2.74979555E-06 9.17975443E-09 5.78885037E+09 5.78841455E+09  8163.2890      427663.63    
 2.76821656E-06 9.24125002E-09 5.90664621E+09 5.90620138E+09  8388.4053      436448.51    
 2.78676096E-06 9.30315757E-09 6.02304083E+09 6.02258721E+09  8608.6512      445018.47    
 2.80542960E-06 9.36547984E-09 6.14648254E+09 6.14601971E+09  8848.6443      453981.32    
 2.82422330E-06 9.42821962E-09 6.26889913E+09 6.26842720E+09  9084.8633      462838.34    
 2.84314290E-06 9.49137968E-09 6.39378474E+09 6.39330318E+09  9327.4505      472235.61    
 2.86218924E-06 9.55496287E-09 6.52475485E+09 6.52426299E+09  9587.3459      482274.07    
 2.88136318E-06 9.61897199E-09 6.65330779E+09 6.65280598E+09  9839.0992      491977.66    
 2.90066556E-06 9.68340992E-09 6.78869732E+09 6.78818513E+09  10110.538      502078.71    
 2.92009725E-06 9.74827952E-09 6.92482489E+09 6.92430242E+09  10383.351      512092.46    
 2.93965911E-06 9.81358368E-09 7.06177355E+09 7.06124084E+09  10657.614      522050.32    
 2.95935202E-06 9.87932532E-09 7.20737765E+09 7.20683412E+09  10957.626      532581.01    
 2.97917685E-06 9.94550737E-09 7.34935432E+09 7.34879971E+09  11245.393      543360.88    
 2.99913449E-06 1.00121328E-08 7.49783803E+09 7.49727174E+09  11552.369      554736.15    
 3.01922583E-06 1.00792045E-08 7.64919868E+09 7.64862065E+09  11867.406      566169.01    
 3.03945176E-06 1.01467255E-08 7.79983411E+09 7.79924453E+09  12178.945      577402.16    
 3.05981319E-06 1.02146989E-08 7.96075423E+09 7.96015247E+09  12522.219      589240.52    
 3.08031101E-06 1.02831276E-08 8.11802215E+09 8.11740863E+09  12852.660      600663.10    
 3.10094616E-06 1.03520148E-08 8.28085429E+09 8.28022858E+09  13199.790      612506.02    
 3.12171953E-06 1.04213634E-08 8.44913713E+09 8.44849822E+09  13563.541      625351.14    
 3.14263207E-06 1.04911766E-08 8.61549391E+09 8.61484192E+09  13919.647      638066.67    
 3.16368471E-06 1.05614574E-08 8.79198322E+09 8.79131750E+09  14307.936      651412.11    
 3.18487837E-06 1.06322091E-08 8.96685993E+09 8.96618080E+09  14689.617      664442.02    
 3.20621402E-06 1.07034348E-08 9.14541537E+09 9.14472270E+09  15082.112      677588.73    
 3.22769259E-06 1.07751376E-08 9.33249432E+09 9.33178765E+09  15502.060      691161.64    
 3.24931505E-06 1.08473207E-08 9.51620605E+09 9.51548552E+09  15909.105      704624.47    
 3.27108236E-06 1.09199874E-08 9.70975721E+09 9.70902143E+09  16348.271      719430.72    
 3.29299549E-06 1.09931409E-08 9.90419593E+09 9.90344484E+09  16789.080      734304.19    
 3.31505541E-06 1.10667844E-08 1.00999792E+10 1.00992129E+10  17232.824      749093.89    
 3.33726312E-06 1.11409213E-08 1.03079357E+10 1.03071533E+10  17717.594      764601.23    
 3.35961959E-06 1.12155548E-08 1.05108064E+10 1.05100087E+10  18182.864      779528.30    
 3.38212584E-06 1.12906884E-08 1.07230528E+10 1.07222392E+10  18679.524      794943.96    
 3.40478285E-06 1.13663252E-08 1.09392202E+10 1.09383901E+10  19188.557      810893.17    
 3.42759164E-06 1.14424687E-08 1.11544488E+10 1.11536018E+10  19692.262      827372.83    
 3.45055323E-06 1.15191223E-08 1.13844453E+10 1.13835800E+10  20247.634      845008.55    
 3.47366865E-06 1.15962894E-08 1.16090402E+10 1.16081575E+10  20781.544      861956.68    
 3.49693891E-06 1.16739735E-08 1.18417723E+10 1.18408716E+10  21343.169      879317.41    
 3.52036506E-06 1.17521780E-08 1.20820740E+10 1.20811551E+10  21930.913      896991.94    
 3.54394814E-06 1.18309064E-08 1.23197338E+10 1.23187970E+10  22506.667      914285.19    
 3.56768921E-06 1.19101621E-08 1.25719525E+10 1.25709964E+10  23134.869      932976.61    
 3.59158932E-06 1.19899488E-08 1.28216597E+10 1.28206838E+10  23751.567      952183.93    
 3.61564954E-06 1.20702701E-08 1.30768360E+10 1.30758399E+10  24386.589      971719.98    
 3.63987094E-06 1.21511293E-08 1.33439414E+10 1.33429244E+10  25065.134      991909.66    
 3.66425460E-06 1.22325303E-08 1.36063615E+10 1.36053243E+10  25723.243      1011474.8    
 3.68880161E-06 1.23144766E-08 1.38829300E+10 1.38818717E+10  26433.755      1031830.6    
 3.71351306E-06 1.23969718E-08 1.41605281E+10 1.41594489E+10  27145.988      1052048.3    
 3.73839005E-06 1.24800197E-08 1.44402911E+10 1.44391903E+10  27863.924      1072879.2    
 3.76343369E-06 1.25636239E-08 1.47371607E+10 1.47360362E+10  28647.206      1095821.1    
 3.78864510E-06 1.26477882E-08 1.50269092E+10 1.50257619E+10  29399.445      1117973.6    
 3.81402541E-06 1.27325163E-08 1.53301566E+10 1.53289855E+10  30202.973      1140904.2    
 3.83957574E-06 1.28178120E-08 1.56387315E+10 1.56375366E+10  31025.437      1163911.6    
 3.86529723E-06 1.29036791E-08 1.59461031E+10 1.59448847E+10  31839.811      1186560.1    
 3.89119103E-06 1.29901214E-08 1.62746629E+10 1.62734197E+10  32738.304      1210493.7    
 3.91725829E-06 1.30771428E-08 1.65952521E+10 1.65939840E+10  33600.939      1234572.0    
 3.94350018E-06 1.31647472E-08 1.69277267E+10 1.69264319E+10  34509.569      1260275.6    
 3.96991787E-06 1.32529384E-08 1.72707004E+10 1.72693784E+10  35459.207      1286551.9    
 3.99651253E-06 1.33417205E-08 1.76100595E+10 1.76087109E+10  36390.061      1312195.7    
 4.02328535E-06 1.34310972E-08 1.79703194E+10 1.79689429E+10  37406.375      1339080.8    
 4.05023752E-06 1.35210728E-08 1.83266969E+10 1.83252932E+10  38402.769      1365317.4    
 4.07737024E-06 1.36116511E-08 1.86911853E+10 1.86897539E+10  39430.142      1391933.6    
 4.10468473E-06 1.37028361E-08 1.90723521E+10 1.90708908E+10  40526.487      1420753.2    
 4.13218219E-06 1.37946320E-08 1.94470113E+10 1.94455200E+10  41590.477      1449750.6    
