 OPTXAGNF AGN Spectrum Model Parameters: NLS, Astar 0.0                          
 M_BH:  3.0000E+08 M_0            L  :  0.5000     L/Ledd 
 D   :  1.5000E+18 cm             z  :   0.000     redshift 
 Rcor:   40.00     Rg             Ro :   4.000     Rg 
 C_T :  0.2000     keV            Tau:   15.00     Optical Depth 
 gam :   2.200     (-slope)       fpl:  0.2000     Fraction 
 E              0.5DeltaE      E.FE total     E.FE Disk      E.FE Compton   E.FE NonThermal
 (keV)          (keV)          E.E/cm2/s/E    E.E/cm2/s/E    E.E/cm2/s/E    E.E/cm2/s/E    
 1.00334952E-06 3.34952256E-09 4.30654932E+08 4.30639561E+08  26.715576      15344.454    
 1.01007101E-06 3.37196116E-09 4.39184397E+08 4.39168722E+08  27.417451      15647.011    
 1.01683752E-06 3.39455008E-09 4.48072835E+08 4.48056845E+08  28.161652      15962.648    
 1.02364936E-06 3.41729032E-09 4.57206432E+08 4.57190101E+08  28.934474      16302.978    
 1.03050683E-06 3.44018290E-09 4.66260067E+08 4.66243396E+08  29.694356      16640.780    
 1.03741024E-06 3.46322884E-09 4.75900437E+08 4.75883410E+08  30.526729      16996.941    
 1.04435990E-06 3.48642917E-09 4.85393368E+08 4.85375995E+08  31.337533      17342.116    
 1.05135611E-06 3.50978492E-09 4.95147149E+08 4.95129424E+08  32.179076      17692.594    
 1.05839920E-06 3.53329712E-09 5.05310152E+08 5.05292066E+08  33.071394      18052.605    
 1.06548946E-06 3.55696684E-09 5.15316296E+08 5.15297852E+08  33.940027      18409.876    
 1.07262722E-06 3.58079512E-09 5.25896566E+08 5.25877726E+08  34.881555      18804.732    
 1.07981280E-06 3.60478303E-09 5.36461121E+08 5.36441887E+08  35.818075      19198.774    
 1.08704652E-06 3.62893164E-09 5.47163950E+08 5.47144321E+08  36.769595      19593.015    
 1.09432869E-06 3.65324201E-09 5.58471724E+08 5.58451682E+08  37.799766      20004.312    
 1.10165965E-06 3.67771524E-09 5.69530523E+08 5.69510083E+08  38.792712      20400.898    
 1.10903971E-06 3.70235243E-09 5.81141728E+08 5.81120876E+08  39.857609      20811.974    
 1.11646922E-06 3.72715465E-09 5.92898110E+08 5.92876834E+08  40.939202      21234.386    
 1.12394850E-06 3.75212303E-09 6.04641718E+08 6.04620004E+08  42.014959      21672.140    
 1.13147788E-06 3.77725867E-09 6.17222453E+08 6.17200268E+08  43.204146      22142.326    
 1.13905770E-06 3.80256270E-09 6.29444557E+08 6.29421921E+08  44.339195      22591.377    
 1.14668830E-06 3.82803623E-09 6.42186549E+08 6.42163449E+08  45.543507      23054.275    
 1.15437002E-06 3.85368042E-09 6.55268408E+08 6.55244838E+08  46.792496      23522.830    
 1.16210319E-06 3.87949640E-09 6.68241356E+08 6.68217326E+08  48.021351      23982.185    
 1.16988818E-06 3.90548532E-09 6.82060780E+08 6.82036250E+08  49.368322      24480.412    
 1.17772531E-06 3.93164835E-09 6.95657092E+08 6.95632052E+08  50.678664      24989.009    
 1.18561494E-06 3.95798663E-09 7.09639285E+08 7.09613723E+08  52.040507      25509.898    
 1.19355743E-06 3.98450137E-09 7.24195171E+08 7.24169072E+08  53.482627      26045.119    
 1.20155313E-06 4.01119372E-09 7.38532597E+08 7.38505977E+08  54.887349      26564.972    
 1.20960239E-06 4.03806489E-09 7.53698995E+08 7.53671831E+08  56.410966      27107.820    
 1.21770557E-06 4.06511607E-09 7.68829673E+08 7.68801971E+08  57.924487      27643.509    
 1.22586303E-06 4.09234846E-09 7.84171955E+08 7.84143698E+08  59.464311      28198.313    
 1.23407514E-06 4.11976329E-09 8.00366952E+08 8.00338084E+08  61.129233      28806.326    
 1.24234227E-06 4.14736177E-09 8.16212232E+08 8.16182775E+08  62.734987      29394.957    
 1.25066478E-06 4.17514513E-09 8.32856080E+08 8.32826009E+08  64.458252      30006.458    
 1.25904304E-06 4.20311462E-09 8.49693242E+08 8.49662559E+08  66.206240      30616.193    
 1.26747742E-06 4.23127147E-09 8.66527044E+08 8.66495757E+08  67.947125      31218.525    
 1.27596831E-06 4.25961695E-09 8.84544568E+08 8.84512642E+08  69.869051      31855.704    
 1.28451608E-06 4.28815232E-09 9.02056095E+08 9.02023530E+08  71.704606      32493.447    
 1.29312111E-06 4.31687884E-09 9.20320389E+08 9.20287136E+08  73.653489      33178.746    
 1.30178379E-06 4.34579781E-09 9.39055301E+08 9.39021350E+08  75.672021      33875.116    
 1.31050450E-06 4.37491051E-09 9.57642308E+08 9.57607674E+08  77.659275      34556.564    
 1.31928362E-06 4.40421823E-09 9.77450219E+08 9.77414866E+08  79.838973      35273.592    
 1.32812156E-06 4.43372228E-09 9.96921464E+08 9.96885413E+08  81.956608      35968.771    
 1.33701871E-06 4.46342399E-09 1.01696288E+09 1.01692611E+09  84.160429      36678.138    
 1.34597546E-06 4.49332467E-09 1.03780808E+09 1.03777055E+09  86.491100      37441.469    
 1.35499221E-06 4.52342565E-09 1.05834939E+09 1.05831109E+09  88.762754      38211.841    
 1.36406936E-06 4.55372829E-09 1.08008741E+09 1.08004830E+09  91.228317      39019.830    
 1.37320733E-06 4.58423392E-09 1.10175537E+09 1.10171547E+09  93.674325      39813.114    
 1.38240650E-06 4.61494391E-09 1.12374573E+09 1.12370503E+09  96.166178      40608.523    
 1.39166731E-06 4.64585962E-09 1.14693746E+09 1.14689592E+09  98.856945      41435.286    
 1.40099015E-06 4.67698245E-09 1.16963825E+09 1.16959591E+09  101.45370      42239.732    
 1.41037545E-06 4.70831376E-09 1.19349322E+09 1.19344999E+09  104.24235      43116.896    
 1.41982361E-06 4.73985497E-09 1.21760414E+09 1.21756001E+09  107.06730      44022.728    
 1.42933508E-06 4.77160747E-09 1.24173169E+09 1.24168666E+09  109.88454      44917.246    
 1.43891026E-06 4.80357269E-09 1.26753251E+09 1.26748654E+09  112.99068      45862.100    
 1.44854958E-06 4.83575204E-09 1.29261964E+09 1.29257275E+09  115.95905      46767.729    
 1.45825348E-06 4.86814696E-09 1.31879632E+09 1.31874850E+09  119.11282      47700.909    
 1.46802239E-06 4.90075889E-09 1.34562380E+09 1.34557503E+09  122.37502      48651.263    
 1.47785673E-06 4.93358930E-09 1.37225113E+09 1.37220137E+09  125.58871      49635.968    
 1.48775696E-06 4.96663964E-09 1.40063908E+09 1.40058824E+09  129.11593      50703.826    
 1.49772351E-06 4.99991138E-09 1.42852047E+09 1.42846860E+09  132.53820      51735.635    
 1.50775683E-06 5.03340601E-09 1.45724340E+09 1.45719048E+09  136.10454      52786.228    
 1.51785736E-06 5.06712502E-09 1.48709166E+09 1.48703765E+09  139.87122      53862.705    
 1.52802556E-06 5.10106992E-09 1.51651754E+09 1.51646248E+09  143.54482      54911.130    
 1.53826187E-06 5.13524222E-09 1.54767059E+09 1.54761443E+09  147.53465      56017.351    
 1.54856676E-06 5.16964344E-09 1.57869635E+09 1.57863903E+09  151.48763      57172.398    
 1.55894067E-06 5.20427512E-09 1.61021151E+09 1.61015300E+09  155.52010      58353.653    
 1.56938409E-06 5.23913879E-09 1.64341855E+09 1.64335880E+09  159.86876      59583.686    
 1.57989746E-06 5.27423602E-09 1.67593683E+09 1.67587589E+09  164.06809      60770.857    
 1.59048127E-06 5.30956836E-09 1.71012264E+09 1.71006047E+09  168.58077      62003.301    
 1.60113597E-06 5.34513740E-09 1.74464498E+09 1.74458158E+09  173.14618      63230.651    
 1.61186206E-06 5.38094472E-09 1.77922186E+09 1.77915722E+09  177.70523      64464.043    
 1.62265999E-06 5.41699191E-09 1.81616323E+09 1.81609720E+09  182.72523      65844.795    
 1.63353026E-06 5.45328058E-09 1.85209848E+09 1.85203110E+09  187.52551      67188.982    
 1.64447336E-06 5.48981235E-09 1.88961034E+09 1.88954157E+09  192.62906      68576.933    
 1.65548976E-06 5.52658885E-09 1.92802085E+09 1.92795068E+09  197.90115      69978.190    
 1.66657996E-06 5.56361172E-09 1.96616134E+09 1.96608978E+09  203.09814      71352.557    
 1.67774445E-06 5.60088261E-09 2.00684000E+09 2.00676699E+09  208.80589      72796.722    
 1.68898374E-06 5.63840317E-09 2.04675852E+09 2.04668408E+09  214.33655      74231.018    
 1.70029832E-06 5.67617509E-09 2.08791781E+09 2.08784182E+09  220.10776      75768.823    
 1.71168869E-06 5.71420004E-09 2.13065157E+09 2.13057397E+09  226.19518      77369.686    
 1.72315537E-06 5.75247973E-09 2.17279902E+09 2.17271986E+09  232.13590      78925.933    
 1.73469887E-06 5.79101585E-09 2.21743854E+09 2.21735774E+09  238.59229      80553.990    
 1.74631969E-06 5.82981012E-09 2.26185703E+09 2.26177463E+09  244.98064      82151.476    
 1.75801837E-06 5.86886429E-09 2.30701584E+09 2.30693183E+09  251.50620      83756.346    
 1.76979541E-06 5.90818007E-09 2.35455618E+09 2.35447045E+09  258.53421      85470.649    
 1.78165135E-06 5.94775924E-09 2.40113097E+09 2.40104349E+09  265.32509      87215.256    
 1.79358672E-06 5.98760354E-09 2.45011441E+09 2.45002509E+09  272.62759      89049.312    
 1.80560203E-06 6.02771477E-09 2.49953679E+09 2.49944563E+09  280.00573      90872.805    
 1.81769784E-06 6.06809470E-09 2.54908118E+09 2.54898821E+09  287.38346      92678.400    
 1.82987468E-06 6.10874514E-09 2.60196530E+09 2.60187042E+09  295.49649      94578.088    
 1.84213310E-06 6.14966790E-09 2.65343169E+09 2.65333498E+09  303.25918      96407.789    
 1.85447363E-06 6.19086481E-09 2.70717877E+09 2.70708011E+09  311.51788      98352.384    
 1.86689683E-06 6.23233769E-09 2.76216494E+09 2.76206420E+09  320.03811      100419.87    
 1.87940326E-06 6.27408840E-09 2.81678841E+09 2.81668562E+09  328.44233      102459.94    
 1.89199346E-06 6.31611880E-09 2.87507008E+09 2.87496513E+09  337.67859      104611.10    
 1.90466801E-06 6.35843077E-09 2.93221368E+09 2.93210664E+09  346.61649      106689.70    
 1.91742747E-06 6.40102618E-09 2.99118451E+09 2.99107534E+09  355.95565      108808.80    
 1.93027240E-06 6.44390694E-09 3.05235647E+09 3.05224512E+09  365.79360      110981.11    
 1.94320339E-06 6.48707497E-09 3.11271567E+09 3.11260212E+09  375.40052      113176.64    
 1.95622099E-06 6.53053217E-09 3.17666964E+09 3.17655366E+09  385.84824      115586.88    
 1.96932581E-06 6.57428050E-09 3.24025195E+09 3.24013359E+09  396.17229      117959.08    
 1.98251841E-06 6.61832191E-09 3.30495072E+09 3.30482997E+09  406.73221      120343.95    
 1.99579939E-06 6.66265834E-09 3.37299991E+09 3.37287668E+09  418.09033      122817.98    
 2.00916934E-06 6.70729179E-09 3.43969624E+09 3.43957059E+09  429.07204      125212.37    
 2.02262885E-06 6.75222424E-09 3.50987054E+09 3.50974240E+09  440.88900      127704.44    
 2.03617854E-06 6.79745770E-09 3.58061193E+09 3.58048118E+09  452.81269      130295.31    
 2.04981899E-06 6.84299417E-09 3.65159100E+09 3.65145757E+09  464.75169      132968.47    
 2.06355082E-06 6.88883570E-09 3.72728546E+09 3.72714919E+09  477.86338      135796.35    
 2.07737464E-06 6.93498432E-09 3.80098327E+09 3.80084427E+09  490.41661      138507.62    
 2.09129106E-06 6.98144209E-09 3.87797893E+09 3.87783712E+09  503.78095      141306.37    
 2.10530072E-06 7.02821109E-09 3.95667990E+09 3.95653525E+09  517.55044      144126.71    
 2.11940422E-06 7.07529339E-09 4.03489594E+09 4.03474850E+09  531.14106      146906.87    
 2.13360221E-06 7.12269110E-09 4.11838298E+09 4.11823245E+09  546.08701      149980.34    
 2.14789530E-06 7.17040633E-09 4.20017010E+09 4.20001647E+09  560.53112      153065.29    
 2.16228415E-06 7.21844121E-09 4.28464548E+09 4.28448869E+09  575.64395      156216.01    
 2.17676939E-06 7.26679787E-09 4.37219561E+09 4.37203558E+09  591.54307      159437.04    
 2.19135167E-06 7.31547848E-09 4.45862038E+09 4.45845720E+09  607.07857      162575.85    
 2.20603163E-06 7.36448520E-09 4.55022851E+09 4.55006203E+09  623.98494      165856.65    
 2.22080994E-06 7.41382021E-09 4.64122579E+09 4.64105606E+09  640.66925      169093.15    
 2.23568724E-06 7.46348573E-09 4.73390216E+09 4.73372898E+09  657.75761      172522.21    
 2.25066421E-06 7.51348396E-09 4.83128959E+09 4.83111271E+09  676.11356      176203.29    
 2.26574151E-06 7.56381713E-09 4.92678310E+09 4.92660265E+09  693.87223      179757.48    
 2.28091982E-06 7.61448748E-09 5.02729692E+09 5.02711275E+09  712.99437      183454.73    
 2.29619980E-06 7.66549727E-09 5.12853443E+09 5.12834657E+09  732.26388      187126.14    
 2.31158215E-06 7.71684879E-09 5.23020198E+09 5.23001046E+09  751.58400      190770.51    
 2.32706754E-06 7.76854430E-09 5.33852412E+09 5.33832872E+09  772.77402      194627.21    
 2.34265667E-06 7.82058613E-09 5.44403614E+09 5.44383679E+09  793.07397      198560.32    
 2.35835023E-06 7.87297659E-09 5.55431520E+09 5.55411167E+09  814.70015      202720.70    
 2.37414893E-06 7.92571802E-09 5.66693713E+09 5.66672938E+09  836.95272      206912.92    
 2.39005346E-06 7.97881276E-09 5.77891416E+09 5.77870228E+09  858.93023      211027.58    
 2.40606454E-06 8.03226319E-09 5.89848305E+09 5.89826680E+09  883.11528      215361.38    
 2.42218287E-06 8.08607168E-09 6.01551782E+09 6.01529736E+09  906.45753      219549.16    
 2.43840918E-06 8.14024064E-09 6.13650357E+09 6.13627876E+09  930.91323      223877.06    
 2.45474420E-06 8.19477248E-09 6.26178090E+09 6.26155138E+09  956.60756      228568.44    
 2.47118864E-06 8.24966963E-09 6.38550262E+09 6.38526841E+09  981.73008      233225.19    
 2.48774324E-06 8.30493454E-09 6.51669591E+09 6.51645679E+09  1009.0875      238110.54    
 2.50440875E-06 8.36056967E-09 6.64690239E+09 6.64665846E+09  1036.0502      242888.22    
 2.52118589E-06 8.41657750E-09 6.77962692E+09 6.77937816E+09  1063.7028      247700.29    
 2.53807543E-06 8.47296053E-09 6.91897136E+09 6.91871759E+09  1093.3677      252677.38    
 2.55507811E-06 8.52972128E-09 7.05566680E+09 7.05540808E+09  1122.0853      257597.72    
 2.57219470E-06 8.58686227E-09 7.19960631E+09 7.19934216E+09  1153.0283      262998.50    
 2.58942595E-06 8.64438604E-09 7.34445599E+09 7.34418635E+09  1184.1689      268452.87    
 2.60677263E-06 8.70229518E-09 7.49004973E+09 7.48977465E+09  1215.4332      273866.18    
 2.62423551E-06 8.76059224E-09 7.64503000E+09 7.64474920E+09  1249.6784      279553.30    
 2.64181539E-06 8.81927985E-09 7.79605711E+09 7.79577081E+09  1282.5054      285021.69    
 2.65951303E-06 8.87836060E-09 7.95397174E+09 7.95367976E+09  1317.5005      290665.17    
 2.67732922E-06 8.93783714E-09 8.11509887E+09 8.11480102E+09  1353.4621      296493.71    
 2.69526477E-06 8.99771211E-09 8.27537405E+09 8.27507015E+09  1389.0018      302516.00    
 2.71332047E-06 9.05798819E-09 8.44658012E+09 8.44626972E+09  1428.1369      308972.74    
 2.73149713E-06 9.11866806E-09 8.61401634E+09 8.61369968E+09  1465.8585      315187.83    
 2.74979555E-06 9.17975443E-09 8.78725321E+09 8.78693016E+09  1505.4325      321543.26    
 2.76821656E-06 9.24125002E-09 8.96647372E+09 8.96614415E+09  1546.9564      328025.06    
 2.78676096E-06 9.30315757E-09 9.14354711E+09 9.14321116E+09  1587.5818      334360.08    
 2.80542960E-06 9.36547984E-09 9.33138625E+09 9.33104345E+09  1631.8505      341175.10    
 2.82422330E-06 9.42821962E-09 9.51765334E+09 9.51730345E+09  1675.4229      348207.55    
 2.84314290E-06 9.49137968E-09 9.70768780E+09 9.70733072E+09  1720.1703      355359.22    
 2.86218924E-06 9.55496287E-09 9.90701861E+09 9.90665407E+09  1768.1112      362764.36    
 2.88136318E-06 9.61897199E-09 1.01026474E+10 1.01022756E+10  1814.5499      369932.83    
 2.90066556E-06 9.68340992E-09 1.03087237E+10 1.03083444E+10  1864.6208      377385.92    
 2.92009725E-06 9.74827952E-09 1.05159227E+10 1.05155360E+10  1914.9453      384795.24    
 2.93965911E-06 9.81358368E-09 1.07243704E+10 1.07239761E+10  1965.5372      392388.56    
 2.95935202E-06 9.87932532E-09 1.09460513E+10 1.09456485E+10  2020.8804      400794.77    
 2.97917685E-06 9.94550737E-09 1.11621753E+10 1.11617644E+10  2073.9642      408911.82    
 2.99913449E-06 1.00121328E-08 1.13882463E+10 1.13878268E+10  2130.5923      417307.60    
 3.01922583E-06 1.00792045E-08 1.16187121E+10 1.16182842E+10  2188.7079      425746.21    
 3.03945176E-06 1.01467255E-08 1.18480600E+10 1.18476237E+10  2246.1783      434044.99    
 3.05981319E-06 1.02146989E-08 1.20931394E+10 1.20926943E+10  2309.5042      442798.65    
 3.08031101E-06 1.02831276E-08 1.23326219E+10 1.23321679E+10  2370.4626      451592.60    
 3.10094616E-06 1.03520148E-08 1.25806123E+10 1.25801488E+10  2434.5003      460997.70    
 3.12171953E-06 1.04213634E-08 1.28369376E+10 1.28364645E+10  2501.6051      470636.62    
 3.14263207E-06 1.04911766E-08 1.30903048E+10 1.30898222E+10  2567.2992      480033.66    
 3.16368471E-06 1.05614574E-08 1.33591770E+10 1.33586845E+10  2638.9322      489878.93    
 3.18487837E-06 1.06322091E-08 1.36255713E+10 1.36250691E+10  2709.3459      499502.00    
 3.20621402E-06 1.07034348E-08 1.38975888E+10 1.38970768E+10  2781.7553      509229.82    
 3.22769259E-06 1.07751376E-08 1.41826524E+10 1.41821298E+10  2859.2307      519759.07    
 3.24931505E-06 1.08473207E-08 1.44625480E+10 1.44620147E+10  2934.3252      530384.99    
 3.27108236E-06 1.09199874E-08 1.47575050E+10 1.47569605E+10  3015.3472      541478.74    
 3.29299549E-06 1.09931409E-08 1.50538117E+10 1.50532561E+10  3096.6726      552461.10    
 3.31505541E-06 1.10667844E-08 1.53521666E+10 1.53516000E+10  3178.5398      563386.79    
 3.33726312E-06 1.11409213E-08 1.56691654E+10 1.56685873E+10  3267.9779      574825.35    
 3.35961959E-06 1.12155548E-08 1.59783589E+10 1.59777696E+10  3353.8179      585894.49    
 3.38212584E-06 1.12906884E-08 1.63019108E+10 1.63013094E+10  3445.4507      597909.38    
 3.40478285E-06 1.13663252E-08 1.66314618E+10 1.66308478E+10  3539.3671      610451.50    
 3.42759164E-06 1.14424687E-08 1.69595589E+10 1.69589325E+10  3632.3001      622769.87    
 3.45055323E-06 1.15191223E-08 1.73102863E+10 1.73096468E+10  3734.7688      635778.14    
 3.47366865E-06 1.15962894E-08 1.76527186E+10 1.76520664E+10  3833.2768      648300.03    
 3.49693891E-06 1.16739735E-08 1.80076152E+10 1.80069501E+10  3936.8997      661118.76    
 3.52036506E-06 1.17521780E-08 1.83741093E+10 1.83734310E+10  4045.3433      674262.62    
 3.54394814E-06 1.18309064E-08 1.87365365E+10 1.87358446E+10  4151.5743      687805.11    
 3.56768921E-06 1.19101621E-08 1.91212843E+10 1.91205775E+10  4267.4851      702453.27    
 3.59158932E-06 1.19899488E-08 1.95021631E+10 1.95014420E+10  4381.2732      716741.03    
 3.61564954E-06 1.20702701E-08 1.98914169E+10 1.98906812E+10  4498.4433      731170.71    
 3.63987094E-06 1.21511293E-08 2.02989634E+10 2.02982127E+10  4623.6465      746068.76    
 3.66425460E-06 1.22325303E-08 2.06993021E+10 2.06985368E+10  4745.0780      760526.44    
 3.68880161E-06 1.23144766E-08 2.11213422E+10 2.11205617E+10  4876.1818      775709.06    
 3.71351306E-06 1.23969718E-08 2.15449479E+10 2.15441513E+10  5007.6037      791646.79    
 3.73839005E-06 1.24800197E-08 2.19718573E+10 2.19710443E+10  5140.0783      807861.19    
 3.76343369E-06 1.25636239E-08 2.24250174E+10 2.24241872E+10  5284.6144      824887.13    
 3.78864510E-06 1.26477882E-08 2.28672227E+10 2.28663760E+10  5423.4212      841258.05    
 3.81402541E-06 1.27325163E-08 2.33301415E+10 2.33292777E+10  5571.6950      858186.99    
 3.83957574E-06 1.28178120E-08 2.38012262E+10 2.38003453E+10  5723.4645      875174.37    
 3.86529723E-06 1.29036791E-08 2.42704404E+10 2.42695424E+10  5873.7409      892136.15    
 3.89119103E-06 1.29901214E-08 2.47721931E+10 2.47712760E+10  6039.5450      911099.51    
 3.91725829E-06 1.30771428E-08 2.52616754E+10 2.52607395E+10  6198.7304      929680.58    
 3.94350018E-06 1.31647472E-08 2.57693995E+10 2.57684444E+10  6366.4062      948742.59    
 3.96991787E-06 1.32529384E-08 2.62932416E+10 2.62922669E+10  6541.6524      968139.82    
 3.99651253E-06 1.33417205E-08 2.68115024E+10 2.68105086E+10  6713.4314      987092.00    
 4.02328535E-06 1.34310972E-08 2.73618761E+10 2.73608623E+10  6900.9865      1006931.4    
 4.05023752E-06 1.35210728E-08 2.79062571E+10 2.79052233E+10  7084.8648      1026744.0    
 4.07737024E-06 1.36116511E-08 2.84630859E+10 2.84620309E+10  7274.4623      1047810.7    
 4.10468473E-06 1.37028361E-08 2.90455438E+10 2.90444663E+10  7476.7928      1069974.4    
 4.13218219E-06 1.37946320E-08 2.96179618E+10 2.96168626E+10  7673.1507      1091434.4    
