 OPTXAGNF AGN Spectrum Model Parameters: NLS, Astar 0.0                          
 M_BH:  3.0000E+08 M_0            L  :  1.0000E-02 L/Ledd 
 D   :  1.5000E+18 cm             z  :   0.000     redshift 
 Rcor:   40.00     Rg             Ro :   4.000     Rg 
 C_T :  0.2000     keV            Tau:   15.00     Optical Depth 
 gam :   2.200     (-slope)       fpl:  0.2000     Fraction 
 E              0.5DeltaE      E.FE total     E.FE Disk      E.FE Compton   E.FE NonThermal
 (keV)          (keV)          E.E/cm2/s/E    E.E/cm2/s/E    E.E/cm2/s/E    E.E/cm2/s/E    
 1.00334952E-06 3.34952256E-09 1.60697310E+08 1.60685563E+08  66.930977      11680.257    
 1.01007101E-06 3.37196116E-09 1.63871746E+08 1.63859762E+08  68.689183      11915.819    
 1.01683752E-06 3.39455008E-09 1.67179166E+08 1.67166937E+08  70.553400      12158.479    
 1.02364936E-06 3.41729032E-09 1.70577413E+08 1.70564936E+08  72.489301      12404.303    
 1.03050683E-06 3.44018290E-09 1.73946203E+08 1.73933483E+08  74.392793      12645.139    
 1.03741024E-06 3.46322884E-09 1.77532196E+08 1.77519220E+08  76.477844      12899.553    
 1.04435990E-06 3.48642917E-09 1.81063783E+08 1.81050544E+08  78.508872      13160.522    
 1.05135611E-06 3.50978492E-09 1.84692013E+08 1.84678500E+08  80.616887      13433.082    
 1.05839920E-06 3.53329712E-09 1.88471723E+08 1.88457926E+08  82.852073      13713.905    
 1.06548946E-06 3.55696684E-09 1.92193568E+08 1.92179496E+08  85.027935      13986.612    
 1.07262722E-06 3.58079512E-09 1.96127845E+08 1.96113486E+08  87.386368      14271.186    
 1.07981280E-06 3.60478303E-09 2.00056450E+08 2.00041808E+08  89.732255      14551.525    
 1.08704652E-06 3.62893164E-09 2.04036344E+08 2.04021417E+08  92.115707      14834.950    
 1.09432869E-06 3.65324201E-09 2.08240012E+08 2.08224770E+08  94.696144      15147.062    
 1.10165965E-06 3.67771524E-09 2.12351828E+08 2.12336275E+08  97.183346      15455.711    
 1.10903971E-06 3.70235243E-09 2.16667963E+08 2.16652086E+08  99.850748      15776.315    
 1.11646922E-06 3.72715465E-09 2.21037895E+08 2.21021696E+08  102.55996      16096.291    
 1.12394850E-06 3.75212303E-09 2.25403294E+08 2.25386777E+08  105.25456      16412.132    
 1.13147788E-06 3.77725867E-09 2.30078107E+08 2.30061253E+08  108.23324      16745.233    
 1.13905770E-06 3.80256270E-09 2.34620634E+08 2.34603453E+08  111.07632      17070.403    
 1.14668830E-06 3.82803623E-09 2.39355396E+08 2.39337859E+08  114.09287      17422.774    
 1.15437002E-06 3.85368042E-09 2.44215853E+08 2.44197948E+08  117.22131      17788.238    
 1.16210319E-06 3.87949640E-09 2.49036311E+08 2.49018045E+08  120.29932      18145.721    
 1.16988818E-06 3.90548532E-09 2.54169474E+08 2.54150828E+08  123.67314      18521.681    
 1.17772531E-06 3.93164835E-09 2.59220466E+08 2.59201453E+08  126.95522      18886.525    
 1.18561494E-06 3.95798663E-09 2.64414124E+08 2.64394736E+08  130.36628      19257.115    
 1.19355743E-06 3.98450137E-09 2.69819714E+08 2.69799935E+08  133.97838      19644.922    
 1.20155313E-06 4.01119372E-09 2.75144953E+08 2.75124772E+08  137.49681      20043.049    
 1.20960239E-06 4.03806489E-09 2.80776289E+08 2.80755681E+08  141.31299      20466.732    
 1.21770557E-06 4.06511607E-09 2.86394673E+08 2.86373645E+08  145.10389      20883.079    
 1.22586303E-06 4.09234846E-09 2.92091376E+08 2.92069927E+08  148.96065      21300.165    
 1.23407514E-06 4.11976329E-09 2.98102792E+08 2.98080905E+08  153.13069      21734.073    
 1.24234227E-06 4.14736177E-09 3.03985510E+08 3.03963198E+08  157.15255      22153.907    
 1.25066478E-06 4.17514513E-09 3.10162957E+08 3.10140198E+08  161.46869      22598.203    
 1.25904304E-06 4.20311462E-09 3.16411955E+08 3.16388721E+08  165.84673      23068.323    
 1.26747742E-06 4.23127147E-09 3.22660034E+08 3.22636327E+08  170.20699      23537.364    
 1.27596831E-06 4.25961695E-09 3.29344657E+08 3.29320448E+08  175.02060      24033.303    
 1.28451608E-06 4.28815232E-09 3.35843092E+08 3.35818404E+08  179.61792      24508.387    
 1.29312111E-06 4.31687884E-09 3.42619214E+08 3.42594032E+08  184.49902      24997.748    
 1.30178379E-06 4.34579781E-09 3.49569006E+08 3.49543323E+08  189.55453      25492.929    
 1.31050450E-06 4.37491051E-09 3.56464679E+08 3.56438494E+08  194.53172      25991.209    
 1.31928362E-06 4.40421823E-09 3.63810367E+08 3.63783621E+08  199.99080      26546.555    
 1.32812156E-06 4.43372228E-09 3.71032404E+08 3.71005111E+08  205.29446      27088.098    
 1.33701871E-06 4.46342399E-09 3.78464762E+08 3.78436912E+08  210.81394      27639.017    
 1.34597546E-06 4.49332467E-09 3.86193351E+08 3.86164930E+08  216.65105      28204.049    
 1.35499221E-06 4.52342565E-09 3.93810453E+08 3.93781477E+08  222.34037      28754.037    
 1.36406936E-06 4.55372829E-09 4.01868373E+08 4.01838817E+08  228.51525      29327.569    
 1.37320733E-06 4.58423392E-09 4.09900899E+08 4.09870751E+08  234.64115      29912.770    
 1.38240650E-06 4.61494391E-09 4.18052518E+08 4.18021748E+08  240.88184      30529.292    
 1.39166731E-06 4.64585962E-09 4.26646473E+08 4.26615051E+08  247.62060      31174.983    
 1.40099015E-06 4.67698245E-09 4.35060278E+08 4.35028226E+08  254.12394      31797.747    
 1.41037545E-06 4.70831376E-09 4.43898982E+08 4.43866277E+08  261.10779      32444.097    
 1.41982361E-06 4.73985497E-09 4.52832208E+08 4.52798851E+08  268.18251      33088.288    
 1.42933508E-06 4.77160747E-09 4.61772057E+08 4.61738056E+08  275.23792      33725.766    
 1.43891026E-06 4.80357269E-09 4.71327451E+08 4.71292741E+08  283.01671      34426.394    
 1.44854958E-06 4.83575204E-09 4.80621036E+08 4.80585615E+08  290.45053      35129.922    
 1.45825348E-06 4.86814696E-09 4.90315553E+08 4.90279397E+08  298.34856      35857.791    
 1.46802239E-06 4.90075889E-09 5.00249657E+08 5.00212757E+08  306.51806      36593.314    
 1.47785673E-06 4.93358930E-09 5.10110779E+08 5.10073150E+08  314.56609      37314.266    
 1.48775696E-06 4.96663964E-09 5.20619084E+08 5.20580689E+08  323.39913      38071.751    
 1.49772351E-06 4.99991138E-09 5.30941894E+08 5.30902752E+08  331.96942      38809.537    
 1.50775683E-06 5.03340601E-09 5.41574357E+08 5.41534423E+08  340.90039      39593.033    
 1.51785736E-06 5.06712502E-09 5.52620530E+08 5.52579749E+08  350.33295      40431.017    
 1.52802556E-06 5.10106992E-09 5.63512292E+08 5.63470685E+08  359.53245      41247.358    
 1.53826187E-06 5.13524222E-09 5.75038546E+08 5.74996075E+08  369.52369      42101.257    
 1.54856676E-06 5.16964344E-09 5.86518657E+08 5.86475338E+08  379.42267      42939.689    
 1.55894067E-06 5.20427512E-09 5.98179033E+08 5.98134862E+08  389.52065      43781.252    
 1.56938409E-06 5.23913879E-09 6.10460635E+08 6.10415575E+08  400.41026      44659.774    
 1.57989746E-06 5.27423602E-09 6.22490368E+08 6.22444405E+08  410.92596      45552.642    
 1.59048127E-06 5.30956836E-09 6.35132344E+08 6.35085410E+08  422.22618      46511.989    
 1.60113597E-06 5.34513740E-09 6.47898373E+08 6.47850471E+08  433.65840      47469.105    
 1.61186206E-06 5.38094472E-09 6.60685211E+08 6.60636350E+08  445.07469      48415.825    
 1.62265999E-06 5.41699191E-09 6.74339315E+08 6.74289445E+08  457.64496      49413.140    
 1.63353026E-06 5.45328058E-09 6.87625494E+08 6.87574653E+08  469.66515      50371.242    
 1.64447336E-06 5.48981235E-09 7.01490179E+08 7.01438330E+08  482.44456      51366.169    
 1.65548976E-06 5.52658885E-09 7.15684865E+08 7.15631943E+08  495.64589      52426.408    
 1.66657996E-06 5.56361172E-09 7.29781605E+08 7.29727601E+08  508.65920      53494.967    
 1.67774445E-06 5.60088261E-09 7.44808602E+08 7.44753455E+08  522.95119      54623.318    
 1.68898374E-06 5.63840317E-09 7.59558143E+08 7.59501892E+08  536.79980      55714.160    
 1.70029832E-06 5.67617509E-09 7.74762839E+08 7.74705462E+08  551.25059      56825.409    
 1.71168869E-06 5.71420004E-09 7.90544610E+08 7.90486081E+08  566.49295      57962.320    
 1.72315537E-06 5.75247973E-09 8.06112882E+08 8.06053217E+08  581.36806      59084.328    
 1.73469887E-06 5.79101585E-09 8.22593902E+08 8.22532984E+08  597.53404      60320.581    
 1.74631969E-06 5.82981012E-09 8.38995072E+08 8.38932893E+08  613.52969      61565.587    
 1.75801837E-06 5.86886429E-09 8.55668140E+08 8.55604694E+08  629.86878      62816.060    
 1.76979541E-06 5.90818007E-09 8.73212941E+08 8.73148178E+08  647.46565      64114.835    
 1.78165135E-06 5.94775924E-09 8.90405867E+08 8.90339831E+08  664.46889      65370.738    
 1.79358672E-06 5.98760354E-09 9.08480303E+08 9.08412947E+08  682.75281      66673.654    
 1.80560203E-06 6.02771477E-09 9.26716245E+08 9.26647550E+08  701.22605      67993.163    
 1.81769784E-06 6.06809470E-09 9.44998168E+08 9.44928080E+08  719.69825      69369.092    
 1.82987468E-06 6.10874514E-09 9.64501179E+08 9.64429586E+08  740.01098      70853.753    
 1.84213310E-06 6.14966790E-09 9.83487667E+08 9.83414631E+08  759.44676      72275.812    
 1.85447363E-06 6.19086481E-09 1.00330828E+09 1.00323376E+09  780.12407      73743.518    
 1.86689683E-06 6.23233769E-09 1.02358243E+09 1.02350640E+09  801.45602      75223.848    
 1.87940326E-06 6.27408840E-09 1.04372569E+09 1.04364819E+09  822.49753      76677.953    
 1.89199346E-06 6.31611880E-09 1.06520521E+09 1.06512613E+09  845.62166      78234.997    
 1.90466801E-06 6.35843077E-09 1.08627100E+09 1.08619030E+09  867.99895      79832.738    
 1.91742747E-06 6.40102618E-09 1.10800494E+09 1.10792257E+09  891.38059      81484.812    
 1.93027240E-06 6.44390694E-09 1.13054299E+09 1.13045890E+09  916.01065      83175.580    
 1.94320339E-06 6.48707497E-09 1.15278634E+09 1.15270058E+09  940.06239      84821.830    
 1.95622099E-06 6.53053217E-09 1.17634162E+09 1.17625411E+09  966.21860      86542.594    
 1.96932581E-06 6.57428050E-09 1.19976301E+09 1.19967379E+09  992.06523      88232.045    
 1.98251841E-06 6.61832191E-09 1.22359312E+09 1.22350214E+09  1018.5022      89966.450    
 1.99579939E-06 6.66265834E-09 1.24864547E+09 1.24855255E+09  1046.9369      91879.093    
 2.00916934E-06 6.70729179E-09 1.27320693E+09 1.27311212E+09  1074.4294      93743.123    
 2.02262885E-06 6.75222424E-09 1.29903674E+09 1.29893996E+09  1104.0124      95682.075    
 2.03617854E-06 6.79745770E-09 1.32507472E+09 1.32497598E+09  1133.8625      97608.873    
 2.04981899E-06 6.84299417E-09 1.35120133E+09 1.35110065E+09  1163.7509      99519.477    
 2.06355082E-06 6.88883570E-09 1.37904563E+09 1.37894291E+09  1196.5742      101525.08    
 2.07737464E-06 6.93498432E-09 1.40616562E+09 1.40606088E+09  1227.9997      103515.20    
 2.09129106E-06 6.98144209E-09 1.43448750E+09 1.43438055E+09  1261.4551      105682.63    
 2.10530072E-06 7.02821109E-09 1.46343151E+09 1.46332233E+09  1295.9245      107882.90    
 2.11940422E-06 7.07529339E-09 1.49220164E+09 1.49209027E+09  1329.9461      110040.80    
 2.13360221E-06 7.12269110E-09 1.52288974E+09 1.52277606E+09  1367.3596      112313.93    
 2.14789530E-06 7.17040633E-09 1.55296232E+09 1.55284640E+09  1403.5171      114511.25    
 2.16228415E-06 7.21844121E-09 1.58401419E+09 1.58389599E+09  1441.3481      116752.43    
 2.17676939E-06 7.26679787E-09 1.61618521E+09 1.61606460E+09  1481.1467      119132.20    
 2.19135167E-06 7.31547848E-09 1.64795039E+09 1.64782730E+09  1520.0353      121563.44    
 2.20603163E-06 7.36448520E-09 1.68159995E+09 1.68147426E+09  1562.3544      124125.52    
 2.22080994E-06 7.41382021E-09 1.71503032E+09 1.71490208E+09  1604.1177      126632.52    
 2.23568724E-06 7.46348573E-09 1.74907295E+09 1.74894215E+09  1646.8921      129155.32    
 2.25066421E-06 7.51348396E-09 1.78482720E+09 1.78469374E+09  1692.8385      131767.77    
 2.26574151E-06 7.56381713E-09 1.81989753E+09 1.81976149E+09  1737.2901      134305.58    
 2.28091982E-06 7.61448748E-09 1.85679140E+09 1.85665256E+09  1785.1535      137050.33    
 2.29619980E-06 7.66549727E-09 1.89395059E+09 1.89380886E+09  1833.3856      139902.97    
 2.31158215E-06 7.71684879E-09 1.93126915E+09 1.93112453E+09  1881.7443      142740.52    
 2.32706754E-06 7.76854430E-09 1.97100179E+09 1.97085413E+09  1934.7819      145725.87    
 2.34265667E-06 7.82058613E-09 2.00971970E+09 2.00956912E+09  1985.5922      148593.46    
 2.35835023E-06 7.87297659E-09 2.05016756E+09 2.05001397E+09  2039.7209      151552.60    
 2.37414893E-06 7.92571802E-09 2.09146690E+09 2.09131026E+09  2095.4169      154547.12    
 2.39005346E-06 7.97881276E-09 2.13253690E+09 2.13237713E+09  2150.4245      157620.29    
 2.40606454E-06 8.03226319E-09 2.17635767E+09 2.17619447E+09  2210.9556      160995.42    
 2.42218287E-06 8.08607168E-09 2.21926535E+09 2.21909882E+09  2269.3777      164256.10    
 2.43840918E-06 8.14024064E-09 2.26360621E+09 2.26343629E+09  2330.5857      167588.03    
 2.45474420E-06 8.19477248E-09 2.30950236E+09 2.30932897E+09  2394.8927      170989.77    
 2.47118864E-06 8.24966963E-09 2.35484053E+09 2.35466377E+09  2457.7689      174309.36    
 2.48774324E-06 8.30493454E-09 2.40288290E+09 2.40270258E+09  2526.2367      177800.58    
 2.50440875E-06 8.36056967E-09 2.45057306E+09 2.45038906E+09  2593.7165      181400.20    
 2.52118589E-06 8.41657750E-09 2.49917770E+09 2.49898990E+09  2662.9225      185140.08    
 2.53807543E-06 8.47296053E-09 2.55017684E+09 2.54998508E+09  2737.1630      189026.66    
 2.55507811E-06 8.52972128E-09 2.60022455E+09 2.60002895E+09  2809.0330      192785.38    
 2.57219470E-06 8.58686227E-09 2.65289129E+09 2.65269171E+09  2886.4708      196693.38    
 2.58942595E-06 8.64438604E-09 2.70589101E+09 2.70568747E+09  2964.4025      200572.25    
 2.60677263E-06 8.70229518E-09 2.75916477E+09 2.75895727E+09  3042.6435      204458.23    
 2.62423551E-06 8.76059224E-09 2.81582800E+09 2.81561610E+09  3128.3418      208763.11    
 2.64181539E-06 8.81927985E-09 2.87107170E+09 2.87085547E+09  3210.4920      213017.81    
 2.65951303E-06 8.87836060E-09 2.92880326E+09 2.92858254E+09  3298.0661      217419.38    
 2.67732922E-06 8.93783714E-09 2.98769732E+09 2.98747208E+09  3388.0576      221847.29    
 2.69526477E-06 8.99771211E-09 3.04629084E+09 3.04606116E+09  3476.9935      226198.46    
 2.71332047E-06 9.05798819E-09 3.10882544E+09 3.10859109E+09  3574.9234      230777.18    
 2.73149713E-06 9.11866806E-09 3.17000916E+09 3.16977023E+09  3669.3171      235264.48    
 2.74979555E-06 9.17975443E-09 3.23328721E+09 3.23304335E+09  3768.3445      240089.69    
 2.76821656E-06 9.24125002E-09 3.29872374E+09 3.29847472E+09  3872.2491      245147.73    
 2.78676096E-06 9.30315757E-09 3.36339522E+09 3.36314118E+09  3973.9059      250074.42    
 2.80542960E-06 9.36547984E-09 3.43194356E+09 3.43168424E+09  4084.6759      255236.69    
 2.82422330E-06 9.42821962E-09 3.49993346E+09 3.49966899E+09  4193.7041      260284.83    
 2.84314290E-06 9.49137968E-09 3.56928479E+09 3.56901511E+09  4305.6711      265373.68    
 2.86218924E-06 9.55496287E-09 3.64198181E+09 3.64170667E+09  4425.6255      270720.66    
 2.88136318E-06 9.61897199E-09 3.71335778E+09 3.71307704E+09  4541.8223      276201.59    
 2.90066556E-06 9.68340992E-09 3.78849180E+09 3.78820511E+09  4667.1039      282017.51    
 2.92009725E-06 9.74827952E-09 3.86403616E+09 3.86374358E+09  4793.0192      287779.02    
 2.93965911E-06 9.81358368E-09 3.94003746E+09 3.93973904E+09  4919.6033      293504.68    
 2.95935202E-06 9.87932532E-09 4.02079153E+09 4.02048696E+09  5058.0704      299507.55    
 2.97917685E-06 9.94550737E-09 4.09956232E+09 4.09925183E+09  5190.8865      305291.64    
 2.99913449E-06 1.00121328E-08 4.18190711E+09 4.18159041E+09  5332.5667      311369.96    
 3.01922583E-06 1.00792045E-08 4.26583519E+09 4.26551184E+09  5477.9666      317869.44    
 3.03945176E-06 1.01467255E-08 4.34937332E+09 4.34904337E+09  5621.7527      324326.93    
 3.05981319E-06 1.02146989E-08 4.43855218E+09 4.43821526E+09  5780.1825      331147.52    
 3.08031101E-06 1.02831276E-08 4.52573757E+09 4.52539393E+09  5932.6909      337714.93    
 3.10094616E-06 1.03520148E-08 4.61597760E+09 4.61562708E+09  6092.9000      344433.69    
 3.12171953E-06 1.04213634E-08 4.70920799E+09 4.70885046E+09  6260.7789      351277.70    
 3.14263207E-06 1.04911766E-08 4.80139251E+09 4.80102796E+09  6425.1297      358125.52    
 3.16368471E-06 1.05614574E-08 4.89912934E+09 4.89875700E+09  6604.3315      365741.49    
 3.18487837E-06 1.06322091E-08 4.99599180E+09 4.99561178E+09  6780.4837      373235.43    
 3.20621402E-06 1.07034348E-08 5.09487529E+09 5.09448754E+09  6961.6262      380797.13    
 3.22769259E-06 1.07751376E-08 5.19842692E+09 5.19803115E+09  7155.4361      388613.89    
 3.24931505E-06 1.08473207E-08 5.30014687E+09 5.29974333E+09  7343.2921      396192.37    
 3.27108236E-06 1.09199874E-08 5.40725260E+09 5.40684099E+09  7545.9696      404067.74    
 3.29299549E-06 1.09931409E-08 5.51485212E+09 5.51443222E+09  7749.4049      412145.89    
 3.31505541E-06 1.10667844E-08 5.62319698E+09 5.62276844E+09  7954.1946      420585.25    
 3.33726312E-06 1.11409213E-08 5.73819811E+09 5.73776042E+09  8177.9144      429518.89    
 3.35961959E-06 1.12155548E-08 5.85043290E+09 5.84998641E+09  8392.6364      438099.62    
 3.38212584E-06 1.12906884E-08 5.96779557E+09 5.96733998E+09  8621.8423      446972.32    
 3.40478285E-06 1.13663252E-08 6.08730719E+09 6.08684245E+09  8856.7569      455882.94    
 3.42759164E-06 1.14424687E-08 6.20631829E+09 6.20584454E+09  9089.2125      464658.22    
 3.45055323E-06 1.15191223E-08 6.33339333E+09 6.33290972E+09  9345.5085      474269.63    
 3.47366865E-06 1.15962894E-08 6.45753520E+09 6.45704164E+09  9591.9010      483975.00    
 3.49693891E-06 1.16739735E-08 6.58612496E+09 6.58562114E+09  9851.0812      493963.75    
 3.52036506E-06 1.17521780E-08 6.71885046E+09 6.71833620E+09  10122.313      504138.86    
 3.54394814E-06 1.18309064E-08 6.85015010E+09 6.84962564E+09  10388.012      514071.84    
 3.56768921E-06 1.19101621E-08 6.98939037E+09 6.98885522E+09  10677.910      524471.39    
 3.59158932E-06 1.19899488E-08 7.12727540E+09 7.12672976E+09  10962.500      534673.13    
 3.61564954E-06 1.20702701E-08 7.26815222E+09 7.26759557E+09  11255.544      545390.49    
 3.63987094E-06 1.21511293E-08 7.41553305E+09 7.41496451E+09  11568.669      556970.71    
 3.66425460E-06 1.22325303E-08 7.56038007E+09 7.55979998E+09  11872.364      568217.15    
 3.68880161E-06 1.23144766E-08 7.71293590E+09 7.71234377E+09  12200.237      579936.93    
 3.71351306E-06 1.23969718E-08 7.86606557E+09 7.86546151E+09  12528.904      591533.95    
 3.73839005E-06 1.24800197E-08 8.02038849E+09 8.01977254E+09  12860.202      603085.09    
 3.76343369E-06 1.25636239E-08 8.18401980E+09 8.18339135E+09  13221.648      615223.55    
 3.78864510E-06 1.26477882E-08 8.34380010E+09 8.34315904E+09  13568.772      627489.60    
 3.81402541E-06 1.27325163E-08 8.51092835E+09 8.51027377E+09  13939.558      640644.32    
 3.83957574E-06 1.28178120E-08 8.68096463E+09 8.68029643E+09  14319.081      653884.42    
 3.86529723E-06 1.29036791E-08 8.85036731E+09 8.84968571E+09  14694.870      666903.11    
 3.89119103E-06 1.29901214E-08 9.03128149E+09 9.03058574E+09  15109.468      680638.83    
 3.91725829E-06 1.30771428E-08 9.20789047E+09 9.20718110E+09  15507.522      693865.76    
 3.94350018E-06 1.31647472E-08 9.39096360E+09 9.39024017E+09  15926.796      707504.37    
 3.96991787E-06 1.32529384E-08 9.57974604E+09 9.57900755E+09  16364.988      722120.01    
 3.99651253E-06 1.33417205E-08 9.76659207E+09 9.76583843E+09  16794.513      736838.29    
 4.02328535E-06 1.34310972E-08 9.96477934E+09 9.96400975E+09  17263.465      752322.05    
 4.05023752E-06 1.35210728E-08 1.01608847E+10 1.01600995E+10  17723.225      767409.69    
 4.07737024E-06 1.36116511E-08 1.03614045E+10 1.03606036E+10  18197.277      782659.61    
 4.10468473E-06 1.37028361E-08 1.05709694E+10 1.05701523E+10  18703.148      798380.13    
 4.13218219E-06 1.37946320E-08 1.07770376E+10 1.07762046E+10  19194.091      813811.61    
