 OPTXAGNF AGN Spectrum Model Parameters: BLS, Astar 0.0                          
 M_BH:  3.0000E+08 M_0            L  :  5.0000E-02 L/Ledd 
 D   :  1.5000E+18 cm             z  :   0.000     redshift 
 Rcor:   60.00     Rg             Ro :   4.000     Rg 
 C_T :  0.2000     keV            Tau:   15.00     Optical Depth 
 gam :   1.800     (-slope)       fpl:  0.5000     Fraction 
 E              0.5DeltaE      E.FE total     E.FE Disk      E.FE Compton   E.FE NonThermal
 (keV)          (keV)          E.E/cm2/s/E    E.E/cm2/s/E    E.E/cm2/s/E    E.E/cm2/s/E    
 1.00334952E-06 3.34952256E-09 2.39237996E+08 2.39221064E+08  144.08703      16787.932    
 1.01007101E-06 3.37196116E-09 2.43970505E+08 2.43953231E+08  147.87212      17126.041    
 1.01683752E-06 3.39455008E-09 2.48901755E+08 2.48884129E+08  151.88545      17474.317    
 1.02364936E-06 3.41729032E-09 2.53968732E+08 2.53950749E+08  156.05310      17827.127    
 1.03050683E-06 3.44018290E-09 2.58991553E+08 2.58973220E+08  160.15098      18172.805    
 1.03741024E-06 3.46322884E-09 2.64339106E+08 2.64320402E+08  164.63974      18539.103    
 1.04435990E-06 3.48642917E-09 2.69605192E+08 2.69586105E+08  169.01219      18917.619    
 1.05135611E-06 3.50978492E-09 2.75015703E+08 2.74996220E+08  173.55039      19309.421    
 1.05839920E-06 3.53329712E-09 2.80652692E+08 2.80632802E+08  178.36237      19712.459    
 1.06548946E-06 3.55696684E-09 2.86203005E+08 2.86182718E+08  183.04663      20103.889    
 1.07262722E-06 3.58079512E-09 2.92070992E+08 2.92050292E+08  188.12395      20512.311    
 1.07981280E-06 3.60478303E-09 2.97930380E+08 2.97909272E+08  193.17426      20914.678    
 1.08704652E-06 3.62893164E-09 3.03866371E+08 3.03844849E+08  198.30544      21323.392    
 1.09432869E-06 3.65324201E-09 3.10137066E+08 3.10115086E+08  203.86071      21775.865    
 1.10165965E-06 3.67771524E-09 3.16270184E+08 3.16247756E+08  209.21526      22219.012    
 1.10903971E-06 3.70235243E-09 3.22708911E+08 3.22686017E+08  214.95776      22679.157    
 1.11646922E-06 3.72715465E-09 3.29228021E+08 3.29204661E+08  220.79029      23138.412    
 1.12394850E-06 3.75212303E-09 3.35740189E+08 3.35716371E+08  226.59134      23591.761    
 1.13147788E-06 3.77725867E-09 3.42715330E+08 3.42691027E+08  233.00398      24069.812    
 1.13905770E-06 3.80256270E-09 3.49492323E+08 3.49467544E+08  239.12472      24539.896    
 1.14668830E-06 3.82803623E-09 3.56556908E+08 3.56531612E+08  245.61890      25049.841    
 1.15437002E-06 3.85368042E-09 3.63809511E+08 3.63783684E+08  252.35398      25574.376    
 1.16210319E-06 3.87949640E-09 3.71002057E+08 3.70975710E+08  258.98049      26087.504    
 1.16988818E-06 3.90548532E-09 3.78662629E+08 3.78635735E+08  266.24384      26627.078    
 1.17772531E-06 3.93164835E-09 3.86200005E+08 3.86172581E+08  273.30970      27150.760    
 1.18561494E-06 3.95798663E-09 3.93950817E+08 3.93922854E+08  280.65323      27682.675    
 1.19355743E-06 3.98450137E-09 4.02018843E+08 4.01990310E+08  288.42959      28244.591    
 1.20155313E-06 4.01119372E-09 4.09966335E+08 4.09937220E+08  296.00429      28819.390    
 1.20960239E-06 4.03806489E-09 4.18372084E+08 4.18342353E+08  304.22003      29427.472    
 1.21770557E-06 4.06511607E-09 4.26758249E+08 4.26727912E+08  312.38134      30025.072    
 1.22586303E-06 4.09234846E-09 4.35261511E+08 4.35230567E+08  320.68445      30623.744    
 1.23407514E-06 4.11976329E-09 4.44236035E+08 4.44204459E+08  329.66202      31246.490    
 1.24234227E-06 4.14736177E-09 4.53017539E+08 4.52985351E+08  338.32058      31849.611    
 1.25066478E-06 4.17514513E-09 4.62240402E+08 4.62207560E+08  347.61270      32494.132    
 1.25904304E-06 4.20311462E-09 4.71570259E+08 4.71536731E+08  357.03810      33171.506    
 1.26747742E-06 4.23127147E-09 4.80898483E+08 4.80864272E+08  366.42519      33844.776    
 1.27596831E-06 4.25961695E-09 4.90880685E+08 4.90845752E+08  376.78835      34556.535    
 1.28451608E-06 4.28815232E-09 5.00583616E+08 5.00547991E+08  386.68584      35238.481    
 1.29312111E-06 4.31687884E-09 5.10702475E+08 5.10666137E+08  397.19431      35940.864    
 1.30178379E-06 4.34579781E-09 5.21081415E+08 5.21044354E+08  408.07828      36653.119    
 1.31050450E-06 4.37491051E-09 5.31378955E+08 5.31341160E+08  418.79360      37376.227    
 1.31928362E-06 4.40421823E-09 5.42350860E+08 5.42312254E+08  430.54644      38175.269    
 1.32812156E-06 4.43372228E-09 5.53137117E+08 5.53097722E+08  441.96466      38952.600    
 1.33701871E-06 4.46342399E-09 5.64238410E+08 5.64198213E+08  453.84753      39743.362    
 1.34597546E-06 4.49332467E-09 5.75783627E+08 5.75742607E+08  466.41426      40554.325    
 1.35499221E-06 4.52342565E-09 5.87161348E+08 5.87119526E+08  478.66280      41343.796    
 1.36406936E-06 4.55372829E-09 5.99199862E+08 5.99157200E+08  491.95673      42169.729    
 1.37320733E-06 4.58423392E-09 6.11199998E+08 6.11156474E+08  505.14521      43018.658    
 1.38240650E-06 4.61494391E-09 6.23378399E+08 6.23333976E+08  518.58084      43904.973    
 1.39166731E-06 4.64585962E-09 6.36220028E+08 6.36174664E+08  533.08881      44831.682    
 1.40099015E-06 4.67698245E-09 6.48791051E+08 6.48744779E+08  547.08993      45725.624    
 1.41037545E-06 4.70831376E-09 6.61999188E+08 6.61951973E+08  562.12557      46653.318    
 1.41982361E-06 4.73985497E-09 6.75348814E+08 6.75300658E+08  577.35687      47577.947    
 1.42933508E-06 4.77160747E-09 6.88707969E+08 6.88658881E+08  592.54658      48495.531    
 1.43891026E-06 4.80357269E-09 7.02990514E+08 7.02940393E+08  609.29374      49511.384    
 1.44854958E-06 4.83575204E-09 7.16879743E+08 7.16828595E+08  625.29817      50523.446    
 1.45825348E-06 4.86814696E-09 7.31370308E+08 7.31318098E+08  642.30205      51568.172    
 1.46802239E-06 4.90075889E-09 7.46220122E+08 7.46166839E+08  659.89041      52623.870    
 1.47785673E-06 4.93358930E-09 7.60959919E+08 7.60905583E+08  677.21726      53658.761    
 1.48775696E-06 4.96663964E-09 7.76670921E+08 7.76615479E+08  696.23424      54745.912    
 1.49772351E-06 4.99991138E-09 7.92102990E+08 7.92046468E+08  714.68550      55807.272    
 1.50775683E-06 5.03340601E-09 8.07999526E+08 8.07941849E+08  733.91334      56943.382    
 1.51785736E-06 5.06712502E-09 8.24516886E+08 8.24457982E+08  754.22110      58149.532    
 1.52802556E-06 5.10106992E-09 8.40801833E+08 8.40741737E+08  774.02710      59321.357    
 1.53826187E-06 5.13524222E-09 8.58039268E+08 8.57977925E+08  795.53772      60546.915    
 1.54856676E-06 5.16964344E-09 8.75206910E+08 8.75144343E+08  816.84970      61750.388    
 1.55894067E-06 5.20427512E-09 8.92644769E+08 8.92580972E+08  838.59015      62958.372    
 1.56938409E-06 5.23913879E-09 9.11015447E+08 9.10950362E+08  862.03499      64222.564    
 1.57989746E-06 5.27423602E-09 9.29007135E+08 9.28940733E+08  884.67481      65517.903    
 1.59048127E-06 5.30956836E-09 9.47918200E+08 9.47850393E+08  909.00372      66897.681    
 1.60113597E-06 5.34513740E-09 9.67015140E+08 9.66945935E+08  933.61685      68271.478    
 1.61186206E-06 5.38094472E-09 9.86142687E+08 9.86072098E+08  958.19568      69630.451    
 1.62265999E-06 5.41699191E-09 1.00657322E+09 1.00650117E+09  985.25910      71061.790    
 1.63353026E-06 5.45328058E-09 1.02645006E+09 1.02637661E+09  1011.1382      72437.110    
 1.64447336E-06 5.48981235E-09 1.04719590E+09 1.04712099E+09  1038.6519      73870.903    
 1.65548976E-06 5.52658885E-09 1.06843728E+09 1.06836081E+09  1067.0740      75408.384    
 1.66657996E-06 5.56361172E-09 1.08953062E+09 1.08945259E+09  1095.0913      76943.558    
 1.67774445E-06 5.60088261E-09 1.11202219E+09 1.11194250E+09  1125.8617      78562.981    
 1.68898374E-06 5.63840317E-09 1.13409579E+09 1.13401450E+09  1155.6775      80128.818    
 1.70029832E-06 5.67617509E-09 1.15685315E+09 1.15677024E+09  1186.7899      81723.875    
 1.71168869E-06 5.71420004E-09 1.18047786E+09 1.18039328E+09  1219.6065      83355.654    
 1.72315537E-06 5.75247973E-09 1.20378056E+09 1.20369433E+09  1251.6324      84975.858    
 1.73469887E-06 5.79101585E-09 1.22845571E+09 1.22836765E+09  1286.4377      86766.705    
 1.74631969E-06 5.82981012E-09 1.25300991E+09 1.25292003E+09  1320.8763      88553.787    
 1.75801837E-06 5.86886429E-09 1.27797232E+09 1.27788062E+09  1356.0543      90348.738    
 1.76979541E-06 5.90818007E-09 1.30424586E+09 1.30415226E+09  1393.9404      92212.786    
 1.78165135E-06 5.94775924E-09 1.32998888E+09 1.32989343E+09  1430.5484      94015.601    
 1.79358672E-06 5.98760354E-09 1.35705785E+09 1.35696050E+09  1469.9139      95885.666    
 1.80560203E-06 6.02771477E-09 1.38436909E+09 1.38426979E+09  1509.6869      97795.786    
 1.81769784E-06 6.06809470E-09 1.41174848E+09 1.41164714E+09  1549.4578      99784.704    
 1.82987468E-06 6.10874514E-09 1.44096558E+09 1.44086207E+09  1593.1915      101915.48    
 1.84213310E-06 6.14966790E-09 1.46940384E+09 1.46929825E+09  1635.0371      103956.82    
 1.85447363E-06 6.19086481E-09 1.49909722E+09 1.49898947E+09  1679.5558      106063.46    
 1.86689683E-06 6.23233769E-09 1.52947272E+09 1.52936280E+09  1725.4840      108188.21    
 1.87940326E-06 6.27408840E-09 1.55964983E+09 1.55953778E+09  1770.7869      110275.93    
 1.89199346E-06 6.31611880E-09 1.59183905E+09 1.59172470E+09  1820.5740      112534.29    
 1.90466801E-06 6.35843077E-09 1.62340374E+09 1.62328704E+09  1868.7530      114838.11    
 1.91742747E-06 6.40102618E-09 1.65597394E+09 1.65585481E+09  1919.0945      117209.46    
 1.93027240E-06 6.44390694E-09 1.68975483E+09 1.68963322E+09  1972.1241      119636.18    
 1.94320339E-06 6.48707497E-09 1.72309019E+09 1.72296616E+09  2023.9084      121999.33    
 1.95622099E-06 6.53053217E-09 1.75840186E+09 1.75827531E+09  2080.2240      124469.06    
 1.96932581E-06 6.57428050E-09 1.79351042E+09 1.79338139E+09  2135.8731      126897.92    
 1.98251841E-06 6.61832191E-09 1.82923373E+09 1.82910212E+09  2192.7932      129414.75    
 1.99579939E-06 6.66265834E-09 1.86679874E+09 1.86666432E+09  2254.0148      132168.31    
 2.00916934E-06 6.70729179E-09 1.90362195E+09 1.90348479E+09  2313.2078      134844.09    
 2.02262885E-06 6.75222424E-09 1.94235663E+09 1.94221663E+09  2376.9019      137627.05    
 2.03617854E-06 6.79745770E-09 1.98140389E+09 1.98126105E+09  2441.1711      140392.71    
 2.04981899E-06 6.84299417E-09 2.02058310E+09 2.02043746E+09  2505.5227      143135.31    
 2.06355082E-06 6.88883570E-09 2.06235251E+09 2.06220391E+09  2576.1937      146021.71    
 2.07737464E-06 6.93498432E-09 2.10302730E+09 2.10287575E+09  2643.8551      148909.36    
 2.09129106E-06 6.98144209E-09 2.14551409E+09 2.14535935E+09  2715.8873      152026.85    
 2.10530072E-06 7.02821109E-09 2.18893826E+09 2.18878029E+09  2790.1027      155184.96    
 2.11940422E-06 7.07529339E-09 2.23209798E+09 2.23193683E+09  2863.3542      158282.58    
 2.13360221E-06 7.12269110E-09 2.27815157E+09 2.27798708E+09  2943.9088      161544.99    
 2.14789530E-06 7.17040633E-09 2.32327393E+09 2.32310621E+09  3021.7592      164699.14    
 2.16228415E-06 7.21844121E-09 2.36987299E+09 2.36970196E+09  3103.2129      167923.73    
 2.17676939E-06 7.26679787E-09 2.41816048E+09 2.41798591E+09  3188.9033      171373.32    
 2.19135167E-06 7.31547848E-09 2.46583271E+09 2.46565456E+09  3272.6343      174873.78    
 2.20603163E-06 7.36448520E-09 2.51634955E+09 2.51616763E+09  3363.7520      178550.99    
 2.22080994E-06 7.41382021E-09 2.56653315E+09 2.56634754E+09  3453.6730      182149.57    
 2.23568724E-06 7.46348573E-09 2.61763944E+09 2.61745013E+09  3545.7710      185770.83    
 2.25066421E-06 7.51348396E-09 2.67133036E+09 2.67113719E+09  3644.6991      189520.32    
 2.26574151E-06 7.56381713E-09 2.72398512E+09 2.72378821E+09  3740.4086      193168.79    
 2.28091982E-06 7.61448748E-09 2.77939400E+09 2.77919301E+09  3843.4646      197148.75    
 2.29619980E-06 7.66549727E-09 2.83520165E+09 2.83499645E+09  3947.3145      201257.16    
 2.31158215E-06 7.71684879E-09 2.89124740E+09 2.89103802E+09  4051.4370      205330.35    
 2.32706754E-06 7.76854430E-09 2.95094152E+09 2.95072774E+09  4165.6343      209614.91    
 2.34265667E-06 7.82058613E-09 3.00909820E+09 3.00888019E+09  4275.0358      213731.28    
 2.35835023E-06 7.87297659E-09 3.06986878E+09 3.06964641E+09  4391.5827      217978.62    
 2.37414893E-06 7.92571802E-09 3.13192494E+09 3.13169814E+09  4511.5044      222285.58    
 2.39005346E-06 7.97881276E-09 3.19363088E+09 3.19339951E+09  4629.9439      226744.38    
 2.40606454E-06 8.03226319E-09 3.25949679E+09 3.25926042E+09  4760.2769      231600.81    
 2.42218287E-06 8.08607168E-09 3.32397766E+09 3.32373650E+09  4886.0688      236281.38    
 2.43840918E-06 8.14024064E-09 3.39062456E+09 3.39037848E+09  5017.8595      241063.92    
 2.45474420E-06 8.19477248E-09 3.45962312E+09 3.45937202E+09  5156.3233      245946.37    
 2.47118864E-06 8.24966963E-09 3.52777322E+09 3.52751722E+09  5291.7061      250711.57    
 2.48774324E-06 8.30493454E-09 3.60001522E+09 3.59975404E+09  5439.1295      255739.21    
 2.50440875E-06 8.36056967E-09 3.67172038E+09 3.67145384E+09  5584.4254      260960.51    
 2.52118589E-06 8.41657750E-09 3.74480680E+09 3.74453473E+09  5733.4384      266336.29    
 2.53807543E-06 8.47296053E-09 3.82151765E+09 3.82123984E+09  5893.2922      271914.44    
 2.55507811E-06 8.52972128E-09 3.89678281E+09 3.89649945E+09  6048.0418      277310.01    
 2.57219470E-06 8.58686227E-09 3.97601318E+09 3.97572404E+09  6214.7805      282919.08    
 2.58942595E-06 8.64438604E-09 4.05574444E+09 4.05544957E+09  6382.5830      288486.68    
 2.60677263E-06 8.70229518E-09 4.13588656E+09 4.13558592E+09  6551.0513      294091.98    
 2.62423551E-06 8.76059224E-09 4.22116398E+09 4.22085691E+09  6735.5780      300332.82    
 2.64181539E-06 8.81927985E-09 4.30428430E+09 4.30397094E+09  6912.4643      306441.14    
 2.65951303E-06 8.87836060E-09 4.39117313E+09 4.39085327E+09  7101.0303      312758.81    
 2.67732922E-06 8.93783714E-09 4.47982110E+09 4.47949469E+09  7294.8018      319114.28    
 2.69526477E-06 8.99771211E-09 4.56800785E+09 4.56767500E+09  7486.3004      325360.28    
 2.71332047E-06 9.05798819E-09 4.66217029E+09 4.66183066E+09  7697.1662      331931.63    
 2.73149713E-06 9.11866806E-09 4.75427770E+09 4.75393138E+09  7900.4176      338420.97    
 2.74979555E-06 9.17975443E-09 4.84955846E+09 4.84920495E+09  8113.6469      345402.70    
 2.76821656E-06 9.24125002E-09 4.94811117E+09 4.94775017E+09  8337.3788      352662.37    
 2.78676096E-06 9.30315757E-09 5.04549639E+09 5.04512810E+09  8556.2705      359734.53    
 2.80542960E-06 9.36547984E-09 5.14876372E+09 5.14838779E+09  8794.7865      367143.57    
 2.82422330E-06 9.42821962E-09 5.25117734E+09 5.25079392E+09  9029.5517      374389.71    
 2.84314290E-06 9.49137968E-09 5.35565266E+09 5.35526169E+09  9270.6454      381694.28    
 2.86218924E-06 9.55496287E-09 5.46520596E+09 5.46480698E+09  9528.9394      389444.03    
 2.88136318E-06 9.61897199E-09 5.57274518E+09 5.57233804E+09  9779.1419      397355.36    
 2.90066556E-06 9.68340992E-09 5.68598974E+09 5.68557399E+09  10048.908      405702.76    
 2.92009725E-06 9.74827952E-09 5.79985191E+09 5.79942762E+09  10320.038      413972.63    
 2.93965911E-06 9.81358368E-09 5.91440132E+09 5.91396854E+09  10592.609      422191.51    
 2.95935202E-06 9.87932532E-09 6.03617197E+09 6.03573028E+09  10890.769      430806.77    
 2.97917685E-06 9.94550737E-09 6.15491895E+09 6.15446865E+09  11176.760      439117.70    
 2.99913449E-06 1.00121328E-08 6.27909516E+09 6.27863575E+09  11481.840      447936.20    
 3.01922583E-06 1.00792045E-08 6.40567327E+09 6.40520417E+09  11794.930      457299.60    
 3.03945176E-06 1.01467255E-08 6.53164936E+09 6.53117069E+09  12104.545      466569.15    
 3.05981319E-06 1.02146989E-08 6.66620363E+09 6.66571483E+09  12445.694      476357.91    
 3.08031101E-06 1.02831276E-08 6.79771518E+09 6.79721662E+09  12774.093      485785.13    
 3.10094616E-06 1.03520148E-08 6.93386862E+09 6.93336008E+09  13119.074      495428.91    
 3.12171953E-06 1.04213634E-08 7.07456817E+09 7.07404942E+09  13480.573      505273.73    
 3.14263207E-06 1.04911766E-08 7.21366523E+09 7.21313618E+09  13834.474      515210.09    
 3.16368471E-06 1.05614574E-08 7.36121205E+09 7.36067166E+09  14220.356      526169.46    
 3.18487837E-06 1.06322091E-08 7.50741756E+09 7.50686603E+09  14599.671      536926.30    
 3.20621402E-06 1.07034348E-08 7.65669261E+09 7.65612984E+09  14989.734      547780.32    
 3.22769259E-06 1.07751376E-08 7.81307442E+09 7.81250001E+09  15407.075      558999.15    
 3.24931505E-06 1.08473207E-08 7.96665304E+09 7.96606735E+09  15811.595      569877.81    
 3.27108236E-06 1.09199874E-08 8.12843399E+09 8.12783654E+09  16248.034      581203.79    
 3.29299549E-06 1.09931409E-08 8.29095802E+09 8.29034843E+09  16686.105      592910.15    
 3.31505541E-06 1.10667844E-08 8.45460674E+09 8.45398455E+09  17127.092      605070.56    
 3.33726312E-06 1.11409213E-08 8.62840140E+09 8.62776589E+09  17608.847      617891.94    
 3.35961959E-06 1.12155548E-08 8.79796256E+09 8.79731428E+09  18071.225      630209.29    
 3.38212584E-06 1.12906884E-08 8.97533844E+09 8.97467693E+09  18564.794      642944.30    
 3.40478285E-06 1.13663252E-08 9.15598377E+09 9.15530897E+09  19070.658      655733.82    
 3.42759164E-06 1.14424687E-08 9.33585087E+09 9.33516296E+09  19571.227      668340.57    
 3.45055323E-06 1.15191223E-08 9.52802263E+09 9.52732023E+09  20123.138      682276.69    
 3.47366865E-06 1.15962894E-08 9.71570030E+09 9.71498339E+09  20653.721      696262.96    
 3.49693891E-06 1.16739735E-08 9.91015938E+09 9.90942757E+09  21211.844      710600.22    
 3.52036506E-06 1.17521780E-08 1.01109262E+10 1.01101792E+10  21795.920      725204.21    
 3.54394814E-06 1.18309064E-08 1.03094979E+10 1.03087361E+10  22368.082      739462.62    
 3.56768921E-06 1.19101621E-08 1.05201961E+10 1.05194188E+10  22992.359      754388.15    
 3.59158932E-06 1.19899488E-08 1.07288072E+10 1.07280145E+10  23605.206      769053.40    
 3.61564954E-06 1.20702701E-08 1.09419774E+10 1.09411686E+10  24236.260      784600.67    
 3.63987094E-06 1.21511293E-08 1.11650835E+10 1.11642574E+10  24910.560      801273.04    
 3.66425460E-06 1.22325303E-08 1.13842949E+10 1.13834519E+10  25564.553      817416.87    
 3.68880161E-06 1.23144766E-08 1.16152883E+10 1.16144278E+10  26270.617      834237.65    
 3.71351306E-06 1.23969718E-08 1.18471438E+10 1.18462659E+10  26978.390      850883.46    
 3.73839005E-06 1.24800197E-08 1.20808065E+10 1.20799114E+10  27691.830      867464.27    
 3.76343369E-06 1.25636239E-08 1.23287097E+10 1.23277963E+10  28470.200      884933.27    
 3.78864510E-06 1.26477882E-08 1.25706941E+10 1.25697622E+10  29217.724      902728.80    
 3.81402541E-06 1.27325163E-08 1.28239173E+10 1.28229657E+10  30016.210      921646.05    
 3.83957574E-06 1.28178120E-08 1.30815790E+10 1.30806075E+10  30833.511      940649.61    
 3.86529723E-06 1.29036791E-08 1.33382466E+10 1.33372556E+10  31642.773      959337.37    
 3.89119103E-06 1.29901214E-08 1.36125464E+10 1.36115349E+10  32535.618      979050.27    
 3.91725829E-06 1.30771428E-08 1.38802219E+10 1.38791905E+10  33392.832      998036.76    
 3.94350018E-06 1.31647472E-08 1.41577900E+10 1.41567380E+10  34295.747      1017694.7    
 3.96991787E-06 1.32529384E-08 1.44440980E+10 1.44430238E+10  35239.408      1038888.2    
 3.99651253E-06 1.33417205E-08 1.47274082E+10 1.47263120E+10  36164.404      1060030.4    
 4.02328535E-06 1.34310972E-08 1.50281064E+10 1.50269870E+10  37174.313      1082252.6    
 4.05023752E-06 1.35210728E-08 1.53255836E+10 1.53244416E+10  38164.429      1103909.3    
 4.07737024E-06 1.36116511E-08 1.56298134E+10 1.56286484E+10  39185.325      1125798.6    
 4.10468473E-06 1.37028361E-08 1.59479156E+10 1.59467269E+10  40274.750      1148360.9    
 4.13218219E-06 1.37946320E-08 1.62606162E+10 1.62594042E+10  41332.027      1170650.9    
