 OPTXAGNF AGN Spectrum Model Parameters: NLS, Astar 0.0                          
 M_BH:  3.0000E+08 M_0            L  :  0.2000     L/Ledd 
 D   :  1.5000E+18 cm             z  :   0.000     redshift 
 Rcor:   40.00     Rg             Ro :   4.000     Rg 
 C_T :  0.2000     keV            Tau:   15.00     Optical Depth 
 gam :   2.200     (-slope)       fpl:  0.2000     Fraction 
 E              0.5DeltaE      E.FE total     E.FE Disk      E.FE Compton   E.FE NonThermal
 (keV)          (keV)          E.E/cm2/s/E    E.E/cm2/s/E    E.E/cm2/s/E    E.E/cm2/s/E    
 1.00334952E-06 3.34952256E-09 3.42134455E+08 3.42113018E+08  55.247272      21381.536    
 1.01007101E-06 3.37196116E-09 3.48907955E+08 3.48886102E+08  56.698697      21796.056    
 1.01683752E-06 3.39455008E-09 3.55966332E+08 3.55944038E+08  58.237647      22236.428    
 1.02364936E-06 3.41729032E-09 3.63219268E+08 3.63196502E+08  59.835780      22706.159    
 1.03050683E-06 3.44018290E-09 3.70408800E+08 3.70385570E+08  61.407157      23168.200    
 1.03741024E-06 3.46322884E-09 3.78063890E+08 3.78040173E+08  63.128432      23654.444    
 1.04435990E-06 3.48642917E-09 3.85602042E+08 3.85577851E+08  64.805106      24126.297    
 1.05135611E-06 3.50978492E-09 3.93347193E+08 3.93322521E+08  66.545343      24605.265    
 1.05839920E-06 3.53329712E-09 4.01417047E+08 4.01391880E+08  68.390576      25098.566    
 1.06548946E-06 3.55696684E-09 4.09362516E+08 4.09336849E+08  70.186831      25596.985    
 1.07262722E-06 3.58079512E-09 4.17763514E+08 4.17737300E+08  72.133822      26141.952    
 1.07981280E-06 3.60478303E-09 4.26152086E+08 4.26125332E+08  74.070456      26680.515    
 1.08704652E-06 3.62893164E-09 4.34650406E+08 4.34623111E+08  76.038107      27219.466    
 1.09432869E-06 3.65324201E-09 4.43628671E+08 4.43600811E+08  78.168397      27781.100    
 1.10165965E-06 3.67771524E-09 4.52409479E+08 4.52381075E+08  80.221711      28323.390    
 1.10903971E-06 3.70235243E-09 4.61628549E+08 4.61599579E+08  82.423806      28887.053    
 1.11646922E-06 3.72715465E-09 4.70962847E+08 4.70933286E+08  84.660428      29476.377    
 1.12394850E-06 3.75212303E-09 4.80287080E+08 4.80256912E+08  86.884980      30080.597    
 1.13147788E-06 3.77725867E-09 4.90275390E+08 4.90244578E+08  89.344084      30722.616    
 1.13905770E-06 3.80256270E-09 4.99979287E+08 4.99947858E+08  91.691240      31336.670    
 1.14668830E-06 3.82803623E-09 5.10095620E+08 5.10063557E+08  94.181620      31969.239    
 1.15437002E-06 3.85368042E-09 5.20481584E+08 5.20448877E+08  96.764384      32609.427    
 1.16210319E-06 3.87949640E-09 5.30781235E+08 5.30747896E+08  99.305515      33239.791    
 1.16988818E-06 3.90548532E-09 5.41752348E+08 5.41718310E+08  102.09088      33935.749    
 1.17772531E-06 3.93164835E-09 5.52546573E+08 5.52511832E+08  104.80051      34636.148    
 1.18561494E-06 3.95798663E-09 5.63646918E+08 5.63611462E+08  107.61664      35348.158    
 1.19355743E-06 3.98450137E-09 5.75202322E+08 5.75166132E+08  110.59876      36079.369    
 1.20155313E-06 4.01119372E-09 5.86584546E+08 5.86547642E+08  113.50354      36790.253    
 1.20960239E-06 4.03806489E-09 5.98624275E+08 5.98586626E+08  116.65418      37531.861    
 1.21770557E-06 4.06511607E-09 6.10635751E+08 6.10597364E+08  119.78394      38267.464    
 1.22586303E-06 4.09234846E-09 6.22815150E+08 6.22775983E+08  122.96809      39043.652    
 1.23407514E-06 4.11976329E-09 6.35670845E+08 6.35630839E+08  126.41092      39879.377    
 1.24234227E-06 4.14736177E-09 6.48249294E+08 6.48208480E+08  129.73139      40684.334    
 1.25066478E-06 4.17514513E-09 6.61461086E+08 6.61419432E+08  133.29486      41519.955    
 1.25904304E-06 4.20311462E-09 6.74826250E+08 6.74783760E+08  136.90945      42353.342    
 1.26747742E-06 4.23127147E-09 6.88188851E+08 6.88145534E+08  140.50934      43177.007    
 1.27596831E-06 4.25961695E-09 7.02490159E+08 7.02445962E+08  144.48360      44052.907    
 1.28451608E-06 4.28815232E-09 7.16390375E+08 7.16345281E+08  148.27925      44945.718    
 1.29312111E-06 4.31687884E-09 7.30887567E+08 7.30841529E+08  152.30924      45886.117    
 1.30178379E-06 4.34579781E-09 7.45757996E+08 7.45711002E+08  156.48325      46837.821    
 1.31050450E-06 4.37491051E-09 7.60511267E+08 7.60463337E+08  160.59258      47769.716    
 1.31928362E-06 4.40421823E-09 7.76232635E+08 7.76183721E+08  165.09983      48749.310    
 1.32812156E-06 4.43372228E-09 7.91687185E+08 7.91637316E+08  169.47876      49699.844    
 1.33701871E-06 4.46342399E-09 8.07593908E+08 8.07543055E+08  174.03590      50678.930    
 1.34597546E-06 4.49332467E-09 8.24138017E+08 8.24086092E+08  178.85533      51745.823    
 1.35499221E-06 4.52342565E-09 8.40441316E+08 8.40388332E+08  183.55273      52800.635    
 1.36406936E-06 4.55372829E-09 8.57693452E+08 8.57639358E+08  188.65108      53904.742    
 1.37320733E-06 4.58423392E-09 8.74890161E+08 8.74834978E+08  193.70900      54989.288    
 1.38240650E-06 4.61494391E-09 8.92342586E+08 8.92286311E+08  198.86171      56076.844    
 1.39166731E-06 4.64585962E-09 9.10747466E+08 9.10690055E+08  204.42572      57206.508    
 1.40099015E-06 4.67698245E-09 9.28763345E+08 9.28704812E+08  209.79533      58322.653    
 1.41037545E-06 4.70831376E-09 9.47694275E+08 9.47634515E+08  215.56174      59545.002    
 1.41982361E-06 4.73985497E-09 9.66828222E+08 9.66767217E+08  221.40320      60783.287    
 1.42933508E-06 4.77160747E-09 9.85975511E+08 9.85913277E+08  227.22872      62006.557    
 1.43891026E-06 4.80357269E-09 1.00644920E+09 1.00638567E+09  233.65161      63297.496    
 1.44854958E-06 4.83575204E-09 1.02635736E+09 1.02629258E+09  239.78962      64535.990    
 1.45825348E-06 4.86814696E-09 1.04712926E+09 1.04706320E+09  246.31100      65811.593    
 1.46802239E-06 4.90075889E-09 1.06841713E+09 1.06834974E+09  253.05656      67136.769    
 1.47785673E-06 4.93358930E-09 1.08954658E+09 1.08947781E+09  259.70182      68502.616    
 1.48775696E-06 4.96663964E-09 1.11207151E+09 1.11200128E+09  266.99536      69961.814    
 1.49772351E-06 4.99991138E-09 1.13419517E+09 1.13412352E+09  274.07192      71372.732    
 1.50775683E-06 5.03340601E-09 1.15698593E+09 1.15691283E+09  281.44636      72809.065    
 1.51785736E-06 5.06712502E-09 1.18066863E+09 1.18059406E+09  289.23503      74280.310    
 1.52802556E-06 5.10106992E-09 1.20401684E+09 1.20394083E+09  296.83124      75715.383    
 1.53826187E-06 5.13524222E-09 1.22873392E+09 1.22865636E+09  305.08131      77258.625    
 1.54856676E-06 5.16964344E-09 1.25335035E+09 1.25327118E+09  313.25520      78856.422    
 1.55894067E-06 5.20427512E-09 1.27835480E+09 1.27827400E+09  321.59344      80472.485    
 1.56938409E-06 5.23913879E-09 1.30470001E+09 1.30461753E+09  330.58546      82153.473    
 1.57989746E-06 5.27423602E-09 1.33049972E+09 1.33041560E+09  339.26870      83777.010    
 1.59048127E-06 5.30956836E-09 1.35762088E+09 1.35753507E+09  348.59985      85461.596    
 1.60113597E-06 5.34513740E-09 1.38500889E+09 1.38492139E+09  358.04004      87143.865    
 1.61186206E-06 5.38094472E-09 1.41244041E+09 1.41235118E+09  367.46707      88863.290    
 1.62265999E-06 5.41699191E-09 1.44174547E+09 1.44165432E+09  377.84718      90772.782    
 1.63353026E-06 5.45328058E-09 1.47025368E+09 1.47016068E+09  387.77299      92611.160    
 1.64447336E-06 5.48981235E-09 1.50001118E+09 1.49991627E+09  398.32585      94508.568    
 1.65548976E-06 5.52658885E-09 1.53048082E+09 1.53038399E+09  409.22718      96424.066    
 1.66657996E-06 5.56361172E-09 1.56073686E+09 1.56063813E+09  419.97324      98303.607    
 1.67774445E-06 5.60088261E-09 1.59300376E+09 1.59290305E+09  431.77538      100283.31    
 1.68898374E-06 5.63840317E-09 1.62466888E+09 1.62456615E+09  443.21134      102283.66    
 1.70029832E-06 5.67617509E-09 1.65731715E+09 1.65721229E+09  455.14468      104409.79    
 1.71168869E-06 5.71420004E-09 1.69121281E+09 1.69110574E+09  467.73181      106597.96    
 1.72315537E-06 5.75247973E-09 1.72464440E+09 1.72453519E+09  480.01562      108726.24    
 1.73469887E-06 5.79101585E-09 1.76005010E+09 1.75993866E+09  493.36563      110951.46    
 1.74631969E-06 5.82981012E-09 1.79528106E+09 1.79516742E+09  506.57498      113135.73    
 1.75801837E-06 5.86886429E-09 1.83109873E+09 1.83098288E+09  520.06800      115335.91    
 1.76979541E-06 5.90818007E-09 1.86880287E+09 1.86868461E+09  534.59991      117730.62    
 1.78165135E-06 5.94775924E-09 1.90574273E+09 1.90562204E+09  548.64152      120137.97    
 1.79358672E-06 5.98760354E-09 1.94459042E+09 1.94446721E+09  563.74095      122645.05    
 1.80560203E-06 6.02771477E-09 1.98378604E+09 1.98366033E+09  578.99678      125138.11    
 1.81769784E-06 6.06809470E-09 2.02307872E+09 2.02295052E+09  594.25175      127607.31    
 1.82987468E-06 6.10874514E-09 2.06501631E+09 2.06488549E+09  611.02701      130203.51    
 1.84213310E-06 6.14966790E-09 2.10583171E+09 2.10569837E+09  627.07792      132713.65    
 1.85447363E-06 6.19086481E-09 2.14845351E+09 2.14831743E+09  644.15436      135433.75    
 1.86689683E-06 6.23233769E-09 2.19205679E+09 2.19191784E+09  661.77155      138281.17    
 1.87940326E-06 6.27408840E-09 2.23537337E+09 2.23523162E+09  679.14885      141071.11    
 1.89199346E-06 6.31611880E-09 2.28158667E+09 2.28144196E+09  698.24646      144011.16    
 1.90466801E-06 6.35843077E-09 2.32689939E+09 2.32675182E+09  716.72718      146853.59    
 1.91742747E-06 6.40102618E-09 2.37365922E+09 2.37350873E+09  736.03754      149750.92    
 1.93027240E-06 6.44390694E-09 2.42216204E+09 2.42200854E+09  756.37917      152735.75    
 1.94320339E-06 6.48707497E-09 2.47002209E+09 2.46986550E+09  776.24310      155809.99    
 1.95622099E-06 6.53053217E-09 2.52072827E+09 2.52056835E+09  797.84546      159121.35    
 1.96932581E-06 6.57428050E-09 2.57114075E+09 2.57097756E+09  819.19211      162364.97    
 1.98251841E-06 6.61832191E-09 2.62243756E+09 2.62227109E+09  841.02642      165626.00    
 1.99579939E-06 6.66265834E-09 2.67638681E+09 2.67621693E+09  864.51104      169007.60    
 2.00916934E-06 6.70729179E-09 2.72926586E+09 2.72909269E+09  887.21740      172282.08    
 2.02262885E-06 6.75222424E-09 2.78489826E+09 2.78472163E+09  911.65067      175716.60    
 2.03617854E-06 6.79745770E-09 2.84098015E+09 2.84079987E+09  936.30459      179341.31    
 2.04981899E-06 6.84299417E-09 2.89725084E+09 2.89706687E+09  960.99018      183005.97    
 2.06355082E-06 6.88883570E-09 2.95725380E+09 2.95706594E+09  988.10031      186870.92    
 2.07737464E-06 6.93498432E-09 3.01567734E+09 3.01548575E+09  1014.0558      190578.75    
 2.09129106E-06 6.98144209E-09 3.07671130E+09 3.07651586E+09  1041.6883      194405.01    
 2.10530072E-06 7.02821109E-09 3.13909532E+09 3.13889599E+09  1070.1583      198260.70    
 2.11940422E-06 7.07529339E-09 3.20109647E+09 3.20089326E+09  1098.2586      202107.90    
 2.13360221E-06 7.12269110E-09 3.26726909E+09 3.26706156E+09  1129.1610      206400.51    
 2.14789530E-06 7.17040633E-09 3.33209740E+09 3.33188562E+09  1159.0259      210619.11    
 2.16228415E-06 7.21844121E-09 3.39905350E+09 3.39883739E+09  1190.2733      214926.95    
 2.17676939E-06 7.26679787E-09 3.46844294E+09 3.46822239E+09  1223.1464      219330.06    
 2.19135167E-06 7.31547848E-09 3.53694296E+09 3.53671808E+09  1255.2676      223622.53    
 2.20603163E-06 7.36448520E-09 3.60954436E+09 3.60931497E+09  1290.2231      228107.06    
 2.22080994E-06 7.41382021E-09 3.68166345E+09 3.68142952E+09  1324.7195      232611.28    
 2.23568724E-06 7.46348573E-09 3.75511185E+09 3.75487311E+09  1360.0512      237378.65    
 2.25066421E-06 7.51348396E-09 3.83228761E+09 3.83204380E+09  1398.0036      242410.24    
 2.26574151E-06 7.56381713E-09 3.90796625E+09 3.90771755E+09  1434.7211      247270.75    
 2.28091982E-06 7.61448748E-09 3.98761673E+09 3.98736293E+09  1474.2575      252324.95    
 2.29619980E-06 7.66549727E-09 4.06784051E+09 4.06758165E+09  1514.0986      257344.61    
 2.31158215E-06 7.71684879E-09 4.14840555E+09 4.14814167E+09  1554.0443      262328.23    
 2.32706754E-06 7.76854430E-09 4.23423452E+09 4.23396522E+09  1597.8559      267704.82    
 2.34265667E-06 7.82058613E-09 4.31784232E+09 4.31756753E+09  1639.8273      273154.52    
 2.35835023E-06 7.87297659E-09 4.40522108E+09 4.40494055E+09  1684.5406      278846.53    
 2.37414893E-06 7.92571802E-09 4.49445354E+09 4.49416723E+09  1730.5489      284577.77    
 2.39005346E-06 7.97881276E-09 4.58317735E+09 4.58288537E+09  1775.9884      290204.68    
 2.40606454E-06 8.03226319E-09 4.67790520E+09 4.67760724E+09  1825.9919      296128.11    
 2.42218287E-06 8.08607168E-09 4.77063058E+09 4.77032684E+09  1874.2529      301864.86    
 2.43840918E-06 8.14024064E-09 4.86648129E+09 4.86617147E+09  1924.8159      307892.59    
 2.45474420E-06 8.19477248E-09 4.96572628E+09 4.96540991E+09  1977.9396      314389.25    
 2.47118864E-06 8.24966963E-09 5.06374282E+09 5.06342003E+09  2029.8811      320760.74    
 2.48774324E-06 8.30493454E-09 5.16766733E+09 5.16733780E+09  2086.4430      327438.53    
 2.50440875E-06 8.36056967E-09 5.27081307E+09 5.27047696E+09  2142.1887      333971.24    
 2.52118589E-06 8.41657750E-09 5.37595088E+09 5.37560813E+09  2199.3608      340550.99    
 2.53807543E-06 8.47296053E-09 5.48632273E+09 5.48597310E+09  2260.6931      347371.29    
 2.55507811E-06 8.52972128E-09 5.59460252E+09 5.59424597E+09  2320.0667      354224.97    
 2.57219470E-06 8.58686227E-09 5.70860959E+09 5.70824550E+09  2384.0413      361703.82    
 2.58942595E-06 8.64438604E-09 5.82333747E+09 5.82296586E+09  2448.4242      369161.13    
 2.60677263E-06 8.70229518E-09 5.93865523E+09 5.93827615E+09  2513.0627      376563.56    
 2.62423551E-06 8.76059224E-09 6.06139246E+09 6.06100554E+09  2583.8638      384336.64    
 2.64181539E-06 8.81927985E-09 6.18100749E+09 6.18061302E+09  2651.7329      391814.68    
 2.65951303E-06 8.87836060E-09 6.30606698E+09 6.30566471E+09  2724.0844      399547.16    
 2.67732922E-06 8.93783714E-09 6.43366683E+09 6.43325635E+09  2798.4337      407678.86    
 2.69526477E-06 8.99771211E-09 6.56059570E+09 6.56017683E+09  2871.9108      416007.02    
 2.71332047E-06 9.05798819E-09 6.69616283E+09 6.69573505E+09  2952.8207      424831.97    
 2.73149713E-06 9.11866806E-09 6.82875345E+09 6.82831709E+09  3030.8085      433330.70    
 2.74979555E-06 9.17975443E-09 6.96592899E+09 6.96548386E+09  3112.6257      442019.89    
 2.76821656E-06 9.24125002E-09 7.10783345E+09 7.10737938E+09  3198.4737      450880.50    
 2.78676096E-06 9.30315757E-09 7.24804412E+09 7.24758128E+09  3282.4643      459558.27    
 2.80542960E-06 9.36547984E-09 7.39676130E+09 7.39628884E+09  3373.9866      469088.64    
 2.82422330E-06 9.42821962E-09 7.54423899E+09 7.54375673E+09  3464.0695      478788.31    
 2.84314290E-06 9.49137968E-09 7.69469484E+09 7.69420272E+09  3556.5814      488566.80    
 2.86218924E-06 9.55496287E-09 7.85249517E+09 7.85199283E+09  3655.6949      498688.78    
 2.88136318E-06 9.61897199E-09 8.00737430E+09 8.00686206E+09  3751.7030      508491.45    
 2.90066556E-06 9.68340992E-09 8.17050675E+09 8.16998422E+09  3855.2197      518679.69    
 2.92009725E-06 9.74827952E-09 8.33452827E+09 8.33399547E+09  3959.2605      528849.43    
 2.93965911E-06 9.81358368E-09 8.49953911E+09 8.49899557E+09  4063.8542      539480.98    
 2.95935202E-06 9.87932532E-09 8.67500160E+09 8.67444638E+09  4178.2697      551042.68    
 2.97917685E-06 9.94550737E-09 8.84607931E+09 8.84551288E+09  4288.0146      562142.40    
 2.99913449E-06 1.00121328E-08 9.02501350E+09 9.02443547E+09  4405.0863      573620.01    
 3.01922583E-06 1.00792045E-08 9.20742020E+09 9.20683052E+09  4525.2328      585156.31    
 3.03945176E-06 1.01467255E-08 9.38894767E+09 9.38834652E+09  4644.0456      596504.48    
 3.05981319E-06 1.02146989E-08 9.58289680E+09 9.58228348E+09  4774.9627      608549.58    
 3.08031101E-06 1.02831276E-08 9.77243142E+09 9.77180566E+09  4900.9856      620859.86    
 3.10094616E-06 1.03520148E-08 9.96868521E+09 9.96804641E+09  5033.3740      633765.48    
 3.12171953E-06 1.04213634E-08 1.01715208E+10 1.01708687E+10  5172.1025      646941.57    
 3.14263207E-06 1.04911766E-08 1.03720254E+10 1.03713603E+10  5307.9149      659791.42    
 3.16368471E-06 1.05614574E-08 1.05847701E+10 1.05840914E+10  5456.0038      673248.43    
 3.18487837E-06 1.06322091E-08 1.07955628E+10 1.07948708E+10  5601.5721      686405.89    
 3.20621402E-06 1.07034348E-08 1.10107974E+10 1.10100918E+10  5751.2659      699839.86    
 3.22769259E-06 1.07751376E-08 1.12363302E+10 1.12356098E+10  5911.4314      714560.07    
 3.24931505E-06 1.08473207E-08 1.14577895E+10 1.14570543E+10  6066.6755      729103.43    
 3.27108236E-06 1.09199874E-08 1.16911362E+10 1.16903857E+10  6234.1724      744267.84    
 3.29299549E-06 1.09931409E-08 1.19255517E+10 1.19247860E+10  6402.2962      759282.50    
 3.31505541E-06 1.10667844E-08 1.21615879E+10 1.21608071E+10  6571.5398      774221.71    
 3.33726312E-06 1.11409213E-08 1.24123355E+10 1.24115389E+10  6756.4335      789855.48    
 3.35961959E-06 1.12155548E-08 1.26569311E+10 1.26561189E+10  6933.8891      805223.07    
 3.38212584E-06 1.12906884E-08 1.29128575E+10 1.29120285E+10  7123.3190      821961.53    
 3.40478285E-06 1.13663252E-08 1.31735200E+10 1.31726736E+10  7317.4692      839107.11    
 3.42759164E-06 1.14424687E-08 1.34330413E+10 1.34321779E+10  7509.5866      855951.20    
 3.45055323E-06 1.15191223E-08 1.37104144E+10 1.37095329E+10  7721.4147      873729.81    
 3.47366865E-06 1.15962894E-08 1.39812511E+10 1.39803523E+10  7925.0555      890851.66    
 3.49693891E-06 1.16739735E-08 1.42619223E+10 1.42610058E+10  8139.2692      908376.34    
 3.52036506E-06 1.17521780E-08 1.45517436E+10 1.45508085E+10  8363.4474      926664.82    
 3.54394814E-06 1.18309064E-08 1.48383647E+10 1.48374107E+10  8583.0518      945467.95    
 3.56768921E-06 1.19101621E-08 1.51425890E+10 1.51416147E+10  8822.6645      965508.00    
 3.59158932E-06 1.19899488E-08 1.54437689E+10 1.54427748E+10  9057.8894      985042.67    
 3.61564954E-06 1.20702701E-08 1.57515577E+10 1.57505436E+10  9300.1048      1004770.9    
 3.63987094E-06 1.21511293E-08 1.60737715E+10 1.60727368E+10  9558.9246      1025133.9    
 3.66425460E-06 1.22325303E-08 1.63903109E+10 1.63892562E+10  9809.9480      1044920.9    
 3.68880161E-06 1.23144766E-08 1.67239617E+10 1.67228855E+10  10080.964      1066046.2    
 3.71351306E-06 1.23969718E-08 1.70588531E+10 1.70577546E+10  10352.637      1088141.6    
 3.73839005E-06 1.24800197E-08 1.73963559E+10 1.73952349E+10  10626.486      1110332.8    
 3.76343369E-06 1.25636239E-08 1.77545509E+10 1.77534064E+10  10925.265      1133602.3    
 3.78864510E-06 1.26477882E-08 1.81041216E+10 1.81029544E+10  11212.202      1155987.0    
 3.81402541E-06 1.27325163E-08 1.84700206E+10 1.84688299E+10  11518.707      1179128.3    
 3.83957574E-06 1.28178120E-08 1.88423605E+10 1.88411463E+10  11832.437      1202395.7    
 3.86529723E-06 1.29036791E-08 1.92132363E+10 1.92119981E+10  12143.080      1225986.6    
 3.89119103E-06 1.29901214E-08 1.96097525E+10 1.96084878E+10  12485.818      1252284.4    
 3.91725829E-06 1.30771428E-08 1.99966115E+10 1.99953210E+10  12814.875      1277690.2    
 3.94350018E-06 1.31647472E-08 2.03978481E+10 2.03965312E+10  13161.481      1303748.7    
 3.96991787E-06 1.32529384E-08 2.08117875E+10 2.08104437E+10  13523.734      1330262.5    
 3.99651253E-06 1.33417205E-08 2.12213412E+10 2.12199712E+10  13878.820      1356176.2    
 4.02328535E-06 1.34310972E-08 2.16561928E+10 2.16547952E+10  14266.514      1383342.2    
 4.05023752E-06 1.35210728E-08 2.20863355E+10 2.20849099E+10  14646.608      1410941.9    
 4.07737024E-06 1.36116511E-08 2.25262908E+10 2.25248357E+10  15038.522      1440127.2    
 4.10468473E-06 1.37028361E-08 2.29864338E+10 2.29849479E+10  15456.753      1470419.7    
 4.13218219E-06 1.37946320E-08 2.34386837E+10 2.34371680E+10  15862.639      1499761.9    
