 OPTXAGNF AGN Spectrum Model Parameters: NLS, Astar 0.0                          
 M_BH:  3.0000E+08 M_0            L  :   1.000     L/Ledd 
 D   :  1.5000E+18 cm             z  :   0.000     redshift 
 Rcor:   40.00     Rg             Ro :   4.000     Rg 
 C_T :  0.2000     keV            Tau:   15.00     Optical Depth 
 gam :   2.200     (-slope)       fpl:  0.2000     Fraction 
 E              0.5DeltaE      E.FE total     E.FE Disk      E.FE Compton   E.FE NonThermal
 (keV)          (keV)          E.E/cm2/s/E    E.E/cm2/s/E    E.E/cm2/s/E    E.E/cm2/s/E    
 1.00334952E-06 3.34952256E-09 5.12379737E+08 5.12368055E+08  15.503548      11667.294    
 1.01007101E-06 3.37196116E-09 5.22530369E+08 5.22518446E+08  15.910864      11907.153    
 1.01683752E-06 3.39455008E-09 5.33108402E+08 5.33096218E+08  16.342745      12167.650    
 1.02364936E-06 3.41729032E-09 5.43978297E+08 5.43965843E+08  16.791234      12437.025    
 1.03050683E-06 3.44018290E-09 5.54752932E+08 5.54740215E+08  17.232215      12699.651    
 1.03741024E-06 3.46322884E-09 5.66226177E+08 5.66213183E+08  17.715265      12976.892    
 1.04435990E-06 3.48642917E-09 5.77523824E+08 5.77510561E+08  18.185797      13245.238    
 1.05135611E-06 3.50978492E-09 5.89132037E+08 5.89118500E+08  18.674168      13517.782    
 1.05839920E-06 3.53329712E-09 6.01227511E+08 6.01213687E+08  19.192006      13805.224    
 1.06548946E-06 3.55696684E-09 6.13136162E+08 6.13122043E+08  19.696099      14098.612    
 1.07262722E-06 3.58079512E-09 6.25728417E+08 6.25713986E+08  20.242496      14410.648    
 1.07981280E-06 3.60478303E-09 6.38301913E+08 6.38287175E+08  20.785986      14716.993    
 1.08704652E-06 3.62893164E-09 6.51040018E+08 6.51024973E+08  21.338181      15023.440    
 1.09432869E-06 3.65324201E-09 6.64498472E+08 6.64483107E+08  21.936021      15343.444    
 1.10165965E-06 3.67771524E-09 6.77660386E+08 6.77644712E+08  22.512258      15651.988    
 1.10903971E-06 3.70235243E-09 6.91480100E+08 6.91464096E+08  23.130251      15980.863    
 1.11646922E-06 3.72715465E-09 7.05472659E+08 7.05456308E+08  23.757933      16327.600    
 1.12394850E-06 3.75212303E-09 7.19449926E+08 7.19433230E+08  24.382229      16671.957    
 1.13147788E-06 3.77725867E-09 7.34424077E+08 7.34407014E+08  25.072352      17037.683    
 1.13905770E-06 3.80256270E-09 7.48971074E+08 7.48953662E+08  25.731057      17386.630    
 1.14668830E-06 3.82803623E-09 7.64137163E+08 7.64119390E+08  26.429958      17746.496    
 1.15437002E-06 3.85368042E-09 7.79707963E+08 7.79689824E+08  27.154787      18111.519    
 1.16210319E-06 3.87949640E-09 7.95149002E+08 7.95130494E+08  27.867933      18479.697    
 1.16988818E-06 3.90548532E-09 8.11598118E+08 8.11579200E+08  28.649625      18889.062    
 1.17772531E-06 3.93164835E-09 8.27781423E+08 8.27762106E+08  29.410060      19287.145    
 1.18561494E-06 3.95798663E-09 8.44424238E+08 8.44404516E+08  30.200384      19691.969    
 1.19355743E-06 3.98450137E-09 8.61750271E+08 8.61730132E+08  31.037296      20108.041    
 1.20155313E-06 4.01119372E-09 8.78816042E+08 8.78795498E+08  31.852504      20511.979    
 1.20960239E-06 4.03806489E-09 8.96869089E+08 8.96848122E+08  32.736713      20934.716    
 1.21770557E-06 4.06511607E-09 9.14879540E+08 9.14858139E+08  33.615062      21367.503    
 1.22586303E-06 4.09234846E-09 9.33141944E+08 9.33120089E+08  34.508677      21820.694    
 1.23407514E-06 4.11976329E-09 9.52419910E+08 9.52397578E+08  35.474891      22296.172    
 1.24234227E-06 4.14736177E-09 9.71281246E+08 9.71258456E+08  36.406768      22753.523    
 1.25066478E-06 4.17514513E-09 9.91093689E+08 9.91070423E+08  37.406842      23228.751    
 1.25904304E-06 4.20311462E-09 1.01113632E+09 1.01111258E+09  38.421264      23702.575    
 1.26747742E-06 4.23127147E-09 1.03117486E+09 1.03115065E+09  39.431564      24170.764    
 1.27596831E-06 4.25961695E-09 1.05262335E+09 1.05259862E+09  40.546931      24689.600    
 1.28451608E-06 4.28815232E-09 1.07346901E+09 1.07344376E+09  41.612173      25207.366    
 1.29312111E-06 4.31687884E-09 1.09521123E+09 1.09518545E+09  42.743184      25742.204    
 1.30178379E-06 4.34579781E-09 1.11751398E+09 1.11748765E+09  43.914617      26283.279    
 1.31050450E-06 4.37491051E-09 1.13964043E+09 1.13961357E+09  45.067897      26812.719    
 1.31928362E-06 4.40421823E-09 1.16322118E+09 1.16319377E+09  46.332862      27369.869    
 1.32812156E-06 4.43372228E-09 1.18640079E+09 1.18637283E+09  47.561810      27912.472    
 1.33701871E-06 4.46342399E-09 1.21025953E+09 1.21023099E+09  48.840775      28491.252    
 1.34597546E-06 4.49332467E-09 1.23507571E+09 1.23504655E+09  50.193358      29108.829    
 1.35499221E-06 4.52342565E-09 1.25952971E+09 1.25949995E+09  51.511691      29708.292    
 1.36406936E-06 4.55372829E-09 1.28540927E+09 1.28537888E+09  52.942559      30335.985    
 1.37320733E-06 4.58423392E-09 1.31120526E+09 1.31117425E+09  54.362079      30952.275    
 1.38240650E-06 4.61494391E-09 1.33738520E+09 1.33735358E+09  55.808205      31570.220    
 1.39166731E-06 4.64585962E-09 1.36499633E+09 1.36496405E+09  57.369772      32217.577    
 1.40099015E-06 4.67698245E-09 1.39202246E+09 1.39198952E+09  58.876777      32877.047    
 1.41037545E-06 4.70831376E-09 1.42042352E+09 1.42038988E+09  60.495152      33582.693    
 1.41982361E-06 4.73985497E-09 1.44912938E+09 1.44909503E+09  62.134592      34286.334    
 1.42933508E-06 4.77160747E-09 1.47785490E+09 1.47781986E+09  63.769558      34981.254    
 1.43891026E-06 4.80357269E-09 1.50857394E+09 1.50853816E+09  65.572191      35715.105    
 1.44854958E-06 4.83575204E-09 1.53844248E+09 1.53840599E+09  67.294868      36418.661    
 1.45825348E-06 4.86814696E-09 1.56960907E+09 1.56957185E+09  69.125144      37151.116    
 1.46802239E-06 4.90075889E-09 1.60155101E+09 1.60151300E+09  71.018346      37935.001    
 1.47785673E-06 4.93358930E-09 1.63325423E+09 1.63321544E+09  72.883395      38720.012    
 1.48775696E-06 4.96663964E-09 1.66705514E+09 1.66701551E+09  74.930404      39549.272    
 1.49772351E-06 4.99991138E-09 1.70025230E+09 1.70021187E+09  76.916510      40350.791    
 1.50775683E-06 5.03340601E-09 1.73445204E+09 1.73441079E+09  78.986225      41166.831    
 1.51785736E-06 5.06712502E-09 1.76999257E+09 1.76995049E+09  81.172207      42002.854    
 1.52802556E-06 5.10106992E-09 1.80502962E+09 1.80498671E+09  83.304171      42829.474    
 1.53826187E-06 5.13524222E-09 1.84212470E+09 1.84208087E+09  85.619661      43742.287    
 1.54856676E-06 5.16964344E-09 1.87906784E+09 1.87902310E+09  87.913768      44657.235    
 1.55894067E-06 5.20427512E-09 1.91659396E+09 1.91654830E+09  90.254008      45575.263    
 1.56938409E-06 5.23913879E-09 1.95613611E+09 1.95608949E+09  92.777753      46530.356    
 1.57989746E-06 5.27423602E-09 1.99485724E+09 1.99480970E+09  95.214830      47452.579    
 1.59048127E-06 5.30956836E-09 2.03556544E+09 2.03551693E+09  97.833765      48409.656    
 1.60113597E-06 5.34513740E-09 2.07667451E+09 2.07662502E+09  100.48331      49383.937    
 1.61186206E-06 5.38094472E-09 2.11784835E+09 2.11779785E+09  103.12916      50397.717    
 1.62265999E-06 5.41699191E-09 2.16183993E+09 2.16178833E+09  106.04252      51489.535    
 1.63353026E-06 5.45328058E-09 2.20463213E+09 2.20457948E+09  108.82837      52533.767    
 1.64447336E-06 5.48981235E-09 2.24930314E+09 2.24924942E+09  111.79023      53611.601    
 1.65548976E-06 5.52658885E-09 2.29504500E+09 2.29499019E+09  114.84990      54699.721    
 1.66657996E-06 5.56361172E-09 2.34046474E+09 2.34040885E+09  117.86599      55767.629    
 1.67774445E-06 5.60088261E-09 2.38890952E+09 2.38885248E+09  121.17851      56918.071    
 1.68898374E-06 5.63840317E-09 2.43644803E+09 2.43638982E+09  124.38825      58094.872    
 1.70029832E-06 5.67617509E-09 2.48546509E+09 2.48540566E+09  127.73760      59307.843    
 1.71168869E-06 5.71420004E-09 2.53635858E+09 2.53629790E+09  131.27046      60550.740    
 1.72315537E-06 5.75247973E-09 2.58655290E+09 2.58649100E+09  134.71819      61759.622    
 1.73469887E-06 5.79101585E-09 2.63971747E+09 2.63965430E+09  138.46520      63023.561    
 1.74631969E-06 5.82981012E-09 2.69261829E+09 2.69255388E+09  142.17272      64266.032    
 1.75801837E-06 5.86886429E-09 2.74640129E+09 2.74633560E+09  145.95987      65546.828    
 1.76979541E-06 5.90818007E-09 2.80302297E+09 2.80295587E+09  150.03863      66955.280    
 1.78165135E-06 5.94775924E-09 2.85849319E+09 2.85842471E+09  153.97977      68324.106    
 1.79358672E-06 5.98760354E-09 2.91683442E+09 2.91676451E+09  158.21784      69748.017    
 1.80560203E-06 6.02771477E-09 2.97569859E+09 2.97562726E+09  162.49981      71164.003    
 1.81769784E-06 6.06809470E-09 3.03470783E+09 3.03463509E+09  166.78154      72566.497    
 1.82987468E-06 6.10874514E-09 3.09769829E+09 3.09762407E+09  171.49002      74043.061    
 1.84213310E-06 6.14966790E-09 3.15899820E+09 3.15892251E+09  175.99518      75513.043    
 1.85447363E-06 6.19086481E-09 3.22301680E+09 3.22293952E+09  180.78820      77106.498    
 1.86689683E-06 6.23233769E-09 3.28851222E+09 3.28843331E+09  185.73302      78723.615    
 1.87940326E-06 6.27408840E-09 3.35357473E+09 3.35349423E+09  190.61051      80308.287    
 1.89199346E-06 6.31611880E-09 3.42299850E+09 3.42291633E+09  195.97089      81977.869    
 1.90466801E-06 6.35843077E-09 3.49106490E+09 3.49098111E+09  201.15811      83592.313    
 1.91742747E-06 6.40102618E-09 3.56130951E+09 3.56122406E+09  206.57822      85238.420    
 1.93027240E-06 6.44390694E-09 3.63417831E+09 3.63409110E+09  212.28781      86996.483    
 1.94320339E-06 6.48707497E-09 3.70607747E+09 3.70598847E+09  217.86332      88786.872    
 1.95622099E-06 6.53053217E-09 3.78226247E+09 3.78217158E+09  223.92682      90668.403    
 1.96932581E-06 6.57428050E-09 3.85800381E+09 3.85791107E+09  229.91854      92510.604    
 1.98251841E-06 6.61832191E-09 3.93507592E+09 3.93498132E+09  236.04715      94362.722    
 1.99579939E-06 6.66265834E-09 4.01614288E+09 4.01604636E+09  242.63903      96282.938    
 2.00916934E-06 6.70729179E-09 4.09559599E+09 4.09549759E+09  249.01245      98147.498    
 2.02262885E-06 6.75222424E-09 4.17919622E+09 4.17909579E+09  255.87064      100174.42    
 2.03617854E-06 6.79745770E-09 4.26347215E+09 4.26336961E+09  262.79076      102275.17    
 2.04981899E-06 6.84299417E-09 4.34803076E+09 4.34792613E+09  269.71978      104358.22    
 2.06355082E-06 6.88883570E-09 4.43821242E+09 4.43810559E+09  277.32942      106552.64    
 2.07737464E-06 6.93498432E-09 4.52601221E+09 4.52590326E+09  284.61493      108658.65    
 2.09129106E-06 6.98144209E-09 4.61774453E+09 4.61763340E+09  292.37119      110831.49    
 2.10530072E-06 7.02821109E-09 4.71151016E+09 4.71139682E+09  300.36261      113034.68    
 2.11940422E-06 7.07529339E-09 4.80469677E+09 4.80458116E+09  308.25021      115304.96    
 2.13360221E-06 7.12269110E-09 4.90416958E+09 4.90405147E+09  316.92443      117787.01    
 2.14789530E-06 7.17040633E-09 5.00161397E+09 5.00149346E+09  325.30740      120183.04    
 2.16228415E-06 7.21844121E-09 5.10226410E+09 5.10214113E+09  334.07848      122629.44    
 2.17676939E-06 7.26679787E-09 5.20658114E+09 5.20645567E+09  343.30591      125129.59    
 2.19135167E-06 7.31547848E-09 5.30955501E+09 5.30942709E+09  352.32231      127567.67    
 2.20603163E-06 7.36448520E-09 5.41871120E+09 5.41858070E+09  362.13436      130136.26    
 2.22080994E-06 7.41382021E-09 5.52713806E+09 5.52700489E+09  371.81752      132796.54    
 2.23568724E-06 7.46348573E-09 5.63756689E+09 5.63743097E+09  381.73519      135544.44    
 2.25066421E-06 7.51348396E-09 5.75361489E+09 5.75347610E+09  392.38858      138401.13    
 2.26574151E-06 7.56381713E-09 5.86740259E+09 5.86726102E+09  402.69530      141161.86    
 2.28091982E-06 7.61448748E-09 5.98717862E+09 5.98703418E+09  413.79337      144031.65    
 2.29619980E-06 7.66549727E-09 6.10781719E+09 6.10766988E+09  424.97699      146882.21    
 2.31158215E-06 7.71684879E-09 6.22896780E+09 6.22881762E+09  436.18997      149742.81    
 2.32706754E-06 7.76854430E-09 6.35805720E+09 6.35790382E+09  448.48825      152924.35    
 2.34265667E-06 7.82058613E-09 6.48379260E+09 6.48363609E+09  460.26994      156049.83    
 2.35835023E-06 7.87297659E-09 6.61521458E+09 6.61505482E+09  472.82137      159281.93    
 2.37414893E-06 7.92571802E-09 6.74943103E+09 6.74926801E+09  485.73636      162536.28    
 2.39005346E-06 7.97881276E-09 6.88287682E+09 6.88271059E+09  498.49171      165732.34    
 2.40606454E-06 8.03226319E-09 7.02538043E+09 7.02521082E+09  512.52832      169095.05    
 2.42218287E-06 8.08607168E-09 7.16485913E+09 7.16468620E+09  526.07577      172406.01    
 2.43840918E-06 8.14024064E-09 7.30905135E+09 7.30887485E+09  540.26947      175964.59    
 2.45474420E-06 8.19477248E-09 7.45836350E+09 7.45818327E+09  555.18209      179682.39    
 2.47118864E-06 8.24966963E-09 7.60581782E+09 7.60563395E+09  569.76283      183301.40    
 2.48774324E-06 8.30493454E-09 7.76218736E+09 7.76199968E+09  585.64074      187092.54    
 2.50440875E-06 8.36056967E-09 7.91737798E+09 7.91718658E+09  601.28949      190802.61    
 2.52118589E-06 8.41657750E-09 8.07557230E+09 8.07537714E+09  617.33873      194539.40    
 2.53807543E-06 8.47296053E-09 8.24166617E+09 8.24146704E+09  634.55594      198490.36    
 2.55507811E-06 8.52972128E-09 8.40459706E+09 8.40439388E+09  651.22327      202529.08    
 2.57219470E-06 8.58686227E-09 8.57617231E+09 8.57596484E+09  669.18231      206800.20    
 2.58942595E-06 8.64438604E-09 8.74883239E+09 8.74862067E+09  687.25602      211034.98    
 2.60677263E-06 8.70229518E-09 8.92237890E+09 8.92216296E+09  705.40149      215239.40    
 2.62423551E-06 8.76059224E-09 9.10712808E+09 9.10690770E+09  725.27715      219651.89    
 2.64181539E-06 8.81927985E-09 9.28715689E+09 9.28693225E+09  744.32967      223903.26    
 2.65951303E-06 8.87836060E-09 9.47540568E+09 9.47517653E+09  764.64064      228393.10    
 2.67732922E-06 8.93783714E-09 9.66748787E+09 9.66725390E+09  785.51253      233180.36    
 2.69526477E-06 8.99771211E-09 9.85855078E+09 9.85831205E+09  806.13955      237924.50    
 2.71332047E-06 9.05798819E-09 1.00626612E+10 1.00624174E+10  828.85342      242933.98    
 2.73149713E-06 9.11866806E-09 1.02622693E+10 1.02620207E+10  850.74688      247761.14    
 2.74979555E-06 9.17975443E-09 1.04688005E+10 1.04685469E+10  873.71551      252695.46    
 2.76821656E-06 9.24125002E-09 1.06824738E+10 1.06822152E+10  897.81589      257731.95    
 2.78676096E-06 9.30315757E-09 1.08935816E+10 1.08933178E+10  921.39476      262792.36    
 2.80542960E-06 9.36547984E-09 1.11175414E+10 1.11172721E+10  947.08830      268394.74    
 2.82422330E-06 9.42821962E-09 1.13396218E+10 1.13393469E+10  972.37774      273903.52    
 2.84314290E-06 9.49137968E-09 1.15661981E+10 1.15659177E+10  998.34916      279457.02    
 2.86218924E-06 9.55496287E-09 1.18038730E+10 1.18035867E+10  1026.1741      285203.31    
 2.88136318E-06 9.61897199E-09 1.20371247E+10 1.20368329E+10  1053.1272      290771.43    
 2.90066556E-06 9.68340992E-09 1.22828501E+10 1.22825524E+10  1082.1886      296557.57    
 2.92009725E-06 9.74827952E-09 1.25299141E+10 1.25296104E+10  1111.3971      302523.74    
 2.93965911E-06 9.81358368E-09 1.27784665E+10 1.27781566E+10  1140.7608      308742.50    
 2.95935202E-06 9.87932532E-09 1.30428199E+10 1.30425034E+10  1172.8823      315310.46    
 2.97917685E-06 9.94550737E-09 1.33005342E+10 1.33002114E+10  1203.6925      321615.47    
 2.99913449E-06 1.00121328E-08 1.35701254E+10 1.35697961E+10  1236.5599      328132.61    
 3.01922583E-06 1.00792045E-08 1.38449633E+10 1.38446274E+10  1270.2906      334683.19    
 3.03945176E-06 1.01467255E-08 1.41184627E+10 1.41181202E+10  1303.6469      341131.90    
 3.05981319E-06 1.02146989E-08 1.44107501E+10 1.44104005E+10  1340.4019      348231.58    
 3.08031101E-06 1.02831276E-08 1.46963490E+10 1.46959922E+10  1375.7827      355384.29    
 3.10094616E-06 1.03520148E-08 1.49921069E+10 1.49917428E+10  1412.9509      362721.47    
 3.12171953E-06 1.04213634E-08 1.52978185E+10 1.52974468E+10  1451.8994      370202.42    
 3.14263207E-06 1.04911766E-08 1.55999927E+10 1.55996137E+10  1490.0290      377501.66    
 3.16368471E-06 1.05614574E-08 1.59206866E+10 1.59202999E+10  1531.6058      385141.18    
 3.18487837E-06 1.06322091E-08 1.62384169E+10 1.62380226E+10  1572.4749      392647.53    
 3.20621402E-06 1.07034348E-08 1.65628618E+10 1.65624596E+10  1614.5024      400565.62    
 3.22769259E-06 1.07751376E-08 1.69028899E+10 1.69024792E+10  1659.4704      409094.80    
 3.24931505E-06 1.08473207E-08 1.72367391E+10 1.72363200E+10  1703.0565      417359.98    
 3.27108236E-06 1.09199874E-08 1.75885801E+10 1.75881524E+10  1750.0832      425969.72    
 3.29299549E-06 1.09931409E-08 1.79420302E+10 1.79415939E+10  1797.2860      434496.54    
 3.31505541E-06 1.10667844E-08 1.82979232E+10 1.82974784E+10  1844.8032      442982.17    
 3.33726312E-06 1.11409213E-08 1.86760912E+10 1.86756374E+10  1896.7151      451920.58    
 3.35961959E-06 1.12155548E-08 1.90449280E+10 1.90444650E+10  1946.5383      460988.31    
 3.38212584E-06 1.12906884E-08 1.94309186E+10 1.94304460E+10  1999.7241      470662.74    
 3.40478285E-06 1.13663252E-08 1.98240740E+10 1.98235915E+10  2054.2354      480398.78    
 3.42759164E-06 1.14424687E-08 2.02154865E+10 2.02149945E+10  2108.1759      489967.33    
 3.45055323E-06 1.15191223E-08 2.06339418E+10 2.06334395E+10  2167.6514      500059.23    
 3.47366865E-06 1.15962894E-08 2.10424778E+10 2.10419658E+10  2224.8279      509785.13    
 3.49693891E-06 1.16739735E-08 2.14659066E+10 2.14653845E+10  2284.9735      519828.25    
 3.52036506E-06 1.17521780E-08 2.19031935E+10 2.19026605E+10  2347.9172      530636.22    
 3.54394814E-06 1.18309064E-08 2.23356128E+10 2.23350689E+10  2409.5767      541459.29    
 3.56768921E-06 1.19101621E-08 2.27947079E+10 2.27941526E+10  2476.8549      552836.19    
 3.59158932E-06 1.19899488E-08 2.32491727E+10 2.32486063E+10  2542.9009      563931.67    
 3.61564954E-06 1.20702701E-08 2.37136433E+10 2.37130655E+10  2610.9101      575136.63    
 3.63987094E-06 1.21511293E-08 2.41999776E+10 2.41993883E+10  2683.5823      586697.37    
 3.66425460E-06 1.22325303E-08 2.46776886E+10 2.46770878E+10  2754.0651      598079.69    
 3.68880161E-06 1.23144766E-08 2.51813401E+10 2.51807267E+10  2830.1624      610568.21    
 3.71351306E-06 1.23969718E-08 2.56868567E+10 2.56862306E+10  2906.4443      623234.73    
 3.73839005E-06 1.24800197E-08 2.61963158E+10 2.61956770E+10  2983.3373      635840.40    
 3.76343369E-06 1.25636239E-08 2.67371580E+10 2.67365059E+10  3067.2317      649049.93    
 3.78864510E-06 1.26477882E-08 2.72648935E+10 2.72642286E+10  3147.8005      661766.55    
 3.81402541E-06 1.27325163E-08 2.78173916E+10 2.78167135E+10  3233.8645      674907.25    
 3.83957574E-06 1.28178120E-08 2.83796488E+10 2.83789572E+10  3321.9577      688350.09    
 3.86529723E-06 1.29036791E-08 2.89396609E+10 2.89389552E+10  3409.1843      702278.90    
 3.89119103E-06 1.29901214E-08 2.95385808E+10 2.95378599E+10  3505.4243      717315.78    
 3.91725829E-06 1.30771428E-08 3.01228166E+10 3.01220812E+10  3597.8224      731748.56    
 3.94350018E-06 1.31647472E-08 3.07288622E+10 3.07281120E+10  3695.1489      746547.82    
 3.96991787E-06 1.32529384E-08 3.13541794E+10 3.13534140E+10  3796.8700      761602.86    
 3.99651253E-06 1.33417205E-08 3.19728112E+10 3.19720309E+10  3896.5784      776329.43    
 4.02328535E-06 1.34310972E-08 3.26298493E+10 3.26290532E+10  4005.4447      792066.73    
 4.05023752E-06 1.35210728E-08 3.32797101E+10 3.32788976E+10  4112.1766      808341.35    
 4.07737024E-06 1.36116511E-08 3.39444513E+10 3.39436221E+10  4222.2284      824995.67    
 4.10468473E-06 1.37028361E-08 3.46398455E+10 3.46389989E+10  4339.6717      842194.73    
 4.13218219E-06 1.37946320E-08 3.53232174E+10 3.53223541E+10  4453.6479      858864.81    
