 OPTXAGNF AGN Spectrum Model Parameters: BLS, Astar 0.0                          
 M_BH:  3.0000E+08 M_0            L  :  0.3000     L/Ledd 
 D   :  1.5000E+18 cm             z  :   0.000     redshift 
 Rcor:   60.00     Rg             Ro :   4.000     Rg 
 C_T :  0.2000     keV            Tau:   15.00     Optical Depth 
 gam :   1.800     (-slope)       fpl:  0.5000     Fraction 
 E              0.5DeltaE      E.FE total     E.FE Disk      E.FE Compton   E.FE NonThermal
 (keV)          (keV)          E.E/cm2/s/E    E.E/cm2/s/E    E.E/cm2/s/E    E.E/cm2/s/E    
 1.00334952E-06 3.34952256E-09 3.75593521E+08 3.75564355E+08  146.54459      29019.807    
 1.01007101E-06 3.37196116E-09 3.83030858E+08 3.83001116E+08  150.39446      29591.936    
 1.01683752E-06 3.39455008E-09 3.90781080E+08 3.90750744E+08  154.47647      30180.702    
 1.02364936E-06 3.41729032E-09 3.98744973E+08 3.98714033E+08  158.71547      30781.632    
 1.03050683E-06 3.44018290E-09 4.06639226E+08 4.06607661E+08  162.88349      31403.047    
 1.03741024E-06 3.46322884E-09 4.15044881E+08 4.15012637E+08  167.44911      32076.492    
 1.04435990E-06 3.48642917E-09 4.23322056E+08 4.23289155E+08  171.89642      32729.303    
 1.05135611E-06 3.50978492E-09 4.31826592E+08 4.31793023E+08  176.51233      33392.166    
 1.05839920E-06 3.53329712E-09 4.40687790E+08 4.40653536E+08  181.40673      34073.121    
 1.06548946E-06 3.55696684E-09 4.49412303E+08 4.49377381E+08  186.17122      34735.508    
 1.07262722E-06 3.58079512E-09 4.58637174E+08 4.58601550E+08  191.33552      35433.261    
 1.07981280E-06 3.60478303E-09 4.67848412E+08 4.67812053E+08  196.47235      36163.023    
 1.08704652E-06 3.62893164E-09 4.77180195E+08 4.77143085E+08  201.69145      36908.186    
 1.09432869E-06 3.65324201E-09 4.87039196E+08 4.87001302E+08  207.34193      37686.372    
 1.10165965E-06 3.67771524E-09 4.96681248E+08 4.96642599E+08  212.78824      38436.465    
 1.10903971E-06 3.70235243E-09 5.06804727E+08 5.06765294E+08  218.62918      39214.148    
 1.11646922E-06 3.72715465E-09 5.17054734E+08 5.17014519E+08  224.56169      39990.605    
 1.12394850E-06 3.75212303E-09 5.27293636E+08 5.27252637E+08  230.46218      40768.453    
 1.13147788E-06 3.77725867E-09 5.38262104E+08 5.38220226E+08  236.98480      41640.826    
 1.13905770E-06 3.80256270E-09 5.48918095E+08 5.48875361E+08  243.21049      42490.203    
 1.14668830E-06 3.82803623E-09 5.60027159E+08 5.59983543E+08  249.81606      43366.013    
 1.15437002E-06 3.85368042E-09 5.71432413E+08 5.71387903E+08  256.66667      44252.586    
 1.16210319E-06 3.87949640E-09 5.82742798E+08 5.82697413E+08  263.40685      45121.002    
 1.16988818E-06 3.90548532E-09 5.94790807E+08 5.94744504E+08  270.79484      46032.378    
 1.17772531E-06 3.93164835E-09 6.06644435E+08 6.06597218E+08  277.98194      46939.061    
 1.18561494E-06 3.95798663E-09 6.18834391E+08 6.18786197E+08  285.45150      47908.431    
 1.19355743E-06 3.98450137E-09 6.31524290E+08 6.31475075E+08  293.36134      48921.400    
 1.20155313E-06 4.01119372E-09 6.44023872E+08 6.43973666E+08  301.06606      49904.783    
 1.20960239E-06 4.03806489E-09 6.57245810E+08 6.57194569E+08  309.42287      50932.205    
 1.21770557E-06 4.06511607E-09 6.70436660E+08 6.70384399E+08  317.72430      51942.979    
 1.22586303E-06 4.09234846E-09 6.83811915E+08 6.83758633E+08  326.16999      52955.827    
 1.23407514E-06 4.11976329E-09 6.97930190E+08 6.97875816E+08  335.30178      54039.004    
 1.24234227E-06 4.14736177E-09 7.11743856E+08 7.11688371E+08  344.10906      55140.867    
 1.25066478E-06 4.17514513E-09 7.26253369E+08 7.26196717E+08  353.56082      56298.265    
 1.25904304E-06 4.20311462E-09 7.40931354E+08 7.40873539E+08  363.14817      57452.149    
 1.26747742E-06 4.23127147E-09 7.55606465E+08 7.55547501E+08  372.69657      58591.641    
 1.27596831E-06 4.25961695E-09 7.71312953E+08 7.71252776E+08  383.23787      59793.595    
 1.28451608E-06 4.28815232E-09 7.86578617E+08 7.86517274E+08  393.30547      60949.711    
 1.29312111E-06 4.31687884E-09 8.02500189E+08 8.02437610E+08  403.99461      62175.211    
 1.30178379E-06 4.34579781E-09 8.18831893E+08 8.18767995E+08  415.06572      63482.977    
 1.31050450E-06 4.37491051E-09 8.35034807E+08 8.34969609E+08  425.96529      64772.174    
 1.31928362E-06 4.40421823E-09 8.52301446E+08 8.52234878E+08  437.92030      66129.813    
 1.32812156E-06 4.43372228E-09 8.69274830E+08 8.69206935E+08  449.53492      67445.149    
 1.33701871E-06 4.46342399E-09 8.86745006E+08 8.86675762E+08  461.62221      68782.606    
 1.34597546E-06 4.49332467E-09 9.04915459E+08 9.04844828E+08  474.40519      70156.631    
 1.35499221E-06 4.52342565E-09 9.22821254E+08 9.22749224E+08  486.86450      71542.390    
 1.36406936E-06 4.55372829E-09 9.41769719E+08 9.41696155E+08  500.38726      73063.067    
 1.37320733E-06 4.58423392E-09 9.60657215E+08 9.60582137E+08  513.80277      74564.321    
 1.38240650E-06 4.61494391E-09 9.79825642E+08 9.79749045E+08  527.46970      76069.449    
 1.39166731E-06 4.64585962E-09 1.00004068E+09 9.99962506E+08  542.22752      77634.973    
 1.40099015E-06 4.67698245E-09 1.01982813E+09 1.01974843E+09  556.46973      79148.122    
 1.41037545E-06 4.70831376E-09 1.04062103E+09 1.04053973E+09  571.76438      80720.204    
 1.41982361E-06 4.73985497E-09 1.06163700E+09 1.06155406E+09  587.25807      82357.520    
 1.42933508E-06 4.77160747E-09 1.08266762E+09 1.08258297E+09  602.70947      84044.417    
 1.43891026E-06 4.80357269E-09 1.10515587E+09 1.10506942E+09  619.74527      85834.001    
 1.44854958E-06 4.83575204E-09 1.12702251E+09 1.12693433E+09  636.02550      87547.436    
 1.45825348E-06 4.86814696E-09 1.14983832E+09 1.14974835E+09  653.32250      89313.917    
 1.46802239E-06 4.90075889E-09 1.17322107E+09 1.17312930E+09  671.21412      91098.594    
 1.47785673E-06 4.93358930E-09 1.19642954E+09 1.19633600E+09  688.83970      92854.395    
 1.48775696E-06 4.96663964E-09 1.22117169E+09 1.22107619E+09  708.18470      94791.787    
 1.49772351E-06 4.99991138E-09 1.24547280E+09 1.24537533E+09  726.95419      96744.261    
 1.50775683E-06 5.03340601E-09 1.27050699E+09 1.27040751E+09  746.51374      98732.779    
 1.51785736E-06 5.06712502E-09 1.29652143E+09 1.29641989E+09  767.17193      100771.16    
 1.52802556E-06 5.10106992E-09 1.32216808E+09 1.32206454E+09  787.31968      102754.82    
 1.53826187E-06 5.13524222E-09 1.34931914E+09 1.34921351E+09  809.20162      104825.72    
 1.54856676E-06 5.16964344E-09 1.37635938E+09 1.37625168E+09  830.88150      106873.38    
 1.55894067E-06 5.20427512E-09 1.40382608E+09 1.40371619E+09  852.99728      109034.83    
 1.56938409E-06 5.23913879E-09 1.43276646E+09 1.43265422E+09  876.84706      111363.47    
 1.57989746E-06 5.27423602E-09 1.46110710E+09 1.46099260E+09  899.87785      113609.67    
 1.59048127E-06 5.30956836E-09 1.49090015E+09 1.49078328E+09  924.62707      115943.31    
 1.60113597E-06 5.34513740E-09 1.52098637E+09 1.52086716E+09  949.66546      118266.69    
 1.61186206E-06 5.38094472E-09 1.55112023E+09 1.55099868E+09  974.66897      120567.00    
 1.62265999E-06 5.41699191E-09 1.58331330E+09 1.58318929E+09  1002.2002      123006.64    
 1.63353026E-06 5.45328058E-09 1.61463045E+09 1.61450393E+09  1028.5266      125489.39    
 1.64447336E-06 5.48981235E-09 1.64732079E+09 1.64719162E+09  1056.5160      128114.42    
 1.65548976E-06 5.52658885E-09 1.68079384E+09 1.68066199E+09  1085.4297      130767.57    
 1.66657996E-06 5.56361172E-09 1.71403190E+09 1.71389742E+09  1113.9315      133368.00    
 1.67774445E-06 5.60088261E-09 1.74948036E+09 1.74934311E+09  1145.2343      136103.61    
 1.68898374E-06 5.63840317E-09 1.78426702E+09 1.78412709E+09  1175.5659      138753.72    
 1.70029832E-06 5.67617509E-09 1.82013424E+09 1.81999155E+09  1207.2167      141484.19    
 1.71168869E-06 5.71420004E-09 1.85737276E+09 1.85722707E+09  1240.6014      144449.10    
 1.72315537E-06 5.75247973E-09 1.89410098E+09 1.89395231E+09  1273.1816      147391.97    
 1.73469887E-06 5.79101585E-09 1.93299931E+09 1.93284753E+09  1308.5897      150475.53    
 1.74631969E-06 5.82981012E-09 1.97170536E+09 1.97155052E+09  1343.6246      153499.15    
 1.75801837E-06 5.86886429E-09 2.01105622E+09 2.01089830E+09  1379.4119      156536.51    
 1.76979541E-06 5.90818007E-09 2.05248080E+09 2.05231969E+09  1417.9545      159686.04    
 1.78165135E-06 5.94775924E-09 2.09306486E+09 2.09290061E+09  1455.1968      162793.76    
 1.79358672E-06 5.98760354E-09 2.13574644E+09 2.13557874E+09  1495.2445      166198.37    
 1.80560203E-06 6.02771477E-09 2.17881042E+09 2.17863924E+09  1535.7071      169650.47    
 1.81769784E-06 6.06809470E-09 2.22198087E+09 2.22180623E+09  1576.1673      173067.06    
 1.82987468E-06 6.10874514E-09 2.26805919E+09 2.26788091E+09  1620.6596      176666.13    
 1.84213310E-06 6.14966790E-09 2.31290342E+09 2.31272164E+09  1663.2309      180122.14    
 1.85447363E-06 6.19086481E-09 2.35973343E+09 2.35954803E+09  1708.5219      183684.52    
 1.86689683E-06 6.23233769E-09 2.40764237E+09 2.40745325E+09  1755.2472      187368.69    
 1.87940326E-06 6.27408840E-09 2.45523600E+09 2.45504302E+09  1801.3361      191172.01    
 1.89199346E-06 6.31611880E-09 2.50601461E+09 2.50581751E+09  1851.9876      195247.39    
 1.90466801E-06 6.35843077E-09 2.55580271E+09 2.55560163E+09  1901.0031      199180.84    
 1.91742747E-06 6.40102618E-09 2.60718176E+09 2.60697661E+09  1952.2188      203192.32    
 1.93027240E-06 6.44390694E-09 2.66047716E+09 2.66026786E+09  2006.1695      207294.19    
 1.94320339E-06 6.48707497E-09 2.71306529E+09 2.71285194E+09  2058.8534      211297.94    
 1.95622099E-06 6.53053217E-09 2.76878289E+09 2.76856518E+09  2116.1477      215593.61    
 1.96932581E-06 6.57428050E-09 2.82417748E+09 2.82395526E+09  2172.7639      220042.04    
 1.98251841E-06 6.61832191E-09 2.88054427E+09 2.88031748E+09  2230.6734      224555.72    
 1.99579939E-06 6.66265834E-09 2.93982769E+09 2.93959615E+09  2292.9597      229242.19    
 2.00916934E-06 6.70729179E-09 2.99793385E+09 2.99769772E+09  2353.1820      233772.63    
 2.02262885E-06 6.75222424E-09 3.05906761E+09 3.05882671E+09  2417.9842      238477.24    
 2.03617854E-06 6.79745770E-09 3.12069517E+09 3.12044952E+09  2483.3715      243164.82    
 2.04981899E-06 6.84299417E-09 3.18253004E+09 3.18227954E+09  2548.8429      247950.53    
 2.06355082E-06 6.88883570E-09 3.24846958E+09 3.24821369E+09  2620.7443      253269.05    
 2.07737464E-06 6.93498432E-09 3.31267172E+09 3.31241063E+09  2689.5835      258398.95    
 2.09129106E-06 6.98144209E-09 3.37974449E+09 3.37947803E+09  2762.8702      263698.18    
 2.10530072E-06 7.02821109E-09 3.44830177E+09 3.44802989E+09  2838.3783      269038.52    
 2.11940422E-06 7.07529339E-09 3.51643743E+09 3.51616024E+09  2912.9057      274283.28    
 2.13360221E-06 7.12269110E-09 3.58916060E+09 3.58887780E+09  2994.8645      279806.60    
 2.14789530E-06 7.17040633E-09 3.66040490E+09 3.66011647E+09  3074.0716      285364.24    
 2.16228415E-06 7.21844121E-09 3.73398940E+09 3.73369495E+09  3156.9453      291299.19    
 2.17676939E-06 7.26679787E-09 3.81025007E+09 3.80994942E+09  3244.1302      297399.48    
 2.19135167E-06 7.31547848E-09 3.88553190E+09 3.88522524E+09  3329.3214      303338.29    
 2.20603163E-06 7.36448520E-09 3.96532475E+09 3.96501178E+09  3422.0291      309552.79    
 2.22080994E-06 7.41382021E-09 4.04458647E+09 4.04426732E+09  3513.5191      315642.48    
 2.23568724E-06 7.46348573E-09 4.12530967E+09 4.12498429E+09  3607.2245      321778.42    
 2.25066421E-06 7.51348396E-09 4.21013283E+09 4.20980069E+09  3707.8800      328432.84    
 2.26574151E-06 7.56381713E-09 4.29330884E+09 4.29296988E+09  3805.2606      335148.88    
 2.28091982E-06 7.61448748E-09 4.38085365E+09 4.38050759E+09  3910.1169      342150.83    
 2.29619980E-06 7.66549727E-09 4.46902863E+09 4.46867552E+09  4015.7812      349101.09    
 2.31158215E-06 7.71684879E-09 4.55757842E+09 4.55721830E+09  4121.7229      355997.05    
 2.32706754E-06 7.76854430E-09 4.65191857E+09 4.65155110E+09  4237.9170      363235.41    
 2.34265667E-06 7.82058613E-09 4.74381424E+09 4.74343966E+09  4349.2309      370230.51    
 2.35835023E-06 7.87297659E-09 4.83985825E+09 4.83947597E+09  4467.8162      377804.08    
 2.37414893E-06 7.92571802E-09 4.93794143E+09 4.93755110E+09  4589.8357      385737.56    
 2.39005346E-06 7.97881276E-09 5.03546427E+09 5.03506603E+09  4710.3472      393522.46    
 2.40606454E-06 8.03226319E-09 5.13959240E+09 5.13918582E+09  4842.9619      401733.25    
 2.42218287E-06 8.08607168E-09 5.24151662E+09 5.24110199E+09  4970.9556      409657.48    
 2.43840918E-06 8.14024064E-09 5.34687864E+09 5.34645579E+09  5105.0541      417748.73    
 2.45474420E-06 8.19477248E-09 5.45597443E+09 5.45554312E+09  5245.9435      426064.03    
 2.47118864E-06 8.24966963E-09 5.56371815E+09 5.56327816E+09  5383.6977      434612.28    
 2.48774324E-06 8.30493454E-09 5.67796223E+09 5.67751284E+09  5533.7051      443853.92    
 2.50440875E-06 8.36056967E-09 5.79134864E+09 5.79089006E+09  5681.5478      452896.12    
 2.52118589E-06 8.41657750E-09 5.90692624E+09 5.90645841E+09  5833.1733      462003.36    
 2.53807543E-06 8.47296053E-09 6.02826269E+09 6.02778526E+09  5995.8314      471430.97    
 2.55507811E-06 8.52972128E-09 6.14729583E+09 6.14680911E+09  6153.2952      480567.75    
 2.57219470E-06 8.58686227E-09 6.27263041E+09 6.27213394E+09  6322.9602      490147.37    
 2.58942595E-06 8.64438604E-09 6.39875792E+09 6.39825120E+09  6493.7082      500219.33    
 2.60677263E-06 8.70229518E-09 6.52553383E+09 6.52501672E+09  6665.1338      510450.42    
 2.62423551E-06 8.76059224E-09 6.66047424E+09 6.65994616E+09  6852.9024      521225.08    
 2.64181539E-06 8.81927985E-09 6.79197754E+09 6.79143894E+09  7032.8954      531570.82    
 2.65951303E-06 8.87836060E-09 6.92947182E+09 6.92892234E+09  7224.7752      542256.04    
 2.67732922E-06 8.93783714E-09 7.06976066E+09 7.06920023E+09  7421.9530      553005.31    
 2.69526477E-06 8.99771211E-09 7.20930969E+09 7.20873835E+09  7616.8177      563719.98    
 2.71332047E-06 9.05798819E-09 7.35836590E+09 7.35778240E+09  7831.3934      575671.91    
 2.73149713E-06 9.11866806E-09 7.50414517E+09 7.50354970E+09  8038.2197      587431.25    
 2.74979555E-06 9.17975443E-09 7.65496980E+09 7.65436208E+09  8255.2013      599461.66    
 2.76821656E-06 9.24125002E-09 7.81099856E+09 7.81037834E+09  8482.8723      611736.41    
 2.78676096E-06 9.30315757E-09 7.96516162E+09 7.96452920E+09  8705.6172      623713.21    
 2.80542960E-06 9.36547984E-09 8.12868661E+09 8.12804142E+09  8948.3353      636236.10    
 2.82422330E-06 9.42821962E-09 8.29084586E+09 8.29018792E+09  9187.2362      648760.87    
 2.84314290E-06 9.49137968E-09 8.45628277E+09 8.45561130E+09  9432.5784      662042.85    
 2.86218924E-06 9.55496287E-09 8.62980380E+09 8.62911804E+09  9695.4270      676068.86    
 2.88136318E-06 9.61897199E-09 8.80010758E+09 8.79940800E+09  9950.0405      689630.26    
 2.90066556E-06 9.68340992E-09 8.97949593E+09 8.97878196E+09  10224.566      703744.28    
 2.92009725E-06 9.74827952E-09 9.15986165E+09 9.15913341E+09  10500.480      717737.60    
 2.93965911E-06 9.81358368E-09 9.34131436E+09 9.34057193E+09  10777.861      731653.97    
 2.95935202E-06 9.87932532E-09 9.53427243E+09 9.53351476E+09  11081.288      746595.25    
 2.97917685E-06 9.94550737E-09 9.72240224E+09 9.72162909E+09  11372.328      761774.22    
 2.99913449E-06 1.00121328E-08 9.91918066E+09 9.91839130E+09  11682.798      777669.70    
 3.01922583E-06 1.00792045E-08 1.01197810E+10 1.01189753E+10  12001.422      793645.74    
 3.03945176E-06 1.01467255E-08 1.03194113E+10 1.03185896E+10  12316.509      809345.12    
 3.05981319E-06 1.02146989E-08 1.05327174E+10 1.05318788E+10  12663.694      825885.60    
 3.08031101E-06 1.02831276E-08 1.07411601E+10 1.07403052E+10  12997.900      841871.08    
 3.10094616E-06 1.03520148E-08 1.09569997E+10 1.09561277E+10  13348.986      858646.29    
 3.12171953E-06 1.04213634E-08 1.11800862E+10 1.11791958E+10  13716.884      876735.29    
 3.14263207E-06 1.04911766E-08 1.14006039E+10 1.13996953E+10  14077.050      894511.58    
 3.16368471E-06 1.05614574E-08 1.16345990E+10 1.16336714E+10  14469.770      913158.89    
 3.18487837E-06 1.06322091E-08 1.18664425E+10 1.18654963E+10  14855.805      931368.66    
 3.20621402E-06 1.07034348E-08 1.21031753E+10 1.21022103E+10  15252.780      949741.48    
 3.22769259E-06 1.07751376E-08 1.23512468E+10 1.23502624E+10  15677.524      968739.73    
 3.24931505E-06 1.08473207E-08 1.25948300E+10 1.25938261E+10  16089.217      987792.77    
 3.27108236E-06 1.09199874E-08 1.28515044E+10 1.28504792E+10  16533.401      1008662.4    
 3.29299549E-06 1.09931409E-08 1.31093540E+10 1.31083075E+10  16979.247      1029448.2    
 3.31505541E-06 1.10667844E-08 1.33689859E+10 1.33679184E+10  17428.062      1050118.6    
 3.33726312E-06 1.11409213E-08 1.36448198E+10 1.36437301E+10  17918.377      1071786.5    
 3.35961959E-06 1.12155548E-08 1.39138743E+10 1.39127633E+10  18388.968      1092649.4    
 3.38212584E-06 1.12906884E-08 1.41954064E+10 1.41942733E+10  18891.311      1114214.3    
 3.40478285E-06 1.13663252E-08 1.44821535E+10 1.44809973E+10  19406.170      1136804.6    
 3.42759164E-06 1.14424687E-08 1.47676416E+10 1.47664617E+10  19915.639      1160029.8    
 3.45055323E-06 1.15191223E-08 1.50727929E+10 1.50715877E+10  20477.374      1184671.9    
 3.47366865E-06 1.15962894E-08 1.53707406E+10 1.53695113E+10  21017.399      1208359.8    
 3.49693891E-06 1.16739735E-08 1.56795196E+10 1.56782654E+10  21585.459      1232621.8    
 3.52036506E-06 1.17521780E-08 1.59983758E+10 1.59970963E+10  22179.942      1257320.6    
 3.54394814E-06 1.18309064E-08 1.63137022E+10 1.63123979E+10  22762.296      1281504.8    
 3.56768921E-06 1.19101621E-08 1.66484206E+10 1.66470892E+10  23397.705      1308031.2    
 3.59158932E-06 1.19899488E-08 1.69797829E+10 1.69784238E+10  24021.478      1335047.4    
 3.61564954E-06 1.20702701E-08 1.73184233E+10 1.73170363E+10  24663.788      1362351.4    
 3.63987094E-06 1.21511293E-08 1.76729548E+10 1.76715389E+10  25350.125      1390564.3    
 3.66425460E-06 1.22325303E-08 1.80212302E+10 1.80197862E+10  26015.790      1417911.0    
 3.68880161E-06 1.23144766E-08 1.83883565E+10 1.83868834E+10  26734.466      1446357.0    
 3.71351306E-06 1.23969718E-08 1.87568454E+10 1.87553432E+10  27454.885      1474686.4    
 3.73839005E-06 1.24800197E-08 1.91282088E+10 1.91266764E+10  28181.073      1504270.7    
 3.76343369E-06 1.25636239E-08 1.95223731E+10 1.95208077E+10  28973.366      1536467.0    
 3.78864510E-06 1.26477882E-08 1.99070288E+10 1.99054316E+10  29734.257      1567431.0    
 3.81402541E-06 1.27325163E-08 2.03096754E+10 2.03080454E+10  30547.032      1599477.3    
 3.83957574E-06 1.28178120E-08 2.07194167E+10 2.07177537E+10  31378.966      1631631.4    
 3.86529723E-06 1.29036791E-08 2.11275386E+10 2.11258431E+10  32202.715      1663288.4    
 3.89119103E-06 1.29901214E-08 2.15639156E+10 2.15621856E+10  33111.563      1696883.3    
 3.91725829E-06 1.30771428E-08 2.19896455E+10 2.19878804E+10  33984.137      1731078.1    
 3.94350018E-06 1.31647472E-08 2.24312190E+10 2.24294170E+10  34903.241      1767093.1    
 3.96991787E-06 1.32529384E-08 2.28867902E+10 2.28849505E+10  35863.833      1803815.1    
 3.99651253E-06 1.33417205E-08 2.33375216E+10 2.33356452E+10  36805.422      1839660.0    
 4.02328535E-06 1.34310972E-08 2.38161354E+10 2.38142203E+10  37833.469      1877230.5    
 4.05023752E-06 1.35210728E-08 2.42895519E+10 2.42875992E+10  38841.364      1913901.9    
 4.07737024E-06 1.36116511E-08 2.47737793E+10 2.47717880E+10  39880.601      1951353.2    
 4.10468473E-06 1.37028361E-08 2.52802597E+10 2.52782264E+10  40989.616      1992248.3    
 4.13218219E-06 1.37946320E-08 2.57780329E+10 2.57759581E+10  42065.899      2032809.0    
