 OPTXAGNF AGN Spectrum Model Parameters: BLS, Astar 0.0                          
 M_BH:  3.0000E+08 M_0            L  :  1.0000E-02 L/Ledd 
 D   :  1.5000E+18 cm             z  :   0.000     redshift 
 Rcor:   60.00     Rg             Ro :   4.000     Rg 
 C_T :  0.2000     keV            Tau:   15.00     Optical Depth 
 gam :   1.800     (-slope)       fpl:  0.5000     Fraction 
 E              0.5DeltaE      E.FE total     E.FE Disk      E.FE Compton   E.FE NonThermal
 (keV)          (keV)          E.E/cm2/s/E    E.E/cm2/s/E    E.E/cm2/s/E    E.E/cm2/s/E    
 1.00334952E-06 3.34952256E-09 1.59307246E+08 1.59296855E+08  142.46015      10248.519    
 1.01007101E-06 3.37196116E-09 1.62454221E+08 1.62443618E+08  146.20223      10456.540    
 1.01683752E-06 3.39455008E-09 1.65733033E+08 1.65722209E+08  150.16993      10674.376    
 1.02364936E-06 3.41729032E-09 1.69101887E+08 1.69090837E+08  154.29018      10895.118    
 1.03050683E-06 3.44018290E-09 1.72441539E+08 1.72430269E+08  158.34146      11111.111    
 1.03741024E-06 3.46322884E-09 1.75996513E+08 1.75985013E+08  162.77914      11337.903    
 1.04435990E-06 3.48642917E-09 1.79497540E+08 1.79485814E+08  167.10184      11558.401    
 1.05135611E-06 3.50978492E-09 1.83094369E+08 1.83082411E+08  171.58838      11785.870    
 1.05839920E-06 3.53329712E-09 1.86841382E+08 1.86829170E+08  176.34557      12035.085    
 1.06548946E-06 3.55696684E-09 1.90531033E+08 1.90518573E+08  180.97651      12279.654    
 1.07262722E-06 3.58079512E-09 1.94431281E+08 1.94418559E+08  185.99598      12535.272    
 1.07981280E-06 3.60478303E-09 1.98325905E+08 1.98312927E+08  190.98876      12786.846    
 1.08704652E-06 3.62893164E-09 2.02271372E+08 2.02258138E+08  196.06148      13038.684    
 1.09432869E-06 3.65324201E-09 2.06438660E+08 2.06425158E+08  201.55341      13300.657    
 1.10165965E-06 3.67771524E-09 2.10514892E+08 2.10501125E+08  206.84693      13560.620    
 1.10903971E-06 3.70235243E-09 2.14793689E+08 2.14779632E+08  212.52394      13845.376    
 1.11646922E-06 3.72715465E-09 2.19125822E+08 2.19111471E+08  218.28993      14132.604    
 1.12394850E-06 3.75212303E-09 2.23453462E+08 2.23438822E+08  224.02481      14415.861    
 1.13147788E-06 3.77725867E-09 2.28087839E+08 2.28072893E+08  230.36425      14715.231    
 1.13905770E-06 3.80256270E-09 2.32591070E+08 2.32575831E+08  236.41514      15002.273    
 1.14668830E-06 3.82803623E-09 2.37284854E+08 2.37269314E+08  242.83517      15297.635    
 1.15437002E-06 3.85368042E-09 2.42103249E+08 2.42087392E+08  249.49332      15606.985    
 1.16210319E-06 3.87949640E-09 2.46882007E+08 2.46865826E+08  256.04415      15925.005    
 1.16988818E-06 3.90548532E-09 2.51970767E+08 2.51954241E+08  263.22449      16262.807    
 1.17772531E-06 3.93164835E-09 2.56978069E+08 2.56961209E+08  270.20960      16590.096    
 1.18561494E-06 3.95798663E-09 2.62126802E+08 2.62109602E+08  277.46919      16922.666    
 1.19355743E-06 3.98450137E-09 2.67485627E+08 2.67468078E+08  285.15660      17263.868    
 1.20155313E-06 4.01119372E-09 2.72764776E+08 2.72746887E+08  292.64469      17596.607    
 1.20960239E-06 4.03806489E-09 2.78347379E+08 2.78329122E+08  300.76642      17956.609    
 1.21770557E-06 4.06511607E-09 2.83917161E+08 2.83898524E+08  308.83433      18328.336    
 1.22586303E-06 4.09234846E-09 2.89564587E+08 2.89545567E+08  317.04241      18702.507    
 1.23407514E-06 4.11976329E-09 2.95524003E+08 2.95504585E+08  325.91716      19092.343    
 1.24234227E-06 4.14736177E-09 3.01355834E+08 3.01336031E+08  334.47658      19468.605    
 1.25066478E-06 4.17514513E-09 3.07479837E+08 3.07459635E+08  343.66223      19858.630    
 1.25904304E-06 4.20311462E-09 3.13674747E+08 3.13654145E+08  352.97962      20249.324    
 1.26747742E-06 4.23127147E-09 3.19868757E+08 3.19847744E+08  362.25914      20650.581    
 1.27596831E-06 4.25961695E-09 3.26495553E+08 3.26474086E+08  372.50344      21094.287    
 1.28451608E-06 4.28815232E-09 3.32937774E+08 3.32915872E+08  382.28744      21520.325    
 1.29312111E-06 4.31687884E-09 3.39655281E+08 3.39632929E+08  392.67536      21959.607    
 1.30178379E-06 4.34579781E-09 3.46544955E+08 3.46522147E+08  403.43441      22403.846    
 1.31050450E-06 4.37491051E-09 3.53380967E+08 3.53357713E+08  414.02678      22839.422    
 1.31928362E-06 4.40421823E-09 3.60663070E+08 3.60639346E+08  425.64463      23298.789    
 1.32812156E-06 4.43372228E-09 3.67822613E+08 3.67798410E+08  436.93174      23766.372    
 1.33701871E-06 4.46342399E-09 3.75190675E+08 3.75165967E+08  448.67809      24259.166    
 1.34597546E-06 4.49332467E-09 3.82852407E+08 3.82827179E+08  461.10038      24766.630    
 1.35499221E-06 4.52342565E-09 3.90403618E+08 3.90377885E+08  473.20817      25259.835    
 1.36406936E-06 4.55372829E-09 3.98391833E+08 3.98365571E+08  486.34920      25774.979    
 1.37320733E-06 4.58423392E-09 4.06354854E+08 4.06328073E+08  499.38601      26281.565    
 1.38240650E-06 4.61494391E-09 4.14435912E+08 4.14408607E+08  512.66709      26792.682    
 1.39166731E-06 4.64585962E-09 4.22955502E+08 4.22927622E+08  527.00804      27352.136    
 1.40099015E-06 4.67698245E-09 4.31296519E+08 4.31268068E+08  540.84802      27910.166    
 1.41037545E-06 4.70831376E-09 4.40058762E+08 4.40029716E+08  555.71050      28490.534    
 1.41982361E-06 4.73985497E-09 4.48914709E+08 4.48885070E+08  570.76634      29068.719    
 1.42933508E-06 4.77160747E-09 4.57777223E+08 4.57746997E+08  585.78108      29640.407    
 1.43891026E-06 4.80357269E-09 4.67249927E+08 4.67219082E+08  602.33513      30242.392    
 1.44854958E-06 4.83575204E-09 4.76463065E+08 4.76431620E+08  618.15508      30827.074    
 1.45825348E-06 4.86814696E-09 4.86073695E+08 4.86041600E+08  634.96284      31460.665    
 1.46802239E-06 4.90075889E-09 4.95921859E+08 4.95889085E+08  652.34826      32121.010    
 1.47785673E-06 4.93358930E-09 5.05697672E+08 5.05664235E+08  669.47521      32767.496    
 1.48775696E-06 4.96663964E-09 5.16115071E+08 5.16080935E+08  688.27258      33448.048    
 1.49772351E-06 4.99991138E-09 5.26348577E+08 5.26313764E+08  706.51080      34107.269    
 1.50775683E-06 5.03340601E-09 5.36889026E+08 5.36853522E+08  725.51654      34778.035    
 1.51785736E-06 5.06712502E-09 5.47839578E+08 5.47803359E+08  745.58958      35473.534    
 1.52802556E-06 5.10106992E-09 5.58637096E+08 5.58600140E+08  765.16671      36189.998    
 1.53826187E-06 5.13524222E-09 5.70063633E+08 5.70025890E+08  786.42854      36956.936    
 1.54856676E-06 5.16964344E-09 5.81444428E+08 5.81405912E+08  807.49403      37709.175    
 1.55894067E-06 5.20427512E-09 5.93003928E+08 5.92964635E+08  828.98297      38464.097    
 1.56938409E-06 5.23913879E-09 6.05179276E+08 6.05139176E+08  852.15636      39248.179    
 1.57989746E-06 5.27423602E-09 6.17104894E+08 6.17064012E+08  874.53413      40006.917    
 1.59048127E-06 5.30956836E-09 6.29637433E+08 6.29595730E+08  898.58120      40804.245    
 1.60113597E-06 5.34513740E-09 6.42293004E+08 6.42250430E+08  922.90915      41650.934    
 1.61186206E-06 5.38094472E-09 6.54969217E+08 6.54925770E+08  947.20319      42499.890    
 1.62265999E-06 5.41699191E-09 6.68505194E+08 6.68460824E+08  973.95269      43396.017    
 1.63353026E-06 5.45328058E-09 6.81676429E+08 6.81631174E+08  999.53169      44255.116    
 1.64447336E-06 5.48981235E-09 6.95421158E+08 6.95374991E+08  1026.7262      45140.824    
 1.65548976E-06 5.52658885E-09 7.09492979E+08 7.09445890E+08  1054.8184      46034.840    
 1.66657996E-06 5.56361172E-09 7.23467693E+08 7.23419681E+08  1082.5105      46929.864    
 1.67774445E-06 5.60088261E-09 7.38364667E+08 7.38315624E+08  1112.9234      47930.213    
 1.68898374E-06 5.63840317E-09 7.52986600E+08 7.52936549E+08  1142.3928      48908.531    
 1.70029832E-06 5.67617509E-09 7.68059750E+08 7.68008671E+08  1173.1435      49905.647    
 1.71168869E-06 5.71420004E-09 7.83704984E+08 7.83652851E+08  1205.5785      50926.553    
 1.72315537E-06 5.75247973E-09 7.99138554E+08 7.99085395E+08  1237.2321      51921.065    
 1.73469887E-06 5.79101585E-09 8.15476908E+08 8.15422677E+08  1271.6322      52959.077    
 1.74631969E-06 5.82981012E-09 8.31736108E+08 8.31680792E+08  1305.6700      54009.565    
 1.75801837E-06 5.86886429E-09 8.48264908E+08 8.48208449E+08  1340.4384      55118.933    
 1.76979541E-06 5.90818007E-09 8.65657912E+08 8.65600248E+08  1377.8831      56285.508    
 1.78165135E-06 5.94775924E-09 8.82702086E+08 8.82643261E+08  1414.0646      57411.568    
 1.79358672E-06 5.98760354E-09 9.00620146E+08 9.00560111E+08  1452.9710      58581.358    
 1.80560203E-06 6.02771477E-09 9.18698291E+08 9.18637054E+08  1492.2803      59745.214    
 1.81769784E-06 6.06809470E-09 9.36821955E+08 9.36759525E+08  1531.5873      60898.832    
 1.82987468E-06 6.10874514E-09 9.56156141E+08 9.56092412E+08  1574.8103      62154.464    
 1.84213310E-06 6.14966790E-09 9.74978344E+08 9.74913307E+08  1616.1674      63421.565    
 1.85447363E-06 6.19086481E-09 9.94627468E+08 9.94561069E+08  1660.1661      64738.876    
 1.86689683E-06 6.23233769E-09 1.01472620E+09 1.01465842E+09  1705.5576      66067.658    
 1.87940326E-06 6.27408840E-09 1.03469517E+09 1.03462605E+09  1750.3311      67371.203    
 1.89199346E-06 6.31611880E-09 1.05598882E+09 1.05591828E+09  1799.5357      68742.073    
 1.90466801E-06 6.35843077E-09 1.07687224E+09 1.07680032E+09  1847.1512      70073.459    
 1.91742747E-06 6.40102618E-09 1.09841805E+09 1.09834468E+09  1896.9036      71479.356    
 1.93027240E-06 6.44390694E-09 1.12076108E+09 1.12068614E+09  1949.3121      72989.188    
 1.94320339E-06 6.48707497E-09 1.14281197E+09 1.14273550E+09  2000.4901      74465.139    
 1.95622099E-06 6.53053217E-09 1.16616344E+09 1.16608537E+09  2056.1456      76010.473    
 1.96932581E-06 6.57428050E-09 1.18938218E+09 1.18930254E+09  2111.1423      77525.059    
 1.98251841E-06 6.61832191E-09 1.21300606E+09 1.21292485E+09  2167.3950      79047.916    
 1.99579939E-06 6.66265834E-09 1.23784151E+09 1.23775865E+09  2227.8980      80631.825    
 2.00916934E-06 6.70729179E-09 1.26219037E+09 1.26210585E+09  2286.3965      82232.112    
 2.02262885E-06 6.75222424E-09 1.28779667E+09 1.28771035E+09  2349.3425      83965.370    
 2.03617854E-06 6.79745770E-09 1.31360934E+09 1.31352124E+09  2412.8566      85694.236    
 2.04981899E-06 6.84299417E-09 1.33950989E+09 1.33942000E+09  2476.4522      87407.355    
 2.06355082E-06 6.88883570E-09 1.36711326E+09 1.36702151E+09  2546.2918      89209.096    
 2.07737464E-06 6.93498432E-09 1.39399854E+09 1.39390498E+09  2613.1576      90941.270    
 2.09129106E-06 6.98144209E-09 1.42207518E+09 1.42197976E+09  2684.3421      92735.845    
 2.10530072E-06 7.02821109E-09 1.45076866E+09 1.45067127E+09  2757.6835      94635.216    
 2.11940422E-06 7.07529339E-09 1.47928983E+09 1.47919044E+09  2830.0725      96565.572    
 2.13360221E-06 7.12269110E-09 1.50971239E+09 1.50961087E+09  2909.6774      98607.455    
 2.14789530E-06 7.17040633E-09 1.53952475E+09 1.53942118E+09  2986.6102      100577.72    
 2.16228415E-06 7.21844121E-09 1.57030792E+09 1.57020227E+09  3067.1033      102588.46    
 2.17676939E-06 7.26679787E-09 1.60220048E+09 1.60209269E+09  3151.7823      104642.24    
 2.19135167E-06 7.31547848E-09 1.63369062E+09 1.63358072E+09  3234.5252      106660.86    
 2.20603163E-06 7.36448520E-09 1.66704891E+09 1.66693670E+09  3324.5663      108881.20    
 2.22080994E-06 7.41382021E-09 1.70018999E+09 1.70007545E+09  3413.4249      111129.75    
 2.23568724E-06 7.46348573E-09 1.73393804E+09 1.73382114E+09  3504.4344      113392.37    
 2.25066421E-06 7.51348396E-09 1.76938289E+09 1.76926355E+09  3602.1919      115738.38    
 2.26574151E-06 7.56381713E-09 1.80414974E+09 1.80402804E+09  3696.7694      118008.72    
 2.28091982E-06 7.61448748E-09 1.84072424E+09 1.84060007E+09  3798.6050      120366.15    
 2.29619980E-06 7.66549727E-09 1.87756167E+09 1.87743504E+09  3901.2249      122733.42    
 2.31158215E-06 7.71684879E-09 1.91455721E+09 1.91442800E+09  4004.1140      125208.70    
 2.32706754E-06 7.76854430E-09 1.95394601E+09 1.95381400E+09  4116.9566      127890.28    
 2.34265667E-06 7.82058613E-09 1.99232887E+09 1.99219418E+09  4225.0609      130460.85    
 2.35835023E-06 7.87297659E-09 2.03242670E+09 2.03228924E+09  4340.2246      133116.38    
 2.37414893E-06 7.92571802E-09 2.07336863E+09 2.07322838E+09  4458.7221      135790.12    
 2.39005346E-06 7.97881276E-09 2.11408308E+09 2.11394009E+09  4575.7553      138418.23    
 2.40606454E-06 8.03226319E-09 2.15752438E+09 2.15737847E+09  4704.5384      141211.71    
 2.42218287E-06 8.08607168E-09 2.20006068E+09 2.19991177E+09  4828.8350      144086.37    
 2.43840918E-06 8.14024064E-09 2.24401781E+09 2.24386577E+09  4959.0579      147075.40    
 2.45474420E-06 8.19477248E-09 2.28951676E+09 2.28936154E+09  5095.8730      150129.00    
 2.47118864E-06 8.24966963E-09 2.33446258E+09 2.33430424E+09  5229.6442      153104.65    
 2.48774324E-06 8.30493454E-09 2.38208916E+09 2.38192757E+09  5375.3102      156217.85    
 2.50440875E-06 8.36056967E-09 2.42936641E+09 2.42920162E+09  5518.8742      159267.24    
 2.52118589E-06 8.41657750E-09 2.47755016E+09 2.47738211E+09  5666.1102      162385.70    
 2.53807543E-06 8.47296053E-09 2.52810787E+09 2.52793623E+09  5824.0554      165821.59    
 2.55507811E-06 8.52972128E-09 2.57772243E+09 2.57754727E+09  5976.9581      169190.17    
 2.57219470E-06 8.58686227E-09 2.62993337E+09 2.62975453E+09  6141.7041      172698.01    
 2.58942595E-06 8.64438604E-09 2.68247440E+09 2.68229192E+09  6307.5010      176177.59    
 2.60677263E-06 8.70229518E-09 2.73528709E+09 2.73510098E+09  6473.9553      179633.81    
 2.62423551E-06 8.76059224E-09 2.79145965E+09 2.79126974E+09  6656.2724      183256.21    
 2.64181539E-06 8.81927985E-09 2.84622498E+09 2.84603132E+09  6831.0419      186832.74    
 2.65951303E-06 8.87836060E-09 2.90345682E+09 2.90325908E+09  7017.3488      190728.01    
 2.67732922E-06 8.93783714E-09 2.96184116E+09 2.96163925E+09  7208.7974      194701.13    
 2.69526477E-06 8.99771211E-09 3.01992756E+09 3.01972156E+09  7398.0006      198601.11    
 2.71332047E-06 9.05798819E-09 3.08192092E+09 3.08171060E+09  7606.3345      202713.26    
 2.73149713E-06 9.11866806E-09 3.14257505E+09 3.14236056E+09  7807.1466      206681.03    
 2.74979555E-06 9.17975443E-09 3.20530513E+09 3.20508638E+09  8017.8146      210734.99    
 2.76821656E-06 9.24125002E-09 3.27017501E+09 3.26995177E+09  8238.8564      215000.79    
 2.78676096E-06 9.30315757E-09 3.33428669E+09 3.33405886E+09  8455.1170      219373.50    
 2.80542960E-06 9.36547984E-09 3.40224172E+09 3.40200902E+09  8690.7614      224008.20    
 2.82422330E-06 9.42821962E-09 3.46964314E+09 3.46940569E+09  8922.7005      228534.77    
 2.84314290E-06 9.49137968E-09 3.53839422E+09 3.53815196E+09  9160.8904      233097.98    
 2.86218924E-06 9.55496287E-09 3.61046193E+09 3.61021470E+09  9416.0691      237815.62    
 2.88136318E-06 9.61897199E-09 3.68121976E+09 3.68096770E+09  9663.2553      242399.00    
 2.90066556E-06 9.68340992E-09 3.75570312E+09 3.75544587E+09  9929.7642      247322.30    
 2.92009725E-06 9.74827952E-09 3.83059355E+09 3.83033090E+09  10197.621      252456.54    
 2.93965911E-06 9.81358368E-09 3.90593701E+09 3.90566895E+09  10466.900      257588.89    
 2.95935202E-06 9.87932532E-09 3.98599208E+09 3.98571834E+09  10761.452      262979.43    
 2.97917685E-06 9.94550737E-09 4.06408104E+09 4.06380184E+09  11043.985      268161.35    
 2.99913449E-06 1.00121328E-08 4.14571297E+09 4.14542811E+09  11345.371      273513.43    
 3.01922583E-06 1.00792045E-08 4.22891411E+09 4.22862354E+09  11654.668      278911.54    
 3.03945176E-06 1.01467255E-08 4.31172882E+09 4.31143245E+09  11960.533      284416.37    
 3.05981319E-06 1.02146989E-08 4.40013569E+09 4.39983289E+09  12297.542      290508.58    
 3.08031101E-06 1.02831276E-08 4.48656638E+09 4.48625737E+09  12621.957      296394.86    
 3.10094616E-06 1.03520148E-08 4.57602527E+09 4.57570989E+09  12962.749      302420.94    
 3.12171953E-06 1.04213634E-08 4.66844864E+09 4.66812675E+09  13319.853      308562.75    
 3.14263207E-06 1.04911766E-08 4.75983504E+09 4.75950681E+09  13669.454      314561.02    
 3.16368471E-06 1.05614574E-08 4.85672523E+09 4.85639033E+09  14050.639      320858.10    
 3.18487837E-06 1.06322091E-08 4.95274890E+09 4.95240717E+09  14425.338      327301.58    
 3.20621402E-06 1.07034348E-08 5.05077635E+09 5.05042749E+09  14810.649      334057.36    
 3.22769259E-06 1.07751376E-08 5.15343155E+09 5.15307526E+09  15222.900      341073.85    
 3.24931505E-06 1.08473207E-08 5.25427094E+09 5.25390745E+09  15622.489      347865.08    
 3.27108236E-06 1.09199874E-08 5.36044948E+09 5.36007850E+09  16053.598      354932.47    
 3.29299549E-06 1.09931409E-08 5.46711728E+09 5.46673885E+09  16486.319      361935.05    
 3.31505541E-06 1.10667844E-08 5.57452360E+09 5.57413774E+09  16921.919      368935.11    
 3.33726312E-06 1.11409213E-08 5.68852881E+09 5.68813477E+09  17397.777      376643.84    
 3.35961959E-06 1.12155548E-08 5.79979195E+09 5.79938977E+09  17854.499      384329.12    
 3.38212584E-06 1.12906884E-08 5.91613857E+09 5.91572794E+09  18342.022      392288.73    
 3.40478285E-06 1.13663252E-08 6.03461554E+09 6.03419642E+09  18841.685      400281.67    
 3.42759164E-06 1.14424687E-08 6.15259633E+09 6.15216885E+09  19336.119      408142.70    
 3.45055323E-06 1.15191223E-08 6.27857086E+09 6.27813456E+09  19881.250      416422.36    
 3.47366865E-06 1.15962894E-08 6.40163729E+09 6.40119241E+09  20405.320      424474.24    
 3.49693891E-06 1.16739735E-08 6.52911344E+09 6.52865934E+09  20956.584      433142.45    
 3.52036506E-06 1.17521780E-08 6.66068982E+09 6.66022602E+09  21533.474      442271.88    
 3.54394814E-06 1.18309064E-08 6.79085269E+09 6.79037942E+09  22098.599      451171.94    
 3.56768921E-06 1.19101621E-08 6.92888743E+09 6.92840421E+09  22715.182      460506.32    
 3.59158932E-06 1.19899488E-08 7.06557865E+09 7.06508571E+09  23320.478      469617.90    
 3.61564954E-06 1.20702701E-08 7.20523534E+09 7.20473257E+09  23943.750      478818.71    
 3.63987094E-06 1.21511293E-08 7.35133926E+09 7.35082625E+09  24609.722      488395.77    
 3.66425460E-06 1.22325303E-08 7.49493191E+09 7.49440840E+09  25255.643      498250.16    
 3.68880161E-06 1.23144766E-08 7.64616684E+09 7.64563212E+09  25952.974      508765.88    
 3.71351306E-06 1.23969718E-08 7.79797065E+09 7.79742483E+09  26651.993      519163.90    
 3.73839005E-06 1.24800197E-08 7.95095738E+09 7.95040051E+09  27356.605      529515.53    
 3.76343369E-06 1.25636239E-08 8.11317182E+09 8.11260334E+09  28125.324      540350.60    
 3.78864510E-06 1.26477882E-08 8.27156809E+09 8.27098843E+09  28863.586      550794.79    
 3.81402541E-06 1.27325163E-08 8.43724829E+09 8.43665692E+09  29652.162      561720.06    
 3.83957574E-06 1.28178120E-08 8.60581200E+09 8.60520816E+09  30459.313      573383.37    
 3.86529723E-06 1.29036791E-08 8.77374782E+09 8.77313152E+09  31258.526      585042.31    
 3.89119103E-06 1.29901214E-08 8.95309543E+09 8.95246592E+09  32140.256      597373.35    
 3.91725829E-06 1.30771428E-08 9.12817517E+09 9.12753296E+09  32986.808      609224.47    
 3.94350018E-06 1.31647472E-08 9.30966297E+09 9.30900772E+09  33878.476      621370.37    
 3.96991787E-06 1.32529384E-08 9.49680989E+09 9.49614135E+09  34810.369      633722.29    
 3.99651253E-06 1.33417205E-08 9.68203702E+09 9.68135527E+09  35723.834      646031.49    
 4.02328535E-06 1.34310972E-08 9.87850781E+09 9.87781139E+09  36721.124      659698.79    
 4.05023752E-06 1.35210728E-08 1.00729149E+10 1.00722040E+10  37698.873      673220.24    
 4.07737024E-06 1.36116511E-08 1.02716983E+10 1.02709727E+10  38707.005      686889.12    
 4.10468473E-06 1.37028361E-08 1.04794484E+10 1.04787077E+10  39782.787      700994.97    
 4.13218219E-06 1.37946320E-08 1.06837320E+10 1.06829765E+10  40826.831      714681.71    
