 OPTXAGNF AGN Spectrum Model Parameters: BLS, Astar 0.0                          
 M_BH:  4.0000E+06 M_0            L  :  0.1000     L/Ledd 
 D   :  1.5000E+18 cm             z  :   0.000     redshift 
 Rcor:   60.00     Rg             Ro :   4.000     Rg 
 C_T :  0.2000     keV            Tau:   15.00     Optical Depth 
 gam :   1.800     (-slope)       fpl:  0.5000     Fraction 
 E              0.5DeltaE      E.FE total     E.FE Disk      E.FE Compton   E.FE NonThermal
 (keV)          (keV)          E.E/cm2/s/E    E.E/cm2/s/E    E.E/cm2/s/E    E.E/cm2/s/E    
 1.00334952E-06 3.34952256E-09  149474.51      149472.36     2.82299502E-03  2.1542102    
 1.01007101E-06 3.37196116E-09  152437.27      152435.06     2.89716310E-03  2.2084561    
 1.01683752E-06 3.39455008E-09  155524.89      155522.62     2.97580396E-03  2.2648325    
 1.02364936E-06 3.41729032E-09  158697.76      158695.44     3.05746935E-03  2.3220972    
 1.03050683E-06 3.44018290E-09  161842.78      161840.40     3.13776739E-03  2.3786905    
 1.03741024E-06 3.46322884E-09  165191.93      165189.49     3.22572579E-03  2.4429870    
 1.04435990E-06 3.48642917E-09  168489.74      168487.24     3.31140497E-03  2.5052387    
 1.05135611E-06 3.50978492E-09  171878.29      171875.71     3.40033246E-03  2.5686460    
 1.05839920E-06 3.53329712E-09  175409.20      175406.56     3.49462567E-03  2.6343167    
 1.06548946E-06 3.55696684E-09  178885.49      178882.78     3.58641596E-03  2.6973105    
 1.07262722E-06 3.58079512E-09  182561.53      182558.76     3.68590952E-03  2.7638654    
 1.07981280E-06 3.60478303E-09  186232.06      186229.23     3.78487382E-03  2.8309528    
 1.08704652E-06 3.62893164E-09  189950.68      189947.78     3.88542325E-03  2.9014464    
 1.09432869E-06 3.65324201E-09  193879.81      193876.83     3.99428429E-03  2.9767463    
 1.10165965E-06 3.67771524E-09  197722.24      197719.19     4.09921151E-03  3.0482562    
 1.10903971E-06 3.70235243E-09  201756.90      201753.77     4.21174222E-03  3.1231607    
 1.11646922E-06 3.72715465E-09  205842.05      205838.85     4.32603742E-03  3.1977415    
 1.12394850E-06 3.75212303E-09  209922.69      209919.41     4.43971585E-03  3.2709059    
 1.13147788E-06 3.77725867E-09  214294.70      214291.34     4.56538112E-03  3.3521363    
 1.13905770E-06 3.80256270E-09  218541.82      218538.38     4.68532533E-03  3.4327977    
 1.14668830E-06 3.82803623E-09  222969.87      222966.35     4.81258906E-03  3.5170657    
 1.15437002E-06 3.85368042E-09  227516.20      227512.60     4.94457413E-03  3.6025254    
 1.16210319E-06 3.87949640E-09  232024.56      232020.87     5.07443162E-03  3.6855089    
 1.16988818E-06 3.90548532E-09  236827.57      236823.79     5.21677113E-03  3.7737564    
 1.17772531E-06 3.93164835E-09  241552.84      241548.98     5.35523988E-03  3.8588445    
 1.18561494E-06 3.95798663E-09  246412.41      246408.46     5.49915121E-03  3.9486731    
 1.19355743E-06 3.98450137E-09  251471.70      251467.65     5.65154600E-03  4.0460636    
 1.20155313E-06 4.01119372E-09  256454.85      256450.70     5.79998861E-03  4.1402112    
 1.20960239E-06 4.03806489E-09  261726.61      261722.37     5.96099588E-03  4.2395665    
 1.21770557E-06 4.06511607E-09  266985.88      266981.53     6.12093628E-03  4.3367101    
 1.22586303E-06 4.09234846E-09  272318.75      272314.31     6.28365635E-03  4.4339057    
 1.23407514E-06 4.11976329E-09  277948.54      277944.00     6.45959654E-03  4.5362249    
 1.24234227E-06 4.14736177E-09  283456.46      283451.82     6.62928402E-03  4.6384544    
 1.25066478E-06 4.17514513E-09  289242.45      289237.70     6.81138989E-03  4.7497892    
 1.25904304E-06 4.20311462E-09  295095.71      295090.84     6.99610852E-03  4.8610210    
 1.26747742E-06 4.23127147E-09  300947.71      300942.74     7.18007649E-03  4.9703354    
 1.27596831E-06 4.25961695E-09  307211.99      307206.90     7.38317683E-03  5.0869732    
 1.28451608E-06 4.28815232E-09  313299.91      313294.71     7.57714955E-03  5.1976796    
 1.29312111E-06 4.31687884E-09  319649.98      319644.66     7.78309872E-03  5.3127930    
 1.30178379E-06 4.34579781E-09  326163.93      326158.49     7.99640836E-03  5.4352661    
 1.31050450E-06 4.37491051E-09  332626.26      332620.70     8.20641265E-03  5.5588422    
 1.31928362E-06 4.40421823E-09  339513.90      339508.20     8.43675435E-03  5.6904847    
 1.32812156E-06 4.43372228E-09  346284.13      346278.31     8.66053735E-03  5.8170024    
 1.33701871E-06 4.46342399E-09  353252.94      353246.98     8.89342843E-03  5.9459126    
 1.34597546E-06 4.49332467E-09  360501.74      360495.65     9.13972520E-03  6.0785305    
 1.35499221E-06 4.52342565E-09  367644.52      367638.30     9.37978503E-03  6.2078012    
 1.36406936E-06 4.55372829E-09  375204.25      375197.89     9.64033733E-03  6.3508296    
 1.37320733E-06 4.58423392E-09  382739.47      382732.96     9.89882310E-03  6.4955989    
 1.38240650E-06 4.61494391E-09  390386.93      390380.28     1.01621538E-02  6.6406105    
 1.39166731E-06 4.64585962E-09  398453.02      398446.22     1.04465060E-02  6.7923896    
 1.40099015E-06 4.67698245E-09  406347.87      406340.92     1.07209226E-02  6.9379380    
 1.41037545E-06 4.70831376E-09  414644.89      414637.79     1.10156196E-02  7.0896297    
 1.41982361E-06 4.73985497E-09  423031.01      423023.76     1.13141525E-02  7.2422224    
 1.42933508E-06 4.77160747E-09  431422.80      431415.39     1.16118706E-02  7.4008522    
 1.43891026E-06 4.80357269E-09  440397.81      440390.22     1.19401207E-02  7.5746148    
 1.44854958E-06 4.83575204E-09  449123.87      449116.12     1.22538110E-02  7.7396153    
 1.45825348E-06 4.86814696E-09  458229.66      458221.73     1.25870948E-02  7.9104024    
 1.46802239E-06 4.90075889E-09  467562.23      467554.13     1.29318375E-02  8.0830701    
 1.47785673E-06 4.93358930E-09  476824.83      476816.56     1.32714536E-02  8.2517778    
 1.48775696E-06 4.96663964E-09  486701.21      486692.76     1.36442043E-02  8.4320608    
 1.49772351E-06 4.99991138E-09  496400.82      496392.18     1.40058649E-02  8.6172915    
 1.50775683E-06 5.03340601E-09  506393.72      506384.90     1.43827505E-02  8.8094563    
 1.51785736E-06 5.06712502E-09  516778.94      516769.92     1.47808083E-02  9.0069856    
 1.52802556E-06 5.10106992E-09  527016.68      527007.47     1.51690296E-02  9.1982157    
 1.53826187E-06 5.13524222E-09  537856.65      537847.24     1.55906709E-02  9.3989826    
 1.54856676E-06 5.16964344E-09  548652.04      548642.42     1.60084183E-02  9.5956419    
 1.55894067E-06 5.20427512E-09  559617.93      559608.12     1.64345666E-02  9.7960421    
 1.56938409E-06 5.23913879E-09  571173.85      571163.82     1.68941313E-02  10.018592    
 1.57989746E-06 5.27423602E-09  582489.32      582479.06     1.73379137E-02  10.235292    
 1.59048127E-06 5.30956836E-09  594386.33      594375.85     1.78148126E-02  10.461401    
 1.60113597E-06 5.34513740E-09  606400.57      606389.87     1.82972849E-02  10.686195    
 1.61186206E-06 5.38094472E-09  618433.60      618422.68     1.87790851E-02  10.908217    
 1.62265999E-06 5.41699191E-09  631291.44      631280.28     1.93096003E-02  11.142981    
 1.63353026E-06 5.45328058E-09  643797.99      643786.60     1.98168950E-02  11.373233    
 1.64447336E-06 5.48981235E-09  656854.49      656842.84     2.03562406E-02  11.624227    
 1.65548976E-06 5.52658885E-09  670224.39      670212.49     2.09133983E-02  11.881282    
 1.66657996E-06 5.56361172E-09  683499.80      683487.64     2.14626196E-02  12.132404    
 1.67774445E-06 5.60088261E-09  697660.83      697648.41     2.20658221E-02  12.398004    
 1.68898374E-06 5.63840317E-09  711556.31      711543.64     2.26503078E-02  12.654095    
 1.70029832E-06 5.67617509E-09  725884.57      725871.64     2.32602166E-02  12.915177    
 1.71168869E-06 5.71420004E-09  740762.20      740748.98     2.39035441E-02  13.191411    
 1.72315537E-06 5.75247973E-09  755434.88      755421.39     2.45313683E-02  13.473245    
 1.73469887E-06 5.79101585E-09  770977.30      770963.50     2.52136913E-02  13.772467    
 1.74631969E-06 5.82981012E-09  786442.28      786428.19     2.58888248E-02  14.065065    
 1.75801837E-06 5.86886429E-09  802165.43      802151.04     2.65784586E-02  14.358899    
 1.76979541E-06 5.90818007E-09  818719.83      818705.13     2.73211963E-02  14.664607    
 1.78165135E-06 5.94775924E-09  834936.73      834921.75     2.80388723E-02  14.960031    
 1.79358672E-06 5.98760354E-09  851994.43      851979.12     2.88106202E-02  15.277800    
 1.80560203E-06 6.02771477E-09  869205.13      869189.49     2.95903628E-02  15.610094    
 1.81769784E-06 6.06809470E-09  886458.08      886442.11     3.03700624E-02  15.940552    
 1.82987468E-06 6.10874514E-09  904877.17      904860.85     3.12274738E-02  16.290198    
 1.84213310E-06 6.14966790E-09  922800.72      922784.07     3.20478600E-02  16.624398    
 1.85447363E-06 6.19086481E-09  941520.53      941503.52     3.29206679E-02  16.969694    
 1.86689683E-06 6.23233769E-09  960672.80      960655.45     3.38211184E-02  17.319211    
 1.87940326E-06 6.27408840E-09  979697.97      979680.26     3.47093069E-02  17.674511    
 1.89199346E-06 6.31611880E-09  1000000.8      999982.73     3.56854337E-02  18.068300    
 1.90466801E-06 6.35843077E-09  1019905.7      1019887.2     3.66300277E-02  18.449043    
 1.91742747E-06 6.40102618E-09  1040448.6      1040429.7     3.76170314E-02  18.837761    
 1.93027240E-06 6.44390694E-09  1061760.2      1061740.9     3.86567519E-02  19.235807    
 1.94320339E-06 6.48707497E-09  1082787.3      1082767.6     3.96720545E-02  19.622928    
 1.95622099E-06 6.53053217E-09  1105070.2      1105050.1     4.07762230E-02  20.029822    
 1.96932581E-06 6.57428050E-09  1127222.8      1127202.3     4.18673214E-02  20.446998    
 1.98251841E-06 6.61832191E-09  1149765.1      1149744.2     4.29833488E-02  20.882787    
 1.99579939E-06 6.66265834E-09  1173478.1      1173456.8     4.41837397E-02  21.337914    
 2.00916934E-06 6.70729179E-09  1196717.7      1196695.9     4.53443474E-02  21.776477    
 2.02262885E-06 6.75222424E-09  1221172.6      1221150.3     4.65932342E-02  22.233040    
 2.03617854E-06 6.79745770E-09  1245825.2      1245802.5     4.78534022E-02  22.686597    
 2.04981899E-06 6.84299417E-09  1270560.4      1270537.2     4.91151893E-02  23.137987    
 2.06355082E-06 6.88883570E-09  1296943.7      1296920.0     5.05009209E-02  23.638350    
 2.07737464E-06 6.93498432E-09  1322628.4      1322604.2     5.18276279E-02  24.135015    
 2.09129106E-06 6.98144209E-09  1349465.6      1349440.9     5.32400633E-02  24.649140    
 2.10530072E-06 7.02821109E-09  1376898.7      1376873.5     5.46953209E-02  25.167312    
 2.11940422E-06 7.07529339E-09  1404161.6      1404135.8     5.61316749E-02  25.675260    
 2.13360221E-06 7.12269110E-09  1433267.4      1433241.1     5.77112773E-02  26.210775    
 2.14789530E-06 7.17040633E-09  1461777.9      1461751.1     5.92378404E-02  26.732148    
 2.16228415E-06 7.21844121E-09  1491228.1      1491200.8     6.08350834E-02  27.292128    
 2.17676939E-06 7.26679787E-09  1521753.4      1521725.5     6.25154322E-02  27.884446    
 2.19135167E-06 7.31547848E-09  1551884.3      1551855.7     6.41573501E-02  28.459827    
 2.20603163E-06 7.36448520E-09  1583828.0      1583798.9     6.59441629E-02  29.063449    
 2.22080994E-06 7.41382021E-09  1615557.2      1615527.5     6.77075046E-02  29.653905    
 2.23568724E-06 7.46348573E-09  1647873.2      1647842.9     6.95135534E-02  30.248074    
 2.25066421E-06 7.51348396E-09  1681837.1      1681806.1     7.14535823E-02  30.869527    
 2.26574151E-06 7.56381713E-09  1715137.3      1715105.8     7.33304815E-02  31.507178    
 2.28091982E-06 7.61448748E-09  1750193.9      1750161.7     7.53514939E-02  32.187093    
 2.29619980E-06 7.66549727E-09  1785503.1      1785470.1     7.73880851E-02  32.861467    
 2.31158215E-06 7.71684879E-09  1820961.8      1820928.2     7.94300258E-02  33.529954    
 2.32706754E-06 7.76854430E-09  1858749.3      1858715.0     8.16696091E-02  34.233443    
 2.34265667E-06 7.82058613E-09  1895552.1      1895517.1     8.38151169E-02  34.908997    
 2.35835023E-06 7.87297659E-09  1934022.9      1933987.2     8.61008036E-02  35.615469    
 2.37414893E-06 7.92571802E-09  1973313.3      1973276.8     8.84526997E-02  36.372401    
 2.39005346E-06 7.97881276E-09  2012376.7      2012339.5     9.07755233E-02  37.126861    
 2.40606454E-06 8.03226319E-09  2054098.1      2054060.0     9.33316802E-02  37.924905    
 2.42218287E-06 8.08607168E-09  2094930.8      2094892.0     9.57987560E-02  38.693336    
 2.43840918E-06 8.14024064E-09  2137146.3      2137106.7     9.83835230E-02  39.478565    
 2.45474420E-06 8.19477248E-09  2180864.0      2180823.7     0.10109921      40.280256    
 2.47118864E-06 8.24966963E-09  2224035.6      2223994.4     0.10375447      41.077280    
 2.48774324E-06 8.30493454E-09  2269823.7      2269781.6     0.10664595      41.961724    
 2.50440875E-06 8.36056967E-09  2315265.0      2315222.0     0.10949570      42.839113    
 2.52118589E-06 8.41657750E-09  2361587.2      2361543.4     0.11241839      43.722804    
 2.53807543E-06 8.47296053E-09  2410228.2      2410183.5     0.11555378      44.638894    
 2.55507811E-06 8.52972128E-09  2457939.4      2457893.8     0.11858903      45.524973    
 2.57219470E-06 8.58686227E-09  2508188.2      2508141.7     0.12185952      46.446137    
 2.58942595E-06 8.64438604E-09  2558754.8      2558707.2     0.12515090      47.386127    
 2.60677263E-06 8.70229518E-09  2609580.6      2609532.1     0.12845534      48.366923    
 2.62423551E-06 8.76059224E-09  2663695.9      2663646.4     0.13207488      49.414357    
 2.64181539E-06 8.81927985E-09  2716423.7      2716373.2     0.13554451      50.417924    
 2.65951303E-06 8.87836060E-09  2771565.0      2771513.4     0.13924333      51.455653    
 2.67732922E-06 8.93783714E-09  2827831.3      2827778.6     0.14304430      52.499594    
 2.69526477E-06 8.99771211E-09  2883796.9      2883743.2     0.14680068      53.525924    
 2.71332047E-06 9.05798819E-09  2943594.8      2943540.0     0.15093710      54.641787    
 2.73149713E-06 9.11866806E-09  3002068.8      3002012.9     0.15492412      55.774333    
 2.74979555E-06 9.17975443E-09  3062575.7      3062518.6     0.15910695      56.942525    
 2.76821656E-06 9.24125002E-09  3125180.2      3125121.9     0.16349588      58.135150    
 2.78676096E-06 9.30315757E-09  3187029.4      3186970.0     0.16778984      59.297218    
 2.80542960E-06 9.36547984E-09  3252654.3      3252593.6     0.17246892      60.514326    
 2.82422330E-06 9.42821962E-09  3317725.5      3317663.6     0.17707441      61.707892    
 2.84314290E-06 9.49137968E-09  3384116.7      3384053.5     0.18180410      62.950732    
 2.86218924E-06 9.55496287E-09  3453768.9      3453704.4     0.18687136      64.305242    
 2.88136318E-06 9.61897199E-09  3522119.5      3522053.7     0.19177984      65.621320    
 2.90066556E-06 9.68340992E-09  3594135.4      3594068.2     0.19707227      66.992841    
 2.92009725E-06 9.74827952E-09  3666543.5      3666474.9     0.20239149      68.351818    
 2.93965911E-06 9.81358368E-09  3739387.3      3739317.4     0.20773900      69.702594    
 2.95935202E-06 9.87932532E-09  3816875.6      3816804.2     0.21358875      71.122877    
 2.97917685E-06 9.94550737E-09  3892410.1      3892337.3     0.21919967      72.546639    
 2.99913449E-06 1.00121328E-08  3971435.5      3971361.2     0.22518526      74.083717    
 3.01922583E-06 1.00792045E-08  4052002.2      4051926.4     0.23132809      75.635887    
 3.03945176E-06 1.01467255E-08  4132173.4      4132096.0     0.23740272      77.159758    
 3.05981319E-06 1.02146989E-08  4217868.7      4217789.7     0.24409634      78.768068    
 3.08031101E-06 1.02831276E-08  4301594.8      4301514.2     0.25053968      80.317796    
 3.10094616E-06 1.03520148E-08  4388307.2      4388225.0     0.25730855      81.908370    
 3.12171953E-06 1.04213634E-08  4477946.0      4477862.1     0.26440165      83.608358    
 3.14263207E-06 1.04911766E-08  4566542.0      4566456.4     0.27134562      85.330757    
 3.16368471E-06 1.05614574E-08  4660584.8      4660497.4     0.27891741      87.143646    
 3.18487837E-06 1.06322091E-08  4753753.7      4753664.5     0.28636030      88.912143    
 3.20621402E-06 1.07034348E-08  4848895.8      4848804.8     0.29401417      90.696576    
 3.22769259E-06 1.07751376E-08  4948621.6      4948528.8     0.30220357      92.540273    
 3.24931505E-06 1.08473207E-08  5046526.6      5046432.0     0.31014130      94.338199    
 3.27108236E-06 1.09199874E-08  5149724.6      5149628.0     0.31870565      96.304291    
 3.29299549E-06 1.09931409E-08  5253394.1      5253295.4     0.32730207      98.323731    
 3.31505541E-06 1.10667844E-08  5357779.8      5357679.2     0.33595576      100.33110    
 3.33726312E-06 1.11409213E-08  5468720.6      5468617.9     0.34540983      102.43819    
 3.35961959E-06 1.12155548E-08  5576911.5      5576806.7     0.35448351      104.46397    
 3.38212584E-06 1.12906884E-08  5690150.0      5690043.1     0.36416960      106.55752    
 3.40478285E-06 1.13663252E-08  5805495.5      5805386.5     0.37409710      108.67597    
 3.42759164E-06 1.14424687E-08  5920324.9      5920213.6     0.38392065      110.87554    
 3.45055323E-06 1.15191223E-08  6043115.3      6043001.7     0.39475228      113.27212    
 3.47366865E-06 1.15962894E-08  6162981.6      6162865.6     0.40516519      115.57272    
 3.49693891E-06 1.16739735E-08  6287230.8      6287112.5     0.41611886      117.93033    
 3.52036506E-06 1.17521780E-08  6415559.0      6415438.3     0.42758216      120.33128    
 3.54394814E-06 1.18309064E-08  6542449.8      6542326.7     0.43881155      122.67674    
 3.56768921E-06 1.19101621E-08  6677196.0      6677070.4     0.45106428      125.15732    
 3.59158932E-06 1.19899488E-08  6810574.9      6810446.7     0.46309261      127.73068    
 3.61564954E-06 1.20702701E-08  6946898.1      6946767.3     0.47547849      130.38200    
 3.63987094E-06 1.21511293E-08  7089660.7      7089527.1     0.48871363      133.12539    
 3.66425460E-06 1.22325303E-08  7229878.1      7229741.8     0.50155004      135.78152    
 3.68880161E-06 1.23144766E-08  7377736.5      7377597.4     0.51540901      138.54718    
 3.71351306E-06 1.23969718E-08  7526140.8      7525999.0     0.52930162      141.28497    
 3.73839005E-06 1.24800197E-08  7675702.8      7675558.2     0.54330553      144.05102    
 3.76343369E-06 1.25636239E-08  7834512.6      7834364.9     0.55858462      147.12823    
 3.78864510E-06 1.26477882E-08  7989454.1      7989303.4     0.57325799      150.13564    
 3.81402541E-06 1.27325163E-08  8151691.9      8151538.1     0.58893225      153.25103    
 3.83957574E-06 1.28178120E-08  8316803.1      8316646.1     0.60497610      156.37665    
 3.86529723E-06 1.29036791E-08  8481246.9      8481086.8     0.62086210      159.45188    
 3.89119103E-06 1.29901214E-08  8657160.4      8656997.1     0.63838975      162.69258    
 3.91725829E-06 1.30771428E-08  8828738.6      8828572.0     0.65521766      165.88876    
 3.94350018E-06 1.31647472E-08  9006744.4      9006574.4     0.67294323      169.33841    
 3.96991787E-06 1.32529384E-08  9190430.4      9190256.8     0.69146920      172.90911    
 3.99651253E-06 1.33417205E-08  9372138.4      9371961.3     0.70962859      176.39157    
 4.02328535E-06 1.34310972E-08  9565172.4      9564991.6     0.72945595      180.04575    
 4.05023752E-06 1.35210728E-08  9756083.0      9755898.6     0.74889460      183.60944    
 4.07737024E-06 1.36116511E-08  9951378.3      9951190.3     0.76893791      187.21113    
 4.10468473E-06 1.37028361E-08  10155714.      10155523.     0.79032748      191.03253    
 4.13218219E-06 1.37946320E-08  10356496.      10356300.     0.81108559      194.93308    
