 OPTXAGNF AGN Spectrum Model Parameters: BLS, Astar 0.0                          
 M_BH:  4.0000E+06 M_0            L  :  5.0000E-02 L/Ledd 
 D   :  1.5000E+18 cm             z  :   0.000     redshift 
 Rcor:   60.00     Rg             Ro :   4.000     Rg 
 C_T :  0.2000     keV            Tau:   15.00     Optical Depth 
 gam :   1.800     (-slope)       fpl:  0.5000     Fraction 
 E              0.5DeltaE      E.FE total     E.FE Disk      E.FE Compton   E.FE NonThermal
 (keV)          (keV)          E.E/cm2/s/E    E.E/cm2/s/E    E.E/cm2/s/E    E.E/cm2/s/E    
 1.00334952E-06 3.34952256E-09  125737.20      125734.17     4.82279791E-03  3.0290033    
 1.01007101E-06 3.37196116E-09  128229.08      128225.98     4.94950536E-03  3.0956188    
 1.01683752E-06 3.39455008E-09  130825.95      130822.78     5.08385393E-03  3.1644953    
 1.02364936E-06 3.41729032E-09  133494.50      133491.26     5.22336950E-03  3.2343484    
 1.03050683E-06 3.44018290E-09  136139.64      136136.34     5.36054914E-03  3.3024757    
 1.03741024E-06 3.46322884E-09  138956.41      138953.03     5.51081544E-03  3.3758266    
 1.04435990E-06 3.48642917E-09  141730.03      141726.57     5.65718801E-03  3.4510297    
 1.05135611E-06 3.50978492E-09  144579.94      144576.41     5.80910985E-03  3.5285227    
 1.05839920E-06 3.53329712E-09  147549.56      147545.94     5.97019827E-03  3.6084504    
 1.06548946E-06 3.55696684E-09  150473.25      150469.56     6.12701080E-03  3.6856670    
 1.07262722E-06 3.58079512E-09  153564.89      153561.12     6.29698328E-03  3.7666659    
 1.07981280E-06 3.60478303E-09  156651.91      156648.06     6.46605158E-03  3.8462546    
 1.08704652E-06 3.62893164E-09  159779.36      159775.43     6.63782785E-03  3.9275567    
 1.09432869E-06 3.65324201E-09  163083.81      163079.79     6.82380330E-03  4.0181180    
 1.10165965E-06 3.67771524E-09  166315.37      166311.26     7.00305839E-03  4.1056421    
 1.10903971E-06 3.70235243E-09  169708.56      169704.35     7.19530293E-03  4.1968560    
 1.11646922E-06 3.72715465E-09  173144.19      173139.90     7.39056185E-03  4.2877994    
 1.12394850E-06 3.75212303E-09  176576.05      176571.66     7.58476708E-03  4.3773331    
 1.13147788E-06 3.77725867E-09  180252.87      180248.39     7.79945009E-03  4.4723335    
 1.13905770E-06 3.80256270E-09  183824.70      183820.12     8.00435949E-03  4.5658759    
 1.14668830E-06 3.82803623E-09  187548.65      187543.97     8.22177320E-03  4.6677806    
 1.15437002E-06 3.85368042E-09  191372.05      191367.27     8.44725261E-03  4.7717951    
 1.16210319E-06 3.87949640E-09  195163.53      195158.65     8.66909736E-03  4.8732196    
 1.16988818E-06 3.90548532E-09  199202.73      199197.74     8.91226576E-03  4.9803954    
 1.17772531E-06 3.93164835E-09  203176.59      203171.49     9.14882153E-03  5.0839871    
 1.18561494E-06 3.95798663E-09  207263.35      207258.15     9.39467512E-03  5.1893099    
 1.19355743E-06 3.98450137E-09  211518.02      211512.71     9.65502141E-03  5.3019266    
 1.20155313E-06 4.01119372E-09  215708.70      215703.27     9.90861598E-03  5.4163056    
 1.20960239E-06 4.03806489E-09  220142.01      220136.46     1.01836754E-02  5.5370368    
 1.21770557E-06 4.06511607E-09  224564.82      224559.16     1.04569121E-02  5.6554186    
 1.22586303E-06 4.09234846E-09  229049.53      229043.75     1.07348975E-02  5.7739471    
 1.23407514E-06 4.11976329E-09  233783.84      233777.94     1.10354674E-02  5.8976516    
 1.24234227E-06 4.14736177E-09  238415.72      238409.69     1.13253555E-02  6.0170688    
 1.25066478E-06 4.17514513E-09  243281.35      243275.20     1.16364585E-02  6.1463674    
 1.25904304E-06 4.20311462E-09  248203.56      248197.26     1.19520249E-02  6.2812398    
 1.26747742E-06 4.23127147E-09  253124.71      253118.29     1.22663089E-02  6.4145348    
 1.27596831E-06 4.25961695E-09  258392.44      258385.88     1.26132775E-02  6.5560355    
 1.28451608E-06 4.28815232E-09  263511.94      263505.24     1.29446530E-02  6.6910390    
 1.29312111E-06 4.31687884E-09  268851.81      268844.96     1.32964884E-02  6.8303630    
 1.30178379E-06 4.34579781E-09  274329.44      274322.45     1.36608979E-02  6.9720227    
 1.31050450E-06 4.37491051E-09  279763.70      279756.57     1.40196607E-02  7.1168315    
 1.31928362E-06 4.40421823E-09  285555.48      285548.18     1.44131666E-02  7.2760563    
 1.32812156E-06 4.43372228E-09  291248.59      291241.14     1.47954681E-02  7.4301141    
 1.33701871E-06 4.46342399E-09  297108.62      297101.02     1.51933292E-02  7.5869481    
 1.34597546E-06 4.49332467E-09  303204.02      303196.25     1.56140917E-02  7.7480184    
 1.35499221E-06 4.52342565E-09  309210.32      309202.40     1.60241993E-02  7.9044123    
 1.36406936E-06 4.55372829E-09  315567.09      315559.00     1.64693150E-02  8.0690734    
 1.37320733E-06 4.58423392E-09  321903.28      321895.02     1.69109002E-02  8.2393093    
 1.38240650E-06 4.61494391E-09  328333.83      328325.40     1.73607623E-02  8.4153227    
 1.39166731E-06 4.64585962E-09  335116.26      335107.64     1.78465358E-02  8.5995110    
 1.40099015E-06 4.67698245E-09  341754.78      341745.99     1.83153361E-02  8.7766982    
 1.41037545E-06 4.70831376E-09  348731.35      348722.37     1.88187821E-02  8.9609416    
 1.41982361E-06 4.73985497E-09  355782.82      355773.66     1.93287809E-02  9.1444599    
 1.42933508E-06 4.77160747E-09  362839.07      362829.73     1.98373877E-02  9.3273015    
 1.43891026E-06 4.80357269E-09  370385.53      370375.98     2.03981531E-02  9.5314406    
 1.44854958E-06 4.83575204E-09  377722.78      377713.03     2.09340455E-02  9.7321491    
 1.45825348E-06 4.86814696E-09  385379.20      385369.24     2.15034101E-02  9.9396070    
 1.46802239E-06 4.90075889E-09  393226.24      393216.06     2.20923499E-02  10.149294    
 1.47785673E-06 4.93358930E-09  401014.50      401004.12     2.26725321E-02  10.354526    
 1.48775696E-06 4.96663964E-09  409318.62      409308.02     2.33093186E-02  10.570663    
 1.49772351E-06 4.99991138E-09  417474.19      417463.38     2.39271597E-02  10.782899    
 1.50775683E-06 5.03340601E-09  425876.29      425865.26     2.45710099E-02  11.010328    
 1.51785736E-06 5.06712502E-09  434608.13      434596.85     2.52510288E-02  11.250043    
 1.52802556E-06 5.10106992E-09  443216.04      443204.54     2.59142439E-02  11.482532    
 1.53826187E-06 5.13524222E-09  452330.11      452318.35     2.66345509E-02  11.726139    
 1.54856676E-06 5.16964344E-09  461406.72      461394.73     2.73482060E-02  11.965066    
 1.55894067E-06 5.20427512E-09  470626.66      470614.43     2.80762122E-02  12.204842    
 1.56938409E-06 5.23913879E-09  480342.46      480329.98     2.88613042E-02  12.458274    
 1.57989746E-06 5.27423602E-09  489856.23      489843.49     2.96194348E-02  12.717157    
 1.59048127E-06 5.30956836E-09  499858.75      499845.73     3.04341388E-02  12.991541    
 1.60113597E-06 5.34513740E-09  509959.80      509946.51     3.12583640E-02  13.264452    
 1.61186206E-06 5.38094472E-09  520076.69      520063.12     3.20814408E-02  13.534206    
 1.62265999E-06 5.41699191E-09  530886.71      530872.86     3.29877377E-02  13.818889    
 1.63353026E-06 5.45328058E-09  541401.57      541387.45     3.38543669E-02  14.091966    
 1.64447336E-06 5.48981235E-09  552378.59      552364.18     3.47757489E-02  14.378698    
 1.65548976E-06 5.52658885E-09  563619.01      563604.29     3.57275593E-02  14.686815    
 1.66657996E-06 5.56361172E-09  574780.07      574765.05     3.66658118E-02  14.991805    
 1.67774445E-06 5.60088261E-09  586685.36      586670.01     3.76962804E-02  15.313889    
 1.68898374E-06 5.63840317E-09  598367.53      598351.87     3.86947752E-02  15.624856    
 1.70029832E-06 5.67617509E-09  610413.41      610397.43     3.97367001E-02  15.941760    
 1.71168869E-06 5.71420004E-09  622920.93      622904.62     4.08357141E-02  16.266168    
 1.72315537E-06 5.75247973E-09  635256.28      635239.65     4.19082439E-02  16.589862    
 1.73469887E-06 5.79101585E-09  648322.48      648305.49     4.30738737E-02  16.949383    
 1.74631969E-06 5.82981012E-09  661323.67      661306.32     4.42272215E-02  17.304475    
 1.75801837E-06 5.86886429E-09  674541.82      674524.11     4.54053402E-02  17.661097    
 1.76979541E-06 5.90818007E-09  688458.45      688440.37     4.66741759E-02  18.031824    
 1.78165135E-06 5.94775924E-09  702091.56      702073.13     4.79001986E-02  18.389899    
 1.79358672E-06 5.98760354E-09  716431.15      716412.34     4.92185921E-02  18.761704    
 1.80560203E-06 6.02771477E-09  730899.34      730880.14     5.05506425E-02  19.144673    
 1.81769784E-06 6.06809470E-09  745403.10      745383.50     5.18826194E-02  19.542672    
 1.82987468E-06 6.10874514E-09  760886.66      760866.64     5.33473506E-02  19.966579    
 1.84213310E-06 6.14966790E-09  775953.96      775933.53     5.47488319E-02  20.372144    
 1.85447363E-06 6.19086481E-09  791690.28      791669.44     5.62398644E-02  20.790973    
 1.86689683E-06 6.23233769E-09  807790.00      807768.73     5.77781182E-02  21.213428    
 1.87940326E-06 6.27408840E-09  823782.98      823761.29     5.92954249E-02  21.628298    
 1.89199346E-06 6.31611880E-09  840849.45      840827.30     6.09629551E-02  22.082425    
 1.90466801E-06 6.35843077E-09  857581.63      857559.02     6.25766182E-02  22.542430    
 1.91742747E-06 6.40102618E-09  874849.87      874826.79     6.42627288E-02  23.013886    
 1.93027240E-06 6.44390694E-09  892763.99      892740.43     6.60388944E-02  23.496543    
 1.94320339E-06 6.48707497E-09  910439.19      910415.16     6.77733471E-02  23.966175    
 1.95622099E-06 6.53053217E-09  929169.41      929144.88     6.96596076E-02  24.457440    
 1.96932581E-06 6.57428050E-09  947790.22      947765.21     7.15235404E-02  24.941057    
 1.98251841E-06 6.61832191E-09  966738.51      966712.99     7.34300587E-02  25.446982    
 1.99579939E-06 6.66265834E-09  986670.30      986644.23     7.54806928E-02  25.996533    
 2.00916934E-06 6.70729179E-09  1006204.5      1006177.9     7.74633661E-02  26.528419    
 2.02262885E-06 6.75222424E-09  1026759.7      1026732.5     7.95968440E-02  27.081977    
 2.03617854E-06 6.79745770E-09  1047481.0      1047453.3     8.17495928E-02  27.631951    
 2.04981899E-06 6.84299417E-09  1068271.7      1068243.4     8.39051075E-02  28.177156    
 2.06355082E-06 6.88883570E-09  1090447.0      1090418.1     8.62723525E-02  28.753165    
 2.07737464E-06 6.93498432E-09  1112035.5      1112006.0     8.85387673E-02  29.333656    
 2.09129106E-06 6.98144209E-09  1134592.2      1134562.2     9.09516287E-02  29.954949    
 2.10530072E-06 7.02821109E-09  1157649.6      1157618.9     9.34376417E-02  30.583149    
 2.11940422E-06 7.07529339E-09  1180564.0      1180532.7     9.58913621E-02  31.199026    
 2.13360221E-06 7.12269110E-09  1205026.5      1204994.6     9.85897880E-02  31.848195    
 2.14789530E-06 7.17040633E-09  1228989.1      1228956.6     0.10119761      32.475364    
 2.16228415E-06 7.21844121E-09  1253741.1      1253707.9     0.10392617      33.119551    
 2.17676939E-06 7.26679787E-09  1279396.1      1279362.2     0.10679669      33.813248    
 2.19135167E-06 7.31547848E-09  1304720.0      1304685.4     0.10960157      34.509802    
 2.20603163E-06 7.36448520E-09  1331566.6      1331531.3     0.11265396      35.241502    
 2.22080994E-06 7.41382021E-09  1358233.2      1358197.1     0.11566626      35.957254    
 2.23568724E-06 7.46348573E-09  1385392.7      1385355.9     0.11875151      36.677507    
 2.25066421E-06 7.51348396E-09  1413936.2      1413898.7     0.12206564      37.423598    
 2.26574151E-06 7.56381713E-09  1441922.6      1441884.3     0.12527192      38.154031    
 2.28091982E-06 7.61448748E-09  1471384.1      1471345.0     0.12872438      38.953346    
 2.29619980E-06 7.66549727E-09  1501057.8      1501017.9     0.13220346      39.770711    
 2.31158215E-06 7.71684879E-09  1530857.4      1530816.6     0.13569167      40.580906    
 2.32706754E-06 7.76854430E-09  1562612.7      1562571.2     0.13951750      41.433627    
 2.34265667E-06 7.82058613E-09  1593541.2      1593498.9     0.14318263      42.252379    
 2.35835023E-06 7.87297659E-09  1625870.7      1625827.5     0.14708722      43.097453    
 2.37414893E-06 7.92571802E-09  1658888.5      1658844.4     0.15110491      43.960749    
 2.39005346E-06 7.97881276E-09  1691715.9      1691670.9     0.15507294      44.854779    
 2.40606454E-06 8.03226319E-09  1726775.4      1726729.4     0.15943955      45.822078    
 2.42218287E-06 8.08607168E-09  1761088.9      1761042.0     0.16365399      46.753253    
 2.43840918E-06 8.14024064E-09  1796563.7      1796515.8     0.16806948      47.704861    
 2.45474420E-06 8.19477248E-09  1833300.1      1833251.2     0.17270861      48.676504    
 2.47118864E-06 8.24966963E-09  1869578.0      1869528.2     0.17724450      49.624618    
 2.48774324E-06 8.30493454E-09  1908053.1      1908002.3     0.18218393      50.631225    
 2.50440875E-06 8.36056967E-09  1946237.2      1946185.3     0.18705207      51.679191    
 2.52118589E-06 8.41657750E-09  1985161.2      1985108.3     0.19204480      52.749947    
 2.53807543E-06 8.47296053E-09  2026032.3      2025978.3     0.19740087      53.860229    
 2.55507811E-06 8.52972128E-09  2066123.0      2066067.8     0.20258589      54.933780    
 2.57219470E-06 8.58686227E-09  2108344.4      2108288.1     0.20817274      56.050143    
 2.58942595E-06 8.64438604E-09  2150832.7      2150775.4     0.21379527      57.158111    
 2.60677263E-06 8.70229518E-09  2193539.1      2193480.6     0.21944011      58.279034    
 2.62423551E-06 8.76059224E-09  2239007.3      2238947.6     0.22562322      59.534232    
 2.64181539E-06 8.81927985E-09  2283311.0      2283250.0     0.23155024      60.749946    
 2.65951303E-06 8.87836060E-09  2329641.0      2329578.8     0.23786877      62.007407    
 2.67732922E-06 8.93783714E-09  2376915.8      2376852.3     0.24436178      63.272391    
 2.69526477E-06 8.99771211E-09  2423938.5      2423873.7     0.25077863      64.515347    
 2.71332047E-06 9.05798819E-09  2474178.4      2474112.4     0.25784468      65.823507    
 2.73149713E-06 9.11866806E-09  2523307.3      2523239.9     0.26465550      67.124838    
 2.74979555E-06 9.17975443E-09  2574143.1      2574074.3     0.27180081      68.526006    
 2.76821656E-06 9.24125002E-09  2626740.0      2626669.8     0.27929819      69.971190    
 2.78676096E-06 9.30315757E-09  2678703.2      2678631.5     0.28663334      71.378758    
 2.80542960E-06 9.36547984E-09  2733836.0      2733762.8     0.29462635      72.853744    
 2.82422330E-06 9.42821962E-09  2788504.3      2788429.7     0.30249364      74.296040    
 2.84314290E-06 9.49137968E-09  2844281.0      2844204.9     0.31057310      75.749970    
 2.86218924E-06 9.55496287E-09  2902795.1      2902717.5     0.31922919      77.308365    
 2.88136318E-06 9.61897199E-09  2960217.2      2960138.0     0.32761404      78.892100    
 2.90066556E-06 9.68340992E-09  3020716.1      3020635.2     0.33665475      80.553996    
 2.92009725E-06 9.74827952E-09  3081544.4      3081461.8     0.34574124      82.200330    
 2.93965911E-06 9.81358368E-09  3142738.9      3142654.7     0.35487604      83.836400    
 2.95935202E-06 9.87932532E-09  3207831.8      3207745.9     0.36486876      85.551736    
 2.97917685E-06 9.94550737E-09  3271285.2      3271197.7     0.37445352      87.207748    
 2.99913449E-06 1.00121328E-08  3337668.9      3337579.5     0.38467828      88.982805    
 3.01922583E-06 1.00792045E-08  3405346.6      3405255.4     0.39517162      90.854201    
 3.03945176E-06 1.01467255E-08  3472692.8      3472599.7     0.40554848      92.699632    
 3.05981319E-06 1.02146989E-08  3544675.3      3544580.3     0.41698266      94.648804    
 3.08031101E-06 1.02831276E-08  3615005.7      3614908.8     0.42798934      96.525649    
 3.10094616E-06 1.03520148E-08  3687842.6      3687743.8     0.43955207      98.445735    
 3.12171953E-06 1.04213634E-08  3763135.7      3763034.8     0.45166863      100.41060    
 3.14263207E-06 1.04911766E-08  3837554.2      3837451.4     0.46353047      102.41115    
 3.16368471E-06 1.05614574E-08  3916544.0      3916438.9     0.47646470      104.59894    
 3.18487837E-06 1.06322091E-08  3994800.8      3994693.5     0.48917877      106.74083    
 3.20621402E-06 1.07034348E-08  4074714.0      4074604.6     0.50225322      108.90208    
 3.22769259E-06 1.07751376E-08  4158473.7      4158362.1     0.51624244      111.13616    
 3.24931505E-06 1.08473207E-08  4240706.3      4240592.4     0.52980176      113.30223    
 3.27108236E-06 1.09199874E-08  4327380.4      4327264.3     0.54443144      115.56611    
 3.29299549E-06 1.09931409E-08  4414450.7      4414332.2     0.55911590      117.92285    
 3.31505541E-06 1.10667844E-08  4502122.8      4502001.8     0.57389820      120.34744    
 3.33726312E-06 1.11409213E-08  4595295.0      4595171.6     0.59004765      122.90095    
 3.35961959E-06 1.12155548E-08  4686160.8      4686034.9     0.60554734      125.35380    
 3.38212584E-06 1.12906884E-08  4781262.0      4781133.5     0.62209310      127.88999    
 3.40478285E-06 1.13663252E-08  4878131.5      4878000.5     0.63905123      130.43702    
 3.42759164E-06 1.14424687E-08  4974568.7      4974435.0     0.65583181      132.96119    
 3.45055323E-06 1.15191223E-08  5077685.2      5077548.8     0.67433431      135.76576    
 3.47366865E-06 1.15962894E-08  5178349.4      5178210.2     0.69212159      138.55133    
 3.49693891E-06 1.16739735E-08  5282691.2      5282549.1     0.71083254      141.40689    
 3.52036506E-06 1.17521780E-08  5390455.4      5390310.3     0.73041402      144.31564    
 3.54394814E-06 1.18309064E-08  5497014.6      5496866.6     0.74959595      147.15541    
 3.56768921E-06 1.19101621E-08  5610163.8      5610012.9     0.77052587      150.12824    
 3.59158932E-06 1.19899488E-08  5722166.9      5722013.0     0.79107248      153.06787    
 3.61564954E-06 1.20702701E-08  5836640.7      5836483.7     0.81222982      156.19183    
 3.63987094E-06 1.21511293E-08  5956516.3      5956356.0     0.83483780      159.51584    
 3.66425460E-06 1.22325303E-08  6074258.2      6074094.6     0.85676469      162.73152    
 3.68880161E-06 1.23144766E-08  6198409.7      6198242.8     0.88043824      166.08218    
 3.71351306E-06 1.23969718E-08  6323020.0      6322849.7     0.90416924      169.39792    
 3.73839005E-06 1.24800197E-08  6448602.3      6448428.6     0.92809036      172.70067    
 3.76343369E-06 1.25636239E-08  6581941.1      6581763.9     0.95418961      176.19941    
 3.78864510E-06 1.26477882E-08  6712037.0      6711856.2     0.97925424      179.77659    
 3.81402541E-06 1.27325163E-08  6848253.0      6848068.4      1.0060285      183.55030    
 3.83957574E-06 1.28178120E-08  6986879.5      6986691.2      1.0334340      187.33616    
 3.86529723E-06 1.29036791E-08  7124947.7      7124755.6      1.0605699      191.05905    
 3.89119103E-06 1.29901214E-08  7272635.0      7272439.0      1.0905099      194.98628    
 3.91725829E-06 1.30771428E-08  7416688.0      7416488.1      1.1192547      198.76869    
 3.94350018E-06 1.31647472E-08  7566132.0      7565928.1      1.1495327      202.70185    
 3.96991787E-06 1.32529384E-08  7720340.1      7720132.0      1.1811779      206.96887    
 3.99651253E-06 1.33417205E-08  7872891.2      7872678.8      1.2121970      211.18430    
 4.02328535E-06 1.34310972E-08  8034939.9      8034723.1      1.2460651      215.61191    
 4.05023752E-06 1.35210728E-08  8195209.6      8194988.4      1.2792692      219.92683    
 4.07737024E-06 1.36116511E-08  8359157.0      8358931.4      1.3135061      224.28809    
 4.10468473E-06 1.37028361E-08  8530685.4      8530455.3      1.3500425      228.78347    
 4.13218219E-06 1.37946320E-08  8699235.4      8699000.7      1.3855004      233.25326    
