 OPTXAGNF AGN Spectrum Model Parameters: BLS, Astar 0.0                          
 M_BH:  4.0000E+06 M_0            L  :  0.2000     L/Ledd 
 D   :  1.5000E+18 cm             z  :   0.000     redshift 
 Rcor:   60.00     Rg             Ro :   4.000     Rg 
 C_T :  0.2000     keV            Tau:   15.00     Optical Depth 
 gam :   1.800     (-slope)       fpl:  0.5000     Fraction 
 E              0.5DeltaE      E.FE total     E.FE Disk      E.FE Compton   E.FE NonThermal
 (keV)          (keV)          E.E/cm2/s/E    E.E/cm2/s/E    E.E/cm2/s/E    E.E/cm2/s/E    
 1.00334952E-06 3.34952256E-09  177623.49      177619.92     1.66593605E-03  3.5689069    
 1.01007101E-06 3.37196116E-09  181144.56      181140.98     1.70970521E-03  3.5716978    
 1.01683752E-06 3.39455008E-09  184814.04      184810.47     1.75611391E-03  3.5713970    
 1.02364936E-06 3.41729032E-09  188584.87      188581.30     1.80430751E-03  3.5701105    
 1.03050683E-06 3.44018290E-09  192322.59      192319.01     1.85169420E-03  3.5728876    
 1.03741024E-06 3.46322884E-09  196302.95      196299.38     1.90360155E-03  3.5695197    
 1.04435990E-06 3.48642917E-09  200222.28      200218.70     1.95416386E-03  3.5713081    
 1.05135611E-06 3.50978492E-09  204249.46      204245.89     2.00664312E-03  3.5720101    
 1.05839920E-06 3.53329712E-09  208445.89      208442.31     2.06228891E-03  3.5697182    
 1.06548946E-06 3.55696684E-09  212577.36      212573.79     2.11645763E-03  3.5724998    
 1.07262722E-06 3.58079512E-09  216946.30      216942.73     2.17517236E-03  3.5701326    
 1.07981280E-06 3.60478303E-09  221308.69      221305.12     2.23357476E-03  3.5709177    
 1.08704652E-06 3.62893164E-09  225728.23      225724.66     2.29291260E-03  3.5726231    
 1.09432869E-06 3.65324201E-09  230398.02      230394.45     2.35715546E-03  3.5693253    
 1.10165965E-06 3.67771524E-09  234964.74      234961.16     2.41907683E-03  3.5721114    
 1.10903971E-06 3.70235243E-09  239759.97      239756.40     2.48548532E-03  3.5707455    
 1.11646922E-06 3.72715465E-09  244615.22      244611.65     2.55293512E-03  3.5705268    
 1.12394850E-06 3.75212303E-09  249465.11      249461.53     2.62002094E-03  3.5732362    
 1.13147788E-06 3.77725867E-09  254661.38      254657.81     2.69418069E-03  3.5689317    
 1.13905770E-06 3.80256270E-09  259709.16      259705.58     2.76496421E-03  3.5717223    
 1.14668830E-06 3.82803623E-09  264972.04      264968.46     2.84006729E-03  3.5713585    
 1.15437002E-06 3.85368042E-09  270375.52      270371.95     2.91795663E-03  3.5701351    
 1.16210319E-06 3.87949640E-09  275733.85      275730.27     2.99459040E-03  3.5729120    
 1.16988818E-06 3.90548532E-09  281442.49      281438.92     3.07859034E-03  3.5694812    
 1.17772531E-06 3.93164835E-09  287058.69      287055.11     3.16030599E-03  3.5713326    
 1.18561494E-06 3.95798663E-09  292834.54      292830.97     3.24523353E-03  3.5719715    
 1.19355743E-06 3.98450137E-09  298847.83      298844.25     3.33516754E-03  3.5697429    
 1.20155313E-06 4.01119372E-09  304770.58      304767.01     3.42276920E-03  3.5725242    
 1.20960239E-06 4.03806489E-09  311036.47      311032.89     3.51778581E-03  3.5700941    
 1.21770557E-06 4.06511607E-09  317287.48      317283.91     3.61217282E-03  3.5709423    
 1.22586303E-06 4.09234846E-09  323626.01      323622.43     3.70820024E-03  3.5725846    
 1.23407514E-06 4.11976329E-09  330317.53      330313.96     3.81202943E-03  3.5693500    
 1.24234227E-06 4.14736177E-09  336864.15      336860.57     3.91216864E-03  3.5721358    
 1.25066478E-06 4.17514513E-09  343741.36      343737.78     4.01963649E-03  3.5707070    
 1.25904304E-06 4.20311462E-09  350698.54      350694.96     4.12864624E-03  3.5705514    
 1.26747742E-06 4.23127147E-09  357654.21      357650.63     4.23721301E-03  3.5731977    
 1.27596831E-06 4.25961695E-09  365100.06      365096.49     4.35707064E-03  3.5689565    
 1.28451608E-06 4.28815232E-09  372336.22      372332.64     4.47154168E-03  3.5763608    
 1.29312111E-06 4.31687884E-09  379884.10      379880.46     4.59308055E-03  3.6365746    
 1.30178379E-06 4.34579781E-09  387626.88      387623.13     4.71896318E-03  3.7409778    
 1.31050450E-06 4.37491051E-09  395308.25      395304.40     4.84289518E-03  3.8417009    
 1.31928362E-06 4.40421823E-09  403495.31      403491.35     4.97882922E-03  3.9500494    
 1.32812156E-06 4.43372228E-09  411542.76      411538.70     5.11089268E-03  4.0531406    
 1.33701871E-06 4.46342399E-09  419826.30      419822.14     5.24833124E-03  4.1584523    
 1.34597546E-06 4.49332467E-09  428442.76      428438.49     5.39368114E-03  4.2682367    
 1.35499221E-06 4.52342565E-09  436933.14      436928.76     5.53535033E-03  4.3794449    
 1.36406936E-06 4.55372829E-09  445919.29      445914.79     5.68911309E-03  4.5011903    
 1.37320733E-06 4.58423392E-09  454876.27      454871.65     5.84165631E-03  4.6195605    
 1.38240650E-06 4.61494391E-09  463966.70      463961.95     5.99705878E-03  4.7379982    
 1.39166731E-06 4.64585962E-09  473554.89      473550.02     6.16486698E-03  4.8629084    
 1.40099015E-06 4.67698245E-09  482939.45      482934.46     6.32681178E-03  4.9815494    
 1.41037545E-06 4.70831376E-09  492802.21      492797.10     6.50072502E-03  5.1074760    
 1.41982361E-06 4.73985497E-09  502770.92      502765.67     6.67690200E-03  5.2402711    
 1.42933508E-06 4.77160747E-09  512746.33      512740.95     6.85259814E-03  5.3732975    
 1.43891026E-06 4.80357269E-09  523415.25      523409.73     7.04631270E-03  5.5165616    
 1.44854958E-06 4.83575204E-09  533788.11      533782.45     7.23143482E-03  5.6512890    
 1.45825348E-06 4.86814696E-09  544612.51      544606.71     7.42812005E-03  5.7913974    
 1.46802239E-06 4.90075889E-09  555706.56      555700.62     7.63156770E-03  5.9331654    
 1.47785673E-06 4.93358930E-09  566717.39      566711.31     7.83198998E-03  6.0730372    
 1.48775696E-06 4.96663964E-09  578458.10      578451.86     8.05196661E-03  6.2314480    
 1.49772351E-06 4.99991138E-09  589988.55      589982.16     8.26539844E-03  6.3856587    
 1.50775683E-06 5.03340601E-09  601867.77      601861.22     8.48781530E-03  6.5432589    
 1.51785736E-06 5.06712502E-09  614213.51      614206.80     8.72272695E-03  6.7057611    
 1.52802556E-06 5.10106992E-09  626383.82      626376.95     8.95183362E-03  6.8621560    
 1.53826187E-06 5.13524222E-09  639270.32      639263.28     9.20066313E-03  7.0274022    
 1.54856676E-06 5.16964344E-09  652103.76      652096.55     9.44719473E-03  7.1924577    
 1.55894067E-06 5.20427512E-09  665139.95      665132.57     9.69868409E-03  7.3666458    
 1.56938409E-06 5.23913879E-09  678877.80      678870.24     9.96989422E-03  7.5529052    
 1.57989746E-06 5.27423602E-09  692329.64      692321.90     1.02317904E-02  7.7303886    
 1.59048127E-06 5.30956836E-09  706473.08      706465.15     1.05132303E-02  7.9163970    
 1.60113597E-06 5.34513740E-09  720755.90      720747.79     1.07979595E-02  8.1010364    
 1.61186206E-06 5.38094472E-09  735061.03      735052.74     1.10822920E-02  8.2829165    
 1.62265999E-06 5.41699191E-09  750347.10      750338.60     1.13953738E-02  8.4821765    
 1.63353026E-06 5.45328058E-09  765215.32      765206.63     1.16947521E-02  8.6815129    
 1.64447336E-06 5.48981235E-09  780737.57      780728.67     1.20130453E-02  8.8908009    
 1.65548976E-06 5.52658885E-09  796632.53      796623.41     1.23418503E-02  9.1022868    
 1.66657996E-06 5.56361172E-09  812415.05      812405.73     1.26659717E-02  9.3081875    
 1.67774445E-06 5.60088261E-09  829250.88      829241.34     1.30219503E-02  9.5271783    
 1.68898374E-06 5.63840317E-09  845770.81      845761.06     1.33668832E-02  9.7376678    
 1.70029832E-06 5.67617509E-09  862805.44      862795.47     1.37268197E-02  9.9588620    
 1.71168869E-06 5.71420004E-09  880493.46      880483.24     1.41064783E-02  10.199157    
 1.72315537E-06 5.75247973E-09  897937.64      897927.20     1.44769877E-02  10.432703    
 1.73469887E-06 5.79101585E-09  916416.26      916405.56     1.48796599E-02  10.679299    
 1.74631969E-06 5.82981012E-09  934802.72      934791.79     1.52780891E-02  10.919782    
 1.75801837E-06 5.86886429E-09  953496.20      953485.02     1.56850758E-02  11.161207    
 1.76979541E-06 5.90818007E-09  973178.37      973166.94     1.61234022E-02  11.413805    
 1.78165135E-06 5.94775924E-09  992459.06      992447.37     1.65469382E-02  11.665106    
 1.79358672E-06 5.98760354E-09  1012739.8      1012727.8     1.70023852E-02  11.941006    
 1.80560203E-06 6.02771477E-09  1033202.4      1033190.2     1.74625503E-02  12.216267    
 1.81769784E-06 6.06809470E-09  1053715.3      1053702.8     1.79226901E-02  12.487808    
 1.82987468E-06 6.10874514E-09  1075615.2      1075602.4     1.84286921E-02  12.776289    
 1.84213310E-06 6.14966790E-09  1096925.6      1096912.5     1.89128435E-02  13.050850    
 1.85447363E-06 6.19086481E-09  1119183.1      1119169.8     1.94279320E-02  13.335689    
 1.86689683E-06 6.23233769E-09  1141955.0      1141941.4     1.99593340E-02  13.636183    
 1.87940326E-06 6.27408840E-09  1164575.6      1164561.7     2.04834996E-02  13.942367    
 1.89199346E-06 6.31611880E-09  1188716.1      1188701.8     2.10595628E-02  14.268988    
 1.90466801E-06 6.35843077E-09  1212383.0      1212368.4     2.16170167E-02  14.582151    
 1.91742747E-06 6.40102618E-09  1236808.8      1236793.9     2.21994990E-02  14.902175    
 1.93027240E-06 6.44390694E-09  1262149.1      1262133.8     2.28130928E-02  15.230283    
 1.94320339E-06 6.48707497E-09  1287150.8      1287135.2     2.34122762E-02  15.549249    
 1.95622099E-06 6.53053217E-09  1313646.3      1313630.4     2.40639047E-02  15.901467    
 1.96932581E-06 6.57428050E-09  1339986.8      1339970.5     2.47078199E-02  16.259698    
 1.98251841E-06 6.61832191E-09  1366790.8      1366774.2     2.53664472E-02  16.619719    
 1.99579939E-06 6.66265834E-09  1394987.4      1394970.4     2.60748626E-02  16.995152    
 2.00916934E-06 6.70729179E-09  1422620.7      1422603.4     2.67597996E-02  17.355997    
 2.02262885E-06 6.75222424E-09  1451699.8      1451682.1     2.74968357E-02  17.732400    
 2.03617854E-06 6.79745770E-09  1481014.0      1480995.9     2.82405295E-02  18.108364    
 2.04981899E-06 6.84299417E-09  1510426.3      1510407.8     2.89851789E-02  18.499399    
 2.06355082E-06 6.88883570E-09  1541799.4      1541780.4     2.98029759E-02  18.928702    
 2.07737464E-06 6.93498432E-09  1572341.1      1572321.7     3.05859387E-02  19.337715    
 2.09129106E-06 6.98144209E-09  1604254.0      1604234.3     3.14194954E-02  19.761541    
 2.10530072E-06 7.02821109E-09  1636875.8      1636855.6     3.22783243E-02  20.188737    
 2.11940422E-06 7.07529339E-09  1669294.8      1669274.2     3.31259971E-02  20.606936    
 2.13360221E-06 7.12269110E-09  1703906.5      1703885.4     3.40582100E-02  21.052973    
 2.14789530E-06 7.17040633E-09  1737809.8      1737788.3     3.49591212E-02  21.507515    
 2.16228415E-06 7.21844121E-09  1772831.1      1772809.1     3.59017452E-02  21.983836    
 2.17676939E-06 7.26679787E-09  1809131.3      1809108.8     3.68934154E-02  22.472449    
 2.19135167E-06 7.31547848E-09  1844962.1      1844939.1     3.78624052E-02  22.946419    
 2.20603163E-06 7.36448520E-09  1882949.8      1882926.3     3.89169071E-02  23.444473    
 2.22080994E-06 7.41382021E-09  1920682.2      1920658.3     3.99575573E-02  23.931106    
 2.23568724E-06 7.46348573E-09  1959112.6      1959088.1     4.10234119E-02  24.426576    
 2.25066421E-06 7.51348396E-09  1999503.7      1999478.7     4.21683373E-02  24.972657    
 2.26574151E-06 7.56381713E-09  2039105.0      2039079.4     4.32760057E-02  25.509536    
 2.28091982E-06 7.61448748E-09  2080796.0      2080769.9     4.44687251E-02  26.070511    
 2.29619980E-06 7.66549727E-09  2122787.4      2122760.7     4.56706389E-02  26.626650    
 2.31158215E-06 7.71684879E-09  2164956.6      2164929.4     4.68757098E-02  27.177647    
 2.32706754E-06 7.76854430E-09  2209896.9      2209869.1     4.81974234E-02  27.758340    
 2.34265667E-06 7.82058613E-09  2253665.2      2253636.8     4.94636166E-02  28.325643    
 2.35835023E-06 7.87297659E-09  2299418.3      2299389.3     5.08125394E-02  28.944268    
 2.37414893E-06 7.92571802E-09  2346146.4      2346116.8     5.22005370E-02  29.580114    
 2.39005346E-06 7.97881276E-09  2392604.3      2392574.1     5.35713771E-02  30.202398    
 2.40606454E-06 8.03226319E-09  2442225.1      2442194.1     5.50799238E-02  30.861184    
 2.42218287E-06 8.08607168E-09  2490788.1      2490756.6     5.65358977E-02  31.494822    
 2.43840918E-06 8.14024064E-09  2540996.6      2540964.4     5.80613296E-02  32.142552    
 2.45474420E-06 8.19477248E-09  2592992.6      2592959.7     5.96640296E-02  32.820792    
 2.47118864E-06 8.24966963E-09  2644338.4      2644304.8     6.12310599E-02  33.515711    
 2.48774324E-06 8.30493454E-09  2698798.0      2698763.7     6.29375087E-02  34.257964    
 2.50440875E-06 8.36056967E-09  2752844.6      2752809.5     6.46193285E-02  34.981800    
 2.52118589E-06 8.41657750E-09  2807939.4      2807903.7     6.63441920E-02  35.710832    
 2.53807543E-06 8.47296053E-09  2865793.7      2865757.2     6.81945888E-02  36.467020    
 2.55507811E-06 8.52972128E-09  2922541.2      2922503.9     6.99858860E-02  37.198543    
 2.57219470E-06 8.58686227E-09  2982308.6      2982270.6     7.19160154E-02  37.980151    
 2.58942595E-06 8.64438604E-09  3042454.0      3042415.1     7.38584704E-02  38.799509    
 2.60677263E-06 8.70229518E-09  3102907.7      3102868.0     7.58086378E-02  39.619454    
 2.62423551E-06 8.76059224E-09  3167276.4      3167235.9     7.79447681E-02  40.484231    
 2.64181539E-06 8.81927985E-09  3229993.4      3229952.0     7.99924265E-02  41.312250    
 2.65951303E-06 8.87836060E-09  3295582.7      3295540.4     8.21753450E-02  42.168763    
 2.67732922E-06 8.93783714E-09  3362510.8      3362467.7     8.44185516E-02  43.031975    
 2.69526477E-06 8.99771211E-09  3429080.8      3429036.8     8.66354410E-02  43.904416    
 2.71332047E-06 9.05798819E-09  3500212.2      3500167.2     8.90766272E-02  44.879135    
 2.73149713E-06 9.11866806E-09  3569767.3      3569721.4     9.14296363E-02  45.820949    
 2.74979555E-06 9.17975443E-09  3641741.9      3641695.1     9.38982074E-02  46.785235    
 2.76821656E-06 9.24125002E-09  3716213.2      3716165.3     9.64884210E-02  47.769812    
 2.78676096E-06 9.30315757E-09  3789785.0      3789736.1     9.90225824E-02  48.728885    
 2.80542960E-06 9.36547984E-09  3867851.0      3867801.2     0.10178403      49.735337    
 2.82422330E-06 9.42821962E-09  3945257.6      3945206.8     0.10450205      50.758477    
 2.84314290E-06 9.49137968E-09  4024235.3      4024183.3     0.10729338      51.838301    
 2.86218924E-06 9.55496287E-09  4107094.6      4107041.5     0.11028393      52.963958    
 2.88136318E-06 9.61897199E-09  4188403.9      4188349.8     0.11318076      54.050412    
 2.90066556E-06 9.68340992E-09  4274076.5      4274021.2     0.11630420      55.182804    
 2.92009725E-06 9.74827952E-09  4360215.5      4360159.0     0.11944346      56.304764    
 2.93965911E-06 9.81358368E-09  4446872.8      4446815.2     0.12259940      57.420184    
 2.95935202E-06 9.87932532E-09  4539059.3      4539000.5     0.12605177      58.647646    
 2.97917685E-06 9.94550737E-09  4628919.1      4628859.1     0.12936318      59.877667    
 2.99913449E-06 1.00121328E-08  4722934.7      4722873.4     0.13289572      61.152917    
 3.01922583E-06 1.00792045E-08  4818784.9      4818722.3     0.13652105      62.434578    
 3.03945176E-06 1.01467255E-08  4914163.6      4914099.8     0.14010614      63.692853    
 3.05981319E-06 1.02146989E-08  5016119.2      5016054.0     0.14405654      65.020888    
 3.08031101E-06 1.02831276E-08  5115729.6      5115663.1     0.14785924      66.305881    
 3.10094616E-06 1.03520148E-08  5218895.1      5218827.3     0.15185406      67.684534    
 3.12171953E-06 1.04213634E-08  5325544.7      5325475.4     0.15604023      69.147667    
 3.14263207E-06 1.04911766E-08  5430952.0      5430881.2     0.16013839      70.572923    
 3.16368471E-06 1.05614574E-08  5542844.4      5542772.2     0.16460708      72.069968    
 3.18487837E-06 1.06322091E-08  5653695.6      5653621.9     0.16899971      73.530479    
 3.20621402E-06 1.07034348E-08  5766895.8      5766820.6     0.17351684      75.004143    
 3.22769259E-06 1.07751376E-08  5885553.8      5885477.1     0.17835005      76.538137    
 3.24931505E-06 1.08473207E-08  6002042.9      6001964.6     0.18303472      78.103995    
 3.27108236E-06 1.09199874E-08  6124834.5      6124754.5     0.18808921      79.787608    
 3.29299549E-06 1.09931409E-08  6248186.7      6248105.0     0.19316264      81.455529    
 3.31505541E-06 1.10667844E-08  6372391.2      6372307.9     0.19826987      83.113608    
 3.33726312E-06 1.11409213E-08  6504401.5      6504316.5     0.20384947      84.853638    
 3.35961959E-06 1.12155548E-08  6633136.2      6633049.4     0.20920457      86.526960    
 3.38212584E-06 1.12906884E-08  6767881.4      6767792.9     0.21492111      88.273397    
 3.40478285E-06 1.13663252E-08  6905135.5      6905045.2     0.22078013      90.130337    
 3.42759164E-06 1.14424687E-08  7041773.8      7041681.6     0.22657781      91.997664    
 3.45055323E-06 1.15191223E-08  7187893.1      7187798.9     0.23297044      93.976841    
 3.47366865E-06 1.15962894E-08  7330528.7      7330432.6     0.23911596      95.877430    
 3.49693891E-06 1.16739735E-08  7478383.8      7478285.8     0.24558062      97.824835    
 3.52036506E-06 1.17521780E-08  7631096.4      7630996.4     0.25234608      99.807835    
 3.54394814E-06 1.18309064E-08  7782095.9      7781993.9     0.25897347      101.77235    
 3.56768921E-06 1.19101621E-08  7942451.5      7942347.3     0.26620485      103.94975    
 3.59158932E-06 1.19899488E-08  8101177.3      8101070.9     0.27330378      106.11964    
 3.61564954E-06 1.20702701E-08  8263409.1      8263300.5     0.28061374      108.31136    
 3.63987094E-06 1.21511293E-08  8433310.5      8433199.6     0.28842493      110.57717    
 3.66425460E-06 1.22325303E-08  8600178.9      8600065.8     0.29600079      112.77181    
 3.68880161E-06 1.23144766E-08  8776148.5      8776033.1     0.30418018      115.05612    
 3.71351306E-06 1.23969718E-08  8952767.4      8952649.8     0.31237941      117.36562    
 3.73839005E-06 1.24800197E-08  9130764.3      9130644.2     0.32064434      119.78440    
 3.76343369E-06 1.25636239E-08  9319776.9      9319654.2     0.32966188      122.37491    
 3.78864510E-06 1.26477882E-08  9504179.8      9504054.6     0.33832193      124.86047    
 3.81402541E-06 1.27325163E-08  9697273.9      9697146.2     0.34757271      127.43401    
 3.83957574E-06 1.28178120E-08  9893790.1      9893659.7     0.35704162      130.01608    
 3.86529723E-06 1.29036791E-08  10089510.      10089377.     0.36641736      132.55759    
 3.89119103E-06 1.29901214E-08  10298894.      10298758.     0.37676203      135.30184    
 3.91725829E-06 1.30771428E-08  10503111.      10502972.     0.38669370      138.09245    
 3.94350018E-06 1.31647472E-08  10714984.      10714843.     0.39715518      140.98970    
 3.96991787E-06 1.32529384E-08  10933625.      10933480.     0.40808906      143.93934    
 3.99651253E-06 1.33417205E-08  11149907.      11149759.     0.41880659      146.81740    
 4.02328535E-06 1.34310972E-08  11379682.      11379532.     0.43050857      149.83556    
 4.05023752E-06 1.35210728E-08  11606927.      11606773.     0.44198112      152.78419    
 4.07737024E-06 1.36116511E-08  11839394.      11839238.     0.45381056      155.83994    
 4.10468473E-06 1.37028361E-08  12082633.      12082473.     0.46643458      159.18127    
 4.13218219E-06 1.37946320E-08  12321634.      12321472.     0.47868590      162.44070    
