 OPTXAGNF AGN Spectrum Model Parameters: BLS, Astar 0.0                          
 M_BH:  4.0000E+06 M_0            L  :  0.3000     L/Ledd 
 D   :  1.5000E+18 cm             z  :   0.000     redshift 
 Rcor:   60.00     Rg             Ro :   4.000     Rg 
 C_T :  0.2000     keV            Tau:   15.00     Optical Depth 
 gam :   1.800     (-slope)       fpl:  0.5000     Fraction 
 E              0.5DeltaE      E.FE total     E.FE Disk      E.FE Compton   E.FE NonThermal
 (keV)          (keV)          E.E/cm2/s/E    E.E/cm2/s/E    E.E/cm2/s/E    E.E/cm2/s/E    
 1.00334952E-06 3.34952256E-09  196443.74      196438.13     1.22929115E-03  5.6004966    
 1.01007101E-06 3.37196116E-09  200338.10      200332.49     1.26158843E-03  5.6048762    
 1.01683752E-06 3.39455008E-09  204396.63      204391.02     1.29583343E-03  5.6044042    
 1.02364936E-06 3.41729032E-09  208567.27      208561.66     1.33139552E-03  5.6023853    
 1.03050683E-06 3.44018290E-09  212701.26      212695.66     1.36636218E-03  5.6067433    
 1.03741024E-06 3.46322884E-09  217103.67      217098.06     1.40466466E-03  5.6014583    
 1.04435990E-06 3.48642917E-09  221438.56      221432.95     1.44197462E-03  5.6042647    
 1.05135611E-06 3.50978492E-09  225892.75      225887.14     1.48069912E-03  5.6053662    
 1.05839920E-06 3.53329712E-09  230534.15      230528.55     1.52176020E-03  5.6017697    
 1.06548946E-06 3.55696684E-09  235103.71      235098.10     1.56173135E-03  5.6061347    
 1.07262722E-06 3.58079512E-09  239935.93      239930.33     1.60505701E-03  5.6024200    
 1.07981280E-06 3.60478303E-09  244760.91      244755.30     1.64815221E-03  5.6036521    
 1.08704652E-06 3.62893164E-09  249649.10      249643.49     1.69193768E-03  5.6063282    
 1.09432869E-06 3.65324201E-09  254814.11      254808.51     1.73934258E-03  5.6011531    
 1.10165965E-06 3.67771524E-09  259865.10      259859.49     1.78503444E-03  5.6055252    
 1.10903971E-06 3.70235243E-09  265168.87      265163.27     1.83403736E-03  5.6033818    
 1.11646922E-06 3.72715465E-09  270539.03      270533.43     1.88380868E-03  5.6030385    
 1.12394850E-06 3.75212303E-09  275903.25      275897.64     1.93331141E-03  5.6072904    
 1.13147788E-06 3.77725867E-09  281650.63      281645.03     1.98803402E-03  5.6005355    
 1.13905770E-06 3.80256270E-09  287233.76      287228.15     2.04026531E-03  5.6049147    
 1.14668830E-06 3.82803623E-09  293054.82      293049.21     2.09568402E-03  5.6043437    
 1.15437002E-06 3.85368042E-09  299031.42      299025.81     2.15315872E-03  5.6024240    
 1.16210319E-06 3.87949640E-09  304958.06      304952.45     2.20970693E-03  5.6067815    
 1.16988818E-06 3.90548532E-09  311272.21      311266.61     2.27169068E-03  5.6013978    
 1.17772531E-06 3.93164835E-09  317484.11      317478.50     2.33198883E-03  5.6043031    
 1.18561494E-06 3.95798663E-09  323872.61      323867.00     2.39465707E-03  5.6053057    
 1.19355743E-06 3.98450137E-09  330523.76      330518.15     2.46101959E-03  5.6018084    
 1.20155313E-06 4.01119372E-09  337074.76      337069.15     2.52566107E-03  5.6061730    
 1.20960239E-06 4.03806489E-09  344005.33      343999.73     2.59577408E-03  5.6023595    
 1.21770557E-06 4.06511607E-09  350919.46      350913.85     2.66542251E-03  5.6036906    
 1.22586303E-06 4.09234846E-09  357930.38      357924.77     2.73628141E-03  5.6062677    
 1.23407514E-06 4.11976329E-09  365331.80      365326.20     2.81289728E-03  5.6011919    
 1.24234227E-06 4.14736177E-09  372572.91      372567.30     2.88679028E-03  5.6055635    
 1.25066478E-06 4.17514513E-09  380179.74      380174.13     2.96609114E-03  5.6033213    
 1.25904304E-06 4.20311462E-09  387875.02      387869.42     3.04652978E-03  5.6030771    
 1.26747742E-06 4.23127147E-09  395568.64      395563.03     3.12664154E-03  5.6072299    
 1.27596831E-06 4.25961695E-09  403804.51      403798.91     3.21508491E-03  5.6005743    
 1.28451608E-06 4.28815232E-09  411808.39      411802.78     3.29955346E-03  5.6049531    
 1.29312111E-06 4.31687884E-09  420157.06      420151.46     3.38923743E-03  5.6042832    
 1.30178379E-06 4.34579781E-09  428721.28      428715.68     3.48212668E-03  5.6024626    
 1.31050450E-06 4.37491051E-09  437217.57      437211.95     3.57357655E-03  5.6068198    
 1.31928362E-06 4.40421823E-09  446273.27      446267.66     3.67388281E-03  5.6013373    
 1.32812156E-06 4.43372228E-09  455174.52      455168.92     3.77133295E-03  5.6043416    
 1.33701871E-06 4.46342399E-09  464336.96      464331.35     3.87274941E-03  5.6052452    
 1.34597546E-06 4.49332467E-09  473867.68      473862.07     3.98000370E-03  5.6018471    
 1.35499221E-06 4.52342565E-09  483258.91      483253.30     4.08454198E-03  5.6062113    
 1.36406936E-06 4.55372829E-09  493198.59      493192.98     4.19800420E-03  5.6022991    
 1.37320733E-06 4.58423392E-09  503106.00      503100.39     4.31056650E-03  5.6037292    
 1.38240650E-06 4.61494391E-09  513161.02      513155.41     4.42523868E-03  5.6062072    
 1.39166731E-06 4.64585962E-09  523766.72      523761.12     4.54906514E-03  5.6012307    
 1.40099015E-06 4.67698245E-09  534147.13      534141.52     4.66856496E-03  5.6056019    
 1.41037545E-06 4.70831376E-09  545056.58      545050.97     4.79689638E-03  5.6032609    
 1.41982361E-06 4.73985497E-09  556083.21      556077.60     4.92689824E-03  5.6031157    
 1.42933508E-06 4.77160747E-09  567117.25      567111.63     5.05654529E-03  5.6071694    
 1.43891026E-06 4.80357269E-09  578918.52      578912.92     5.19948828E-03  5.6006132    
 1.44854958E-06 4.83575204E-09  590392.25      590386.64     5.33609084E-03  5.6049915    
 1.45825348E-06 4.86814696E-09  602365.51      602359.90     5.48122593E-03  5.6042227    
 1.46802239E-06 4.90075889E-09  614637.10      614631.49     5.63135106E-03  5.6025013    
 1.47785673E-06 4.93358930E-09  626816.59      626810.98     5.77924375E-03  5.6068580    
 1.48775696E-06 4.96663964E-09  639803.57      639797.96     5.94156578E-03  5.6012769    
 1.49772351E-06 4.99991138E-09  652557.91      652552.30     6.09905834E-03  5.6043801    
 1.50775683E-06 5.03340601E-09  665698.10      665692.49     6.26318105E-03  5.6051847    
 1.51785736E-06 5.06712502E-09  679354.42      679348.81     6.43652378E-03  5.6018859    
 1.52802556E-06 5.10106992E-09  692816.64      692811.03     6.60558297E-03  5.6062496    
 1.53826187E-06 5.13524222E-09  707071.20      707065.59     6.78919583E-03  5.6022386    
 1.54856676E-06 5.16964344E-09  721267.09      721261.44     6.97111305E-03  5.6390738    
 1.55894067E-06 5.20427512E-09  735687.36      735681.58     7.15668865E-03  5.7640977    
 1.56938409E-06 5.23913879E-09  750883.96      750878.02     7.35681641E-03  5.9317734    
 1.57989746E-06 5.27423602E-09  765764.10      765758.00     7.55007131E-03  6.0901995    
 1.59048127E-06 5.30956836E-09  781409.41      781403.14     7.75774779E-03  6.2572857    
 1.60113597E-06 5.34513740E-09  797208.91      797202.48     7.96785142E-03  6.4227866    
 1.61186206E-06 5.38094472E-09  813033.08      813026.48     8.17766236E-03  6.5852158    
 1.62265999E-06 5.41699191E-09  829942.55      829935.78     8.40868769E-03  6.7643578    
 1.63353026E-06 5.45328058E-09  846389.70      846382.74     8.62960103E-03  6.9422821    
 1.64447336E-06 5.48981235E-09  863560.45      863553.31     8.86447193E-03  7.1301652    
 1.65548976E-06 5.52658885E-09  881143.55      881136.22     9.10709967E-03  7.3201340    
 1.66657996E-06 5.56361172E-09  898602.23      898594.72     9.34627128E-03  7.5041899    
 1.67774445E-06 5.60088261E-09  917226.32      917218.60     9.60895070E-03  7.7015037    
 1.68898374E-06 5.63840317E-09  935500.85      935492.95     9.86347938E-03  7.8897889    
 1.70029832E-06 5.67617509E-09  954344.86      954336.76     1.01290793E-02  8.0876170    
 1.71168869E-06 5.71420004E-09  973911.78      973903.46     1.04092326E-02  8.3036410    
 1.72315537E-06 5.75247973E-09  993208.88      993200.35     1.06826345E-02  8.5126525    
 1.73469887E-06 5.79101585E-09  1013650.5      1013641.8     1.09797697E-02  8.7346712    
 1.74631969E-06 5.82981012E-09  1033990.2      1033981.2     1.12737740E-02  8.9503265    
 1.75801837E-06 5.86886429E-09  1054669.5      1054660.3     1.15740930E-02  9.1667288    
 1.76979541E-06 5.90818007E-09  1076442.8      1076433.4     1.18975379E-02  9.3940892    
 1.78165135E-06 5.94775924E-09  1097771.8      1097762.1     1.22100688E-02  9.6184705    
 1.79358672E-06 5.98760354E-09  1120207.3      1120197.4     1.25461473E-02  9.8665873    
 1.80560203E-06 6.02771477E-09  1142844.1      1142833.9     1.28857073E-02  10.113874    
 1.81769784E-06 6.06809470E-09  1165536.3      1165526.0     1.32252487E-02  10.357233    
 1.82987468E-06 6.10874514E-09  1189763.4      1189752.8     1.35986325E-02  10.617383    
 1.84213310E-06 6.14966790E-09  1213338.1      1213327.3     1.39558924E-02  10.863375    
 1.85447363E-06 6.19086481E-09  1237960.8      1237949.7     1.43359811E-02  11.119163    
 1.86689683E-06 6.23233769E-09  1263152.7      1263141.2     1.47281080E-02  11.388717    
 1.87940326E-06 6.27408840E-09  1288177.0      1288165.4     1.51148949E-02  11.663214    
 1.89199346E-06 6.31611880E-09  1314883.1      1314871.2     1.55399778E-02  11.957722    
 1.90466801E-06 6.35843077E-09  1341065.2      1341053.0     1.59513287E-02  12.238723    
 1.91742747E-06 6.40102618E-09  1368087.0      1368074.5     1.63811484E-02  12.526310    
 1.93027240E-06 6.44390694E-09  1396120.6      1396107.8     1.68339258E-02  12.821738    
 1.94320339E-06 6.48707497E-09  1423779.6      1423766.5     1.72760695E-02  13.107672    
 1.95622099E-06 6.53053217E-09  1453091.6      1453078.2     1.77569133E-02  13.424226    
 1.96932581E-06 6.57428050E-09  1482231.9      1482218.1     1.82320654E-02  13.745882    
 1.98251841E-06 6.61832191E-09  1511885.1      1511871.0     1.87180737E-02  14.069344    
 1.99579939E-06 6.66265834E-09  1543079.3      1543064.8     1.92408215E-02  14.407743    
 2.00916934E-06 6.70729179E-09  1573650.1      1573635.3     1.97462443E-02  14.731603    
 2.02262885E-06 6.75222424E-09  1605820.7      1605805.6     2.02901117E-02  15.070555    
 2.03617854E-06 6.79745770E-09  1638251.4      1638236.0     2.08388921E-02  15.408528    
 2.04981899E-06 6.84299417E-09  1670790.6      1670774.8     2.13883776E-02  15.758780    
 2.06355082E-06 6.88883570E-09  1705499.7      1705483.5     2.19918399E-02  16.145789    
 2.07737464E-06 6.93498432E-09  1739288.7      1739272.1     2.25695976E-02  16.513132    
 2.09129106E-06 6.98144209E-09  1774595.0      1774578.1     2.31846894E-02  16.894666    
 2.10530072E-06 7.02821109E-09  1810685.6      1810668.3     2.38184300E-02  17.279289    
 2.11940422E-06 7.07529339E-09  1846551.9      1846534.2     2.44439382E-02  17.654902    
 2.13360221E-06 7.12269110E-09  1884844.6      1884826.5     2.51318302E-02  18.056883    
 2.14789530E-06 7.17040633E-09  1922353.3      1922334.8     2.57966241E-02  18.464369    
 2.16228415E-06 7.21844121E-09  1961099.1      1961080.2     2.64921987E-02  18.892881    
 2.17676939E-06 7.26679787E-09  2001260.3      2001240.9     2.72239654E-02  19.333199    
 2.19135167E-06 7.31547848E-09  2040901.8      2040882.0     2.79389957E-02  19.759159    
 2.20603163E-06 7.36448520E-09  2082930.3      2082910.1     2.87171271E-02  20.208184    
 2.22080994E-06 7.41382021E-09  2124676.2      2124655.5     2.94850372E-02  20.645948    
 2.23568724E-06 7.46348573E-09  2167194.4      2167173.3     3.02715460E-02  21.091127    
 2.25066421E-06 7.51348396E-09  2211882.5      2211860.9     3.11164026E-02  21.582306    
 2.26574151E-06 7.56381713E-09  2255696.4      2255674.3     3.19337667E-02  22.065011    
 2.28091982E-06 7.61448748E-09  2301823.0      2301800.4     3.28138917E-02  22.570608    
 2.29619980E-06 7.66549727E-09  2348281.9      2348258.8     3.37008013E-02  23.071368    
 2.31158215E-06 7.71684879E-09  2394937.4      2394913.8     3.45900407E-02  23.566946    
 2.32706754E-06 7.76854430E-09  2444659.8      2444635.7     3.55653531E-02  24.090853    
 2.34265667E-06 7.82058613E-09  2493084.9      2493060.3     3.64996960E-02  24.600129    
 2.35835023E-06 7.87297659E-09  2543706.6      2543681.5     3.74950866E-02  25.156332    
 2.37414893E-06 7.92571802E-09  2595407.4      2595381.7     3.85193116E-02  25.729302    
 2.39005346E-06 7.97881276E-09  2646809.0      2646782.7     3.95308756E-02  26.289127    
 2.40606454E-06 8.03226319E-09  2701711.0      2701684.0     4.06440563E-02  26.883521    
 2.42218287E-06 8.08607168E-09  2755442.2      2755414.7     4.17184424E-02  27.453714    
 2.43840918E-06 8.14024064E-09  2810994.4      2810966.3     4.28440832E-02  28.037105    
 2.45474420E-06 8.19477248E-09  2868525.0      2868496.3     4.40267417E-02  28.647119    
 2.47118864E-06 8.24966963E-09  2925335.8      2925306.5     4.51830790E-02  29.271553    
 2.48774324E-06 8.30493454E-09  2985592.9      2985562.9     4.64422962E-02  29.941065    
 2.50440875E-06 8.36056967E-09  3045392.6      3045362.0     4.76833392E-02  30.592937    
 2.52118589E-06 8.41657750E-09  3106352.5      3106321.2     4.89561452E-02  31.249481    
 2.53807543E-06 8.47296053E-09  3170366.4      3170334.4     5.03215851E-02  31.931562    
 2.55507811E-06 8.52972128E-09  3233155.2      3233122.5     5.16434142E-02  32.589839    
 2.57219470E-06 8.58686227E-09  3299286.4      3299253.0     5.30676908E-02  33.292705    
 2.58942595E-06 8.64438604E-09  3365835.8      3365801.7     5.45010629E-02  34.030322    
 2.60677263E-06 8.70229518E-09  3432726.3      3432691.5     5.59401261E-02  34.768690    
 2.62423551E-06 8.76059224E-09  3503950.1      3503914.5     5.75164159E-02  35.549071    
 2.64181539E-06 8.81927985E-09  3573345.4      3573309.0     5.90274202E-02  36.294579    
 2.65951303E-06 8.87836060E-09  3645919.9      3645882.8     6.06382363E-02  37.066710    
 2.67732922E-06 8.93783714E-09  3719976.2      3719938.3     6.22935407E-02  37.844470    
 2.69526477E-06 8.99771211E-09  3793635.8      3793597.1     6.39294249E-02  38.627887    
 2.71332047E-06 9.05798819E-09  3872344.3      3872304.7     6.57308234E-02  39.506959    
 2.73149713E-06 9.11866806E-09  3949307.8      3949267.4     6.74671541E-02  40.355325    
 2.74979555E-06 9.17975443E-09  4028949.4      4028908.1     6.92887608E-02  41.224504    
 2.76821656E-06 9.24125002E-09  4111354.3      4111312.1     7.12001309E-02  42.112501    
 2.78676096E-06 9.30315757E-09  4192763.4      4192720.3     7.30701386E-02  42.976295    
 2.80542960E-06 9.36547984E-09  4279147.1      4279103.1     7.51078704E-02  43.883526    
 2.82422330E-06 9.42821962E-09  4364800.8      4364755.9     7.71135519E-02  44.803034    
 2.84314290E-06 9.49137968E-09  4452193.1      4452147.3     7.91733255E-02  45.775914    
 2.86218924E-06 9.55496287E-09  4543882.3      4543835.4     8.13801144E-02  46.791548    
 2.88136318E-06 9.61897199E-09  4633855.4      4633807.5     8.35177508E-02  47.770338    
 2.90066556E-06 9.68340992E-09  4728658.3      4728609.4     8.58226027E-02  48.791797    
 2.92009725E-06 9.74827952E-09  4823977.2      4823927.3     8.81391282E-02  49.803271    
 2.93965911E-06 9.81358368E-09  4919869.7      4919818.8     9.04679682E-02  50.808062    
 2.95935202E-06 9.87932532E-09  5021882.8      5021830.8     9.30155431E-02  51.913044    
 2.97917685E-06 9.94550737E-09  5121320.1      5121267.0     9.54591083E-02  53.020348    
 2.99913449E-06 1.00121328E-08  5225357.5      5225303.2     9.80658437E-02  54.170529    
 3.01922583E-06 1.00792045E-08  5331425.7      5331370.3     0.10074106      55.326449    
 3.03945176E-06 1.01467255E-08  5436971.6      5436915.1     0.10338658      56.460328    
 3.05981319E-06 1.02146989E-08  5549798.2      5549740.5     0.10630167      57.658942    
 3.08031101E-06 1.02831276E-08  5660028.3      5659969.4     0.10910777      58.816675    
 3.10094616E-06 1.03520148E-08  5774193.9      5774133.7     0.11205564      60.056626    
 3.12171953E-06 1.04213634E-08  5892216.2      5892154.7     0.11514471      61.375524    
 3.14263207E-06 1.04911766E-08  6008862.8      6008800.0     0.11816885      62.660151    
 3.16368471E-06 1.05614574E-08  6132688.9      6132624.8     0.12146640      64.011100    
 3.18487837E-06 1.06322091E-08  6255361.8      6255296.3     0.12470782      65.327916    
 3.20621402E-06 1.07034348E-08  6380635.1      6380568.3     0.12804113      66.656654    
 3.22769259E-06 1.07751376E-08  6511950.4      6511882.3     0.13160767      68.040001    
 3.24931505E-06 1.08473207E-08  6640864.1      6640794.5     0.13506461      69.447749    
 3.27108236E-06 1.09199874E-08  6776755.2      6776684.1     0.13879445      70.966056    
 3.29299549E-06 1.09931409E-08  6913266.7      6913194.1     0.14253826      72.470395    
 3.31505541E-06 1.10667844E-08  7050721.3      7050647.2     0.14630701      73.965354    
 3.33726312E-06 1.11409213E-08  7196818.0      7196742.3     0.15042435      75.535879    
 3.35961959E-06 1.12155548E-08  7339287.5      7339210.3     0.15437602      77.044406    
 3.38212584E-06 1.12906884E-08  7488411.4      7488332.6     0.15859440      78.618389    
 3.40478285E-06 1.13663252E-08  7640312.7      7640232.3     0.16291793      80.289279    
 3.42759164E-06 1.14424687E-08  7791531.7      7791449.5     0.16719619      81.972573    
 3.45055323E-06 1.15191223E-08  7953247.8      7953163.9     0.17191349      83.759095    
 3.47366865E-06 1.15962894E-08  8111106.3      8111020.7     0.17644844      85.472897    
 3.49693891E-06 1.16739735E-08  8274743.4      8274656.0     0.18121889      87.229600    
 3.52036506E-06 1.17521780E-08  8443758.7      8443669.5     0.18621131      89.018904    
 3.54394814E-06 1.18309064E-08  8610876.4      8610785.5     0.19110185      90.787726    
 3.56768921E-06 1.19101621E-08  8788353.4      8788260.4     0.19643809      92.748254    
 3.59158932E-06 1.19899488E-08  8964025.3      8963930.3     0.20167660      94.705459    
 3.61564954E-06 1.20702701E-08  9143578.7      9143481.8     0.20707083      96.682460    
 3.63987094E-06 1.21511293E-08  9331624.1      9331525.2     0.21283494      98.727380    
 3.66425460E-06 1.22325303E-08  9516310.5      9516209.6     0.21842539      100.70652    
 3.68880161E-06 1.23144766E-08  9711074.4      9710971.4     0.22446120      102.76795    
 3.71351306E-06 1.23969718E-08  9906556.6      9906451.6     0.23051166      104.84705    
 3.73839005E-06 1.24800197E-08  10103564.      10103457.     0.23661060      107.02481    
 3.76343369E-06 1.25636239E-08  10312769.      10312660.     0.24326492      109.36318    
 3.78864510E-06 1.26477882E-08  10516869.      10516757.     0.24965544      111.60496    
 3.81402541E-06 1.27325163E-08  10730593.      10730478.     0.25648188      113.92723    
 3.83957574E-06 1.28178120E-08  10948105.      10947989.     0.26346929      116.25708    
 3.86529723E-06 1.29036791E-08  11164735.      11164616.     0.27038795      118.54929    
 3.89119103E-06 1.29901214E-08  11396496.      11396374.     0.27802161      121.01997    
 3.91725829E-06 1.30771428E-08  11622534.      11622410.     0.28535051      123.53431    
 3.94350018E-06 1.31647472E-08  11857051.      11856924.     0.29307038      126.14855    
 3.96991787E-06 1.32529384E-08  12099060.      12098931.     0.30113885      128.81054    
 3.99651253E-06 1.33417205E-08  12338457.      12338326.     0.30904767      131.40665    
 4.02328535E-06 1.34310972E-08  12592798.      12592663.     0.31768295      134.13091    
 4.05023752E-06 1.35210728E-08  12844333.      12844196.     0.32614894      136.79009    
 4.07737024E-06 1.36116511E-08  13101652.      13101513.     0.33487828      139.53955    
 4.10468473E-06 1.37028361E-08  13370901.      13370758.     0.34419398      142.55306    
 4.13218219E-06 1.37946320E-08  13635455.      13635309.     0.35323466      145.49345    
