 OPTXAGNF AGN Spectrum Model Parameters: BLS, Astar 0.0                          
 M_BH:  5.0000E+06 M_0            L  :  0.5000     L/Ledd 
 D   :  1.5000E+18 cm             z  :   0.000     redshift 
 Rcor:   60.00     Rg             Ro :   4.000     Rg 
 C_T :  0.2000     keV            Tau:   15.00     Optical Depth 
 gam :   1.800     (-slope)       fpl:  0.5000     Fraction 
 E              0.5DeltaE      E.FE total     E.FE Disk      E.FE Compton   E.FE NonThermal
 (keV)          (keV)          E.E/cm2/s/E    E.E/cm2/s/E    E.E/cm2/s/E    E.E/cm2/s/E    
 1.00334952E-06 3.34952256E-09  329640.53      329628.48     1.55183232E-03  12.048149    
 1.01007101E-06 3.37196116E-09  336175.64      336163.58     1.59260382E-03  12.057571    
 1.01683752E-06 3.39455008E-09  342986.27      342974.21     1.63583411E-03  12.056555    
 1.02364936E-06 3.41729032E-09  349985.04      349972.99     1.68072706E-03  12.052212    
 1.03050683E-06 3.44018290E-09  356922.31      356910.25     1.72486835E-03  12.061587    
 1.03741024E-06 3.46322884E-09  364310.03      364297.98     1.77322073E-03  12.050218    
 1.04435990E-06 3.48642917E-09  371584.45      371572.39     1.82032018E-03  12.056255    
 1.05135611E-06 3.50978492E-09  379059.08      379047.02     1.86920530E-03  12.058625    
 1.05839920E-06 3.53329712E-09  386847.89      386835.83     1.92104010E-03  12.050888    
 1.06548946E-06 3.55696684E-09  394516.12      394504.05     1.97149899E-03  12.060278    
 1.07262722E-06 3.58079512E-09  402625.17      402613.12     2.02619257E-03  12.052287    
 1.07981280E-06 3.60478303E-09  410722.06      410710.00     2.08059521E-03  12.054937    
 1.08704652E-06 3.62893164E-09  418925.03      418912.96     2.13586924E-03  12.060694    
 1.09432869E-06 3.65324201E-09  427592.58      427580.52     2.19571239E-03  12.049561    
 1.10165965E-06 3.67771524E-09  436068.75      436056.69     2.25339302E-03  12.058967    
 1.10903971E-06 3.70235243E-09  444969.17      444957.11     2.31525349E-03  12.054356    
 1.11646922E-06 3.72715465E-09  453981.00      453968.94     2.37808397E-03  12.053617    
 1.12394850E-06 3.75212303E-09  462982.85      462970.79     2.44057539E-03  12.062764    
 1.13147788E-06 3.77725867E-09  472627.76      472615.71     2.50965633E-03  12.048233    
 1.13905770E-06 3.80256270E-09  481996.99      481984.93     2.57559224E-03  12.057653    
 1.14668830E-06 3.82803623E-09  491765.54      491753.48     2.64555191E-03  12.056425    
 1.15437002E-06 3.85368042E-09  501795.12      501783.07     2.71810705E-03  12.052295    
 1.16210319E-06 3.87949640E-09  511740.86      511728.79     2.78949259E-03  12.061670    
 1.16988818E-06 3.90548532E-09  522336.95      522324.90     2.86773989E-03  12.050088    
 1.17772531E-06 3.93164835E-09  532761.41      532749.35     2.94385931E-03  12.056338    
 1.18561494E-06 3.95798663E-09  543482.27      543470.21     3.02297069E-03  12.058495    
 1.19355743E-06 3.98450137E-09  554643.93      554631.88     3.10674571E-03  12.050971    
 1.20155313E-06 4.01119372E-09  565637.50      565625.44     3.18834809E-03  12.060360    
 1.20960239E-06 4.03806489E-09  577268.12      577256.06     3.27685766E-03  12.052157    
 1.21770557E-06 4.06511607E-09  588871.11      588859.05     3.36478076E-03  12.055020    
 1.22586303E-06 4.09234846E-09  600636.56      600624.49     3.45423193E-03  12.060564    
 1.23407514E-06 4.11976329E-09  613057.38      613045.33     3.55095064E-03  12.049645    
 1.24234227E-06 4.14736177E-09  625209.14      625197.07     3.64423204E-03  12.059049    
 1.25066478E-06 4.17514513E-09  637974.69      637962.63     3.74434024E-03  12.054226    
 1.25904304E-06 4.20311462E-09  650888.70      650876.64     3.84588478E-03  12.053700    
 1.26747742E-06 4.23127147E-09  663799.89      663787.82     3.94701666E-03  12.062634    
 1.27596831E-06 4.25961695E-09  677621.18      677609.12     4.05866626E-03  12.048316    
 1.28451608E-06 4.28815232E-09  691053.09      691041.03     4.16529811E-03  12.057736    
 1.29312111E-06 4.31687884E-09  705063.68      705051.62     4.27851384E-03  12.056295    
 1.30178379E-06 4.34579781E-09  719436.02      719423.96     4.39577588E-03  12.052378    
 1.31050450E-06 4.37491051E-09  733694.33      733682.26     4.51122087E-03  12.061752    
 1.31928362E-06 4.40421823E-09  748891.54      748879.48     4.63784606E-03  12.049958    
 1.32812156E-06 4.43372228E-09  763829.53      763817.47     4.76086572E-03  12.056421    
 1.33701871E-06 4.46342399E-09  779205.85      779193.79     4.88889243E-03  12.058364    
 1.34597546E-06 4.49332467E-09  795200.30      795188.24     5.02428875E-03  12.051054    
 1.35499221E-06 4.52342565E-09  810960.61      810948.55     5.15625640E-03  12.060443    
 1.36406936E-06 4.55372829E-09  827641.43      827629.37     5.29948954E-03  12.052027    
 1.37320733E-06 4.58423392E-09  844268.06      844256.00     5.44158665E-03  12.055103    
 1.38240650E-06 4.61494391E-09  861142.45      861130.38     5.58634723E-03  12.060434    
 1.39166731E-06 4.64585962E-09  878941.08      878929.02     5.74266409E-03  12.049728    
 1.40099015E-06 4.67698245E-09  896361.56      896349.49     5.89351905E-03  12.059132    
 1.41037545E-06 4.70831376E-09  914669.96      914657.90     6.05552294E-03  12.054096    
 1.41982361E-06 4.73985497E-09  933175.05      933162.99     6.21963557E-03  12.053783    
 1.42933508E-06 4.77160747E-09  951692.55      951680.48     6.38330029E-03  12.062504    
 1.43891026E-06 4.80357269E-09  971497.78      971485.73     6.56374969E-03  12.048400    
 1.44854958E-06 4.83575204E-09  990753.23      990741.17     6.73619499E-03  12.057819    
 1.45825348E-06 4.86814696E-09  1010847.1      1010835.0     6.91941167E-03  12.056165    
 1.46802239E-06 4.90075889E-09  1031441.7      1031429.6     7.10892775E-03  12.052462    
 1.47785673E-06 4.93358930E-09  1051881.7      1051869.6     7.29562561E-03  12.061834    
 1.48775696E-06 4.96663964E-09  1073676.9      1073664.9     7.50053894E-03  12.049828    
 1.49772351E-06 4.99991138E-09  1095081.8      1095069.7     7.69935560E-03  12.056503    
 1.50775683E-06 5.03340601E-09  1117134.2      1117122.1     7.90654210E-03  12.058234    
 1.51785736E-06 5.06712502E-09  1140052.9      1140040.8     8.12536788E-03  12.051138    
 1.52802556E-06 5.10106992E-09  1162645.7      1162633.7     8.33878616E-03  12.060525    
 1.53826187E-06 5.13524222E-09  1186568.5      1186556.5     8.57057688E-03  12.051896    
 1.54856676E-06 5.16964344E-09  1210392.8      1210380.7     8.80022703E-03  12.055186    
 1.55894067E-06 5.20427512E-09  1234593.4      1234581.4     9.03449550E-03  12.060304    
 1.56938409E-06 5.23913879E-09  1260097.1      1260085.0     9.28713451E-03  12.049812    
 1.57989746E-06 5.27423602E-09  1285069.5      1285057.5     9.53109728E-03  12.059214    
 1.59048127E-06 5.30956836E-09  1311326.3      1311314.2     9.79326573E-03  12.053966    
 1.60113597E-06 5.34513740E-09  1337841.8      1337829.7     1.00584982E-02  12.053866    
 1.61186206E-06 5.38094472E-09  1364398.7      1364386.7     1.03233612E-02  12.062374    
 1.62265999E-06 5.41699191E-09  1392777.3      1392765.2     1.06150051E-02  12.048483    
 1.63353026E-06 5.45328058E-09  1420379.8      1420367.7     1.08938837E-02  12.057901    
 1.64447336E-06 5.48981235E-09  1449196.8      1449184.8     1.11903822E-02  12.056035    
 1.65548976E-06 5.52658885E-09  1478706.0      1478693.9     1.14966730E-02  12.052545    
 1.66657996E-06 5.56361172E-09  1508006.3      1507994.2     1.17986007E-02  12.061916    
 1.67774445E-06 5.60088261E-09  1539262.7      1539250.6     1.21302045E-02  12.049697    
 1.68898374E-06 5.63840317E-09  1569932.4      1569920.3     1.24515189E-02  12.056586    
 1.70029832E-06 5.67617509E-09  1601557.9      1601545.8     1.27868096E-02  12.058104    
 1.71168869E-06 5.71420004E-09  1634396.8      1634384.7     1.31404724E-02  12.051221    
 1.72315537E-06 5.75247973E-09  1666782.7      1666770.6     1.34856122E-02  12.060608    
 1.73469887E-06 5.79101585E-09  1701089.8      1701077.7     1.38607128E-02  12.051766    
 1.74631969E-06 5.82981012E-09  1735225.6      1735213.6     1.42318611E-02  12.055269    
 1.75801837E-06 5.86886429E-09  1769931.6      1769919.5     1.46109810E-02  12.060174    
 1.76979541E-06 5.90818007E-09  1806474.0      1806461.7     1.50192948E-02  12.212860    
 1.78165135E-06 5.94775924E-09  1842270.7      1842258.2     1.54138311E-02  12.538850    
 1.79358672E-06 5.98760354E-09  1879924.8      1879911.9     1.58380935E-02  12.894886    
 1.80560203E-06 6.02771477E-09  1917916.7      1917903.4     1.62667511E-02  13.246895    
 1.81769784E-06 6.06809470E-09  1956001.6      1955988.0     1.66953852E-02  13.592533    
 1.82987468E-06 6.10874514E-09  1996662.9      1996648.9     1.71667417E-02  13.964170    
 1.84213310E-06 6.14966790E-09  2036229.0      2036214.7     1.76177435E-02  14.314581    
 1.85447363E-06 6.19086481E-09  2077554.3      2077539.6     1.80975645E-02  14.696587    
 1.86689683E-06 6.23233769E-09  2119834.9      2119819.8     1.85925822E-02  15.099728    
 1.87940326E-06 6.27408840E-09  2161834.3      2161818.8     1.90808589E-02  15.491092    
 1.89199346E-06 6.31611880E-09  2206656.7      2206640.8     1.96174803E-02  15.911786    
 1.90466801E-06 6.35843077E-09  2250599.4      2250583.0     2.01367665E-02  16.311419    
 1.91742747E-06 6.40102618E-09  2295951.5      2295934.8     2.06793677E-02  16.720973    
 1.93027240E-06 6.44390694E-09  2343002.2      2342985.0     2.12509505E-02  17.145080    
 1.94320339E-06 6.48707497E-09  2389423.9      2389406.3     2.18091095E-02  17.573219    
 1.95622099E-06 6.53053217E-09  2438620.3      2438602.3     2.24161234E-02  18.045197    
 1.96932581E-06 6.57428050E-09  2487528.5      2487510.0     2.30159520E-02  18.503735    
 1.98251841E-06 6.61832191E-09  2537297.6      2537278.6     2.36294856E-02  18.964376    
 1.99579939E-06 6.66265834E-09  2589653.5      2589634.0     2.42893990E-02  19.447643    
 2.00916934E-06 6.70729179E-09  2640962.8      2640942.9     2.49274413E-02  19.908426    
 2.02262885E-06 6.75222424E-09  2694957.6      2694937.2     2.56140162E-02  20.396098    
 2.03617854E-06 6.79745770E-09  2749389.2      2749368.3     2.63067931E-02  20.905999    
 2.04981899E-06 6.84299417E-09  2804002.6      2803981.2     2.70004603E-02  21.422935    
 2.06355082E-06 6.88883570E-09  2862258.6      2862236.6     2.77622677E-02  21.976999    
 2.07737464E-06 6.93498432E-09  2918969.9      2918947.3     2.84916256E-02  22.500076    
 2.09129106E-06 6.98144209E-09  2978228.3      2978205.2     2.92681140E-02  23.044410    
 2.10530072E-06 7.02821109E-09  3038803.3      3038779.7     3.00681448E-02  23.593218    
 2.11940422E-06 7.07529339E-09  3099001.5      3098977.4     3.08577830E-02  24.133715    
 2.13360221E-06 7.12269110E-09  3163273.1      3163248.3     3.17261745E-02  24.743836    
 2.14789530E-06 7.17040633E-09  3226228.4      3226203.0     3.25654070E-02  25.341120    
 2.16228415E-06 7.21844121E-09  3291260.4      3291234.4     3.34434970E-02  25.953482    
 2.17676939E-06 7.26679787E-09  3358668.3      3358641.7     3.43672760E-02  26.582289    
 2.19135167E-06 7.31547848E-09  3425203.8      3425176.6     3.52699270E-02  27.189289    
 2.20603163E-06 7.36448520E-09  3495746.3      3495718.5     3.62522369E-02  27.830753    
 2.22080994E-06 7.41382021E-09  3565814.4      3565785.9     3.72216434E-02  28.465779    
 2.23568724E-06 7.46348573E-09  3637178.9      3637149.7     3.82145289E-02  29.138536    
 2.25066421E-06 7.51348396E-09  3712186.1      3712156.2     3.92810729E-02  29.859026    
 2.26574151E-06 7.56381713E-09  3785725.5      3785694.9     4.03129103E-02  30.547689    
 2.28091982E-06 7.61448748E-09  3863147.3      3863116.0     4.14239771E-02  31.269864    
 2.29619980E-06 7.66549727E-09  3941126.9      3941094.9     4.25436090E-02  31.984629    
 2.31158215E-06 7.71684879E-09  4019436.6      4019403.9     4.36661820E-02  32.691421    
 2.32706754E-06 7.76854430E-09  4102894.8      4102861.3     4.48974138E-02  33.455866    
 2.34265667E-06 7.82058613E-09  4184175.0      4184140.8     4.60769255E-02  34.225905    
 2.35835023E-06 7.87297659E-09  4269142.8      4269107.8     4.73335042E-02  35.038566    
 2.37414893E-06 7.92571802E-09  4355922.1      4355886.2     4.86264835E-02  35.856956    
 2.39005346E-06 7.97881276E-09  4442198.9      4442162.2     4.99034795E-02  36.655681    
 2.40606454E-06 8.03226319E-09  4534352.1      4534314.6     5.13087569E-02  37.505397    
 2.42218287E-06 8.08607168E-09  4624539.9      4624501.5     5.26650598E-02  38.319624    
 2.43840918E-06 8.14024064E-09  4717784.5      4717745.3     5.40860669E-02  39.171148    
 2.45474420E-06 8.19477248E-09  4814350.6      4814310.4     5.55790535E-02  40.098206    
 2.47118864E-06 8.24966963E-09  4909708.0      4909666.9     5.70388120E-02  41.003985    
 2.48774324E-06 8.30493454E-09  5010851.1      5010809.0     5.86284467E-02  41.960967    
 2.50440875E-06 8.36056967E-09  5111226.3      5111183.3     6.01951383E-02  42.891838    
 2.52118589E-06 8.41657750E-09  5213549.0      5213505.1     6.18019276E-02  43.829375    
 2.53807543E-06 8.47296053E-09  5320999.1      5320954.3     6.35256586E-02  44.804623    
 2.55507811E-06 8.52972128E-09  5426392.1      5426346.3     6.51943350E-02  45.770411    
 2.57219470E-06 8.58686227E-09  5537396.7      5537349.8     6.69923419E-02  46.839370    
 2.58942595E-06 8.64438604E-09  5649103.1      5649055.2     6.88018309E-02  47.904525    
 2.60677263E-06 8.70229518E-09  5761382.1      5761333.1     7.06185045E-02  48.959066    
 2.62423551E-06 8.76059224E-09  5880936.1      5880885.9     7.26084139E-02  50.074872    
 2.64181539E-06 8.81927985E-09  5997420.1      5997368.9     7.45159066E-02  51.139510    
 2.65951303E-06 8.87836060E-09  6119241.5      6119189.2     7.65494024E-02  52.242911    
 2.67732922E-06 8.93783714E-09  6243550.8      6243497.3     7.86390606E-02  53.396369    
 2.69526477E-06 8.99771211E-09  6367193.8      6367139.2     8.07042027E-02  54.580462    
 2.71332047E-06 9.05798819E-09  6499313.5      6499257.6     8.29782913E-02  55.847635    
 2.73149713E-06 9.11866806E-09  6628503.2      6628446.1     8.51702378E-02  57.059705    
 2.74979555E-06 9.17975443E-09  6762189.1      6762130.7     8.74698377E-02  58.301882    
 2.76821656E-06 9.24125002E-09  6900514.5      6900454.9     8.98827556E-02  59.571294    
 2.78676096E-06 9.30315757E-09  7037167.6      7037106.7     9.22434573E-02  60.806889    
 2.80542960E-06 9.36547984E-09  7182173.1      7182110.8     9.48158956E-02  62.162205    
 2.82422330E-06 9.42821962E-09  7325952.5      7325888.9     9.73478734E-02  63.544149    
 2.84314290E-06 9.49137968E-09  7472651.0      7472586.0     9.99481376E-02  64.941672    
 2.86218924E-06 9.55496287E-09  7626563.6      7626497.1     0.10273400      66.393896    
 2.88136318E-06 9.61897199E-09  7777594.8      7777526.9     0.10543255      67.792678    
 2.90066556E-06 9.68340992E-09  7936735.1      7936665.7     0.10834221      69.253099    
 2.92009725E-06 9.74827952E-09  8096741.6      8096670.8     0.11126660      70.705725    
 2.93965911E-06 9.81358368E-09  8257711.0      8257638.7     0.11420654      72.210622    
 2.95935202E-06 9.87932532E-09  8428957.0      8428883.0     0.11742261      73.867311    
 2.97917685E-06 9.94550737E-09  8595877.7      8595802.1     0.12050737      75.452619    
 2.99913449E-06 1.00121328E-08  8770522.1      8770444.8     0.12379813      77.097187    
 3.01922583E-06 1.00792045E-08  8948576.2      8948497.3     0.12717534      78.749946    
 3.03945176E-06 1.01467255E-08  9125752.9      9125672.4     0.13051505      80.370847    
 3.05981319E-06 1.02146989E-08  9315154.5      9315072.2     0.13419508      82.096574    
 3.08031101E-06 1.02831276E-08  9500195.9      9500111.9     0.13773751      83.840573    
 3.10094616E-06 1.03520148E-08  9691845.2      9691759.4     0.14145892      85.686554    
 3.12171953E-06 1.04213634E-08  9889970.2      9889882.5     0.14535859      87.576594    
 3.14263207E-06 1.04911766E-08  10085785.      10085695.     0.14917628      89.413461    
 3.16368471E-06 1.05614574E-08  10293654.      10293563.     0.15333913      91.345475    
 3.18487837E-06 1.06322091E-08  10499587.      10499494.     0.15743112      93.228448    
 3.20621402E-06 1.07034348E-08  10709887.      10709791.     0.16163911      95.144017    
 3.22769259E-06 1.07751376E-08  10930331.      10930234.     0.16614154      97.239222    
 3.24931505E-06 1.08473207E-08  11146742.      11146643.     0.17050560      99.318915    
 3.27108236E-06 1.09199874E-08  11374870.      11374768.     0.17521418      101.49521    
 3.29299549E-06 1.09931409E-08  11604038.      11603935.     0.17994040      103.64673    
 3.31505541E-06 1.10667844E-08  11834790.      11834684.     0.18469810      105.78484    
 3.33726312E-06 1.11409213E-08  12080054.      12079946.     0.18989587      108.03102    
 3.35961959E-06 1.12155548E-08  12319226.      12319116.     0.19488449      110.21687    
 3.38212584E-06 1.12906884E-08  12569573.      12569460.     0.20020982      112.60065    
 3.40478285E-06 1.13663252E-08  12824583.      12824467.     0.20566788      115.06015    
 3.42759164E-06 1.14424687E-08  13078446.      13078328.     0.21106880      117.47136    
 3.45055323E-06 1.15191223E-08  13349937.      13349816.     0.21702397      120.02655    
 3.47366865E-06 1.15962894E-08  13614949.      13614826.     0.22274892      122.47811    
 3.49693891E-06 1.16739735E-08  13889664.      13889539.     0.22877120      124.99090    
 3.52036506E-06 1.17521780E-08  14173411.      14173283.     0.23507368      127.59523    
 3.54394814E-06 1.18309064E-08  14453970.      14453840.     0.24124755      130.27407    
 3.56768921E-06 1.19101621E-08  14751926.      14751793.     0.24798408      133.15326    
 3.59158932E-06 1.19899488E-08  15046850.      15046713.     0.25459723      135.95335    
 3.61564954E-06 1.20702701E-08  15348291.      15348152.     0.26140697      138.78171    
 3.63987094E-06 1.21511293E-08  15663993.      15663851.     0.26868366      141.70674    
 3.66425460E-06 1.22325303E-08  15974053.      15973909.     0.27574111      144.53938    
 3.68880161E-06 1.23144766E-08  16301037.      16300889.     0.28336079      147.54549    
 3.71351306E-06 1.23969718E-08  16629227.      16629076.     0.29099897      150.70450    
 3.73839005E-06 1.24800197E-08  16959977.      16959822.     0.29869836      153.88574    
 3.76343369E-06 1.25636239E-08  17311211.      17311053.     0.30709886      157.23047    
 3.78864510E-06 1.26477882E-08  17653871.      17653710.     0.31516634      160.43840    
 3.81402541E-06 1.27325163E-08  18012692.      18012528.     0.32378413      163.76066    
 3.83957574E-06 1.28178120E-08  18377876.      18377709.     0.33260513      167.09467    
 3.86529723E-06 1.29036791E-08  18741577.      18741406.     0.34133935      170.44429    
 3.89119103E-06 1.29901214E-08  19130689.      19130515.     0.35097620      174.21684    
 3.91725829E-06 1.30771428E-08  19510190.      19510012.     0.36022832      177.85983    
 3.94350018E-06 1.31647472E-08  19903929.      19903747.     0.36997400      181.60037    
 3.96991787E-06 1.32529384E-08  20310252.      20310066.     0.38015976      185.40875    
 3.99651253E-06 1.33417205E-08  20712185.      20711996.     0.39014398      189.12419    
 4.02328535E-06 1.34310972E-08  21139216.      21139022.     0.40104531      193.02121    
 4.05023752E-06 1.35210728E-08  21561535.      21561337.     0.41173291      196.94836    
 4.07737024E-06 1.36116511E-08  21993567.      21993365.     0.42275298      201.12452    
 4.10468473E-06 1.37028361E-08  22445633.      22445427.     0.43451329      205.47819    
 4.13218219E-06 1.37946320E-08  22889814.      22889604.     0.44592639      209.68689    
