 OPTXAGNF AGN Spectrum Model Parameters: NLS, Astar 0.0                          
 M_BH:  5.0000E+06 M_0            L  :  0.5000     L/Ledd 
 D   :  1.5000E+18 cm             z  :   0.000     redshift 
 Rcor:   40.00     Rg             Ro :   4.000     Rg 
 C_T :  0.2000     keV            Tau:   15.00     Optical Depth 
 gam :   2.200     (-slope)       fpl:  0.2000     Fraction 
 E              0.5DeltaE      E.FE total     E.FE Disk      E.FE Compton   E.FE NonThermal
 (keV)          (keV)          E.E/cm2/s/E    E.E/cm2/s/E    E.E/cm2/s/E    E.E/cm2/s/E    
 1.00334952E-06 3.34952256E-09  332354.92      332336.54     4.76295009E-04  18.378156    
 1.01007101E-06 3.37196116E-09  338943.72      338925.33     4.88808823E-04  18.392527    
 1.01683752E-06 3.39455008E-09  345810.30      345791.91     5.02077306E-04  18.390978    
 1.02364936E-06 3.41729032E-09  352866.57      352848.18     5.15856106E-04  18.384353    
 1.03050683E-06 3.44018290E-09  359860.84      359842.44     5.29404201E-04  18.398654    
 1.03741024E-06 3.46322884E-09  367309.25      367290.86     5.44244795E-04  18.381311    
 1.04435990E-06 3.48642917E-09  374643.43      374625.04     5.58700829E-04  18.390521    
 1.05135611E-06 3.50978492E-09  382179.46      382161.07     5.73704936E-04  18.394135    
 1.05839920E-06 3.53329712E-09  390032.25      390013.87     5.89614380E-04  18.382333    
 1.06548946E-06 3.55696684E-09  397763.48      397745.09     6.05101520E-04  18.396657    
 1.07262722E-06 3.58079512E-09  405939.15      405920.77     6.21888402E-04  18.384467    
 1.07981280E-06 3.60478303E-09  414102.56      414084.17     6.38585987E-04  18.388510    
 1.08704652E-06 3.62893164E-09  422372.92      422354.53     6.55551026E-04  18.397292    
 1.09432869E-06 3.65324201E-09  431111.67      431093.29     6.73918454E-04  18.380310    
 1.10165965E-06 3.67771524E-09  439657.49      439639.10     6.91622147E-04  18.394657    
 1.10903971E-06 3.70235243E-09  448631.02      448612.63     7.10608750E-04  18.387624    
 1.11646922E-06 3.72715465E-09  457716.88      457698.50     7.29893074E-04  18.386497    
 1.12394850E-06 3.75212303E-09  466792.70      466774.29     7.49073333E-04  18.400450    
 1.13147788E-06 3.77725867E-09  476516.83      476498.45     7.70276097E-04  18.378283    
 1.13905770E-06 3.80256270E-09  485963.03      485944.64     7.90513568E-04  18.392654    
 1.14668830E-06 3.82803623E-09  495811.83      495793.44     8.11986042E-04  18.390780    
 1.15437002E-06 3.85368042E-09  505923.81      505905.43     8.34255137E-04  18.384480    
 1.16210319E-06 3.87949640E-09  515951.26      515932.86     8.56165254E-04  18.398780    
 1.16988818E-06 3.90548532E-09  526634.40      526616.01     8.80181433E-04  18.381113    
 1.17772531E-06 3.93164835E-09  537144.50      537126.11     9.03544512E-04  18.390647    
 1.18561494E-06 3.95798663E-09  547953.44      547935.04     9.27825906E-04  18.393937    
 1.19355743E-06 3.98450137E-09  559206.79      559188.40     9.53538702E-04  18.382460    
 1.20155313E-06 4.01119372E-09  570290.67      570272.28     9.78584656E-04  18.396783    
 1.20960239E-06 4.03806489E-09  582016.83      581998.45     1.00575063E-03  18.384269    
 1.21770557E-06 4.06511607E-09  593715.15      593696.76     1.03273659E-03  18.388637    
 1.22586303E-06 4.09234846E-09  605577.25      605558.86     1.06019156E-03  18.397094    
 1.23407514E-06 4.11976329E-09  618100.11      618081.73     1.08987715E-03  18.380437    
 1.24234227E-06 4.14736177E-09  630351.70      630333.31     1.11850773E-03  18.394783    
 1.25066478E-06 4.17514513E-09  643222.12      643203.74     1.14923366E-03  18.387425    
 1.25904304E-06 4.20311462E-09  656242.23      656223.84     1.18040044E-03  18.386624    
 1.26747742E-06 4.23127147E-09  669259.49      669241.09     1.21144056E-03  18.400251    
 1.27596831E-06 4.25961695E-09  683194.31      683175.93     1.24570888E-03  18.378411    
 1.28451608E-06 4.28815232E-09  696736.58      696718.18     1.27843710E-03  18.392780    
 1.29312111E-06 4.31687884E-09  710862.26      710843.87     1.31318611E-03  18.390582    
 1.30178379E-06 4.34579781E-09  725352.67      725334.28     1.34917705E-03  18.384607    
 1.31050450E-06 4.37491051E-09  739728.12      739709.72     1.38461029E-03  18.398905    
 1.31928362E-06 4.40421823E-09  755050.17      755031.79     1.42347506E-03  18.380914    
 1.32812156E-06 4.43372228E-09  770110.88      770092.49     1.46123318E-03  18.390773    
 1.33701871E-06 4.46342399E-09  785613.52      785595.13     1.50052812E-03  18.393738    
 1.34597546E-06 4.49332467E-09  801739.36      801720.98     1.54208501E-03  18.382587    
 1.35499221E-06 4.52342565E-09  817629.15      817610.76     1.58258954E-03  18.396909    
 1.36406936E-06 4.55372829E-09  834447.00      834428.61     1.62655179E-03  18.384070    
 1.37320733E-06 4.58423392E-09  851210.22      851191.83     1.67016536E-03  18.388763    
 1.38240650E-06 4.61494391E-09  868223.24      868204.84     1.71459642E-03  18.396895    
 1.39166731E-06 4.64585962E-09  886168.08      886149.70     1.76257446E-03  18.380564    
 1.40099015E-06 4.67698245E-09  903731.67      903713.28     1.80887607E-03  18.394909    
 1.41037545E-06 4.70831376E-09  922190.49      922172.10     1.85859963E-03  18.387227    
 1.41982361E-06 4.73985497E-09  940847.59      940829.20     1.90897042E-03  18.386750    
 1.42933508E-06 4.77160747E-09  959517.22      959498.82     1.95920374E-03  18.400052    
 1.43891026E-06 4.80357269E-09  979485.14      979466.76     2.01458879E-03  18.378538    
 1.44854958E-06 4.83575204E-09  998898.79      998880.39     2.06751713E-03  18.392906    
 1.45825348E-06 4.86814696E-09  1019157.7      1019139.3     2.12375155E-03  18.390383    
 1.46802239E-06 4.90075889E-09  1039921.5      1039903.1     2.18191944E-03  18.384734    
 1.47785673E-06 4.93358930E-09  1060529.4      1060511.0     2.23922234E-03  18.399031    
 1.48775696E-06 4.96663964E-09  1082503.7      1082485.3     2.30211612E-03  18.380716    
 1.49772351E-06 4.99991138E-09  1104084.4      1104066.0     2.36313865E-03  18.390899    
 1.50775683E-06 5.03340601E-09  1126317.9      1126299.5     2.42673015E-03  18.393540    
 1.51785736E-06 5.06712502E-09  1149424.9      1149406.5     2.49389410E-03  18.382715    
 1.52802556E-06 5.10106992E-09  1172203.4      1172185.0     2.55939832E-03  18.397034    
 1.53826187E-06 5.13524222E-09  1196322.7      1196304.3     2.63054162E-03  18.383872    
 1.54856676E-06 5.16964344E-09  1220342.6      1220324.3     2.70102791E-03  18.388890    
 1.55894067E-06 5.20427512E-09  1244742.1      1244723.7     2.77293171E-03  18.396697    
 1.56938409E-06 5.23913879E-09  1270455.3      1270436.9     2.85047401E-03  18.380692    
 1.57989746E-06 5.27423602E-09  1295632.9      1295614.5     2.92535329E-03  18.395035    
 1.59048127E-06 5.30956836E-09  1322105.3      1322086.9     3.00582048E-03  18.387028    
 1.60113597E-06 5.34513740E-09  1348838.7      1348820.3     3.08722812E-03  18.386877    
 1.61186206E-06 5.38094472E-09  1375613.8      1375595.4     3.16852235E-03  18.399854    
 1.62265999E-06 5.41699191E-09  1404225.4      1404207.1     3.25803649E-03  18.378666    
 1.63353026E-06 5.45328058E-09  1432054.7      1432036.3     3.34363256E-03  18.393032    
 1.64447336E-06 5.48981235E-09  1461108.5      1461090.1     3.43463675E-03  18.390185    
 1.65548976E-06 5.52658885E-09  1490860.1      1490841.7     3.52864648E-03  18.384861    
 1.66657996E-06 5.56361172E-09  1520401.1      1520382.7     3.62131707E-03  18.399156    
 1.67774445E-06 5.60088261E-09  1551914.2      1551895.9     3.72309621E-03  18.380518    
 1.68898374E-06 5.63840317E-09  1582835.9      1582817.5     3.82171720E-03  18.391026    
 1.70029832E-06 5.67617509E-09  1614721.2      1614702.8     3.92462798E-03  18.393341    
 1.71168869E-06 5.71420004E-09  1647829.8      1647811.4     4.03317772E-03  18.382842    
 1.72315537E-06 5.75247973E-09  1680481.8      1680463.4     4.13911152E-03  18.397160    
 1.73469887E-06 5.79101585E-09  1715070.7      1715052.3     4.25424126E-03  18.383674    
 1.74631969E-06 5.82981012E-09  1749487.0      1749468.6     4.36815789E-03  18.389016    
 1.75801837E-06 5.86886429E-09  1784478.1      1784459.7     4.48452127E-03  18.396498    
 1.76979541E-06 5.90818007E-09  1821320.5      1821302.1     4.60984527E-03  18.380819    
 1.78165135E-06 5.94775924E-09  1857410.9      1857392.5     4.73094044E-03  18.395160    
 1.79358672E-06 5.98760354E-09  1895374.0      1895355.6     4.86115959E-03  18.386830    
 1.80560203E-06 6.02771477E-09  1933677.6      1933659.2     4.99272775E-03  18.387004    
 1.81769784E-06 6.06809470E-09  1972075.1      1972056.7     5.12428870E-03  18.399655    
 1.82987468E-06 6.10874514E-09  2013070.0      2013051.6     5.26896259E-03  18.378793    
 1.84213310E-06 6.14966790E-09  2052960.8      2052942.4     5.40738896E-03  18.393158    
 1.85447363E-06 6.19086481E-09  2094625.1      2094606.8     5.55466089E-03  18.389986    
 1.86689683E-06 6.23233769E-09  2137252.7      2137234.3     5.70659721E-03  18.384988    
 1.87940326E-06 6.27408840E-09  2179596.7      2179578.3     5.85646449E-03  18.399281    
 1.89199346E-06 6.31611880E-09  2224786.9      2224768.5     6.02117041E-03  18.380319    
 1.90466801E-06 6.35843077E-09  2269090.1      2269071.7     6.18055556E-03  18.391152    
 1.91742747E-06 6.40102618E-09  2314814.4      2314796.0     6.34709690E-03  18.393143    
 1.93027240E-06 6.44390694E-09  2362251.1      2362232.8     6.52253369E-03  18.382969    
 1.94320339E-06 6.48707497E-09  2409053.8      2409035.4     6.69385024E-03  18.397285    
 1.95622099E-06 6.53053217E-09  2458653.9      2458635.5     6.88016204E-03  18.383475    
 1.96932581E-06 6.57428050E-09  2507963.4      2507945.0     7.06426844E-03  18.389143    
 1.98251841E-06 6.61832191E-09  2558140.9      2558122.5     7.25258140E-03  18.396300    
 1.99579939E-06 6.66265834E-09  2610926.3      2610907.9     7.45512993E-03  18.380946    
 2.00916934E-06 6.70729179E-09  2662656.7      2662638.3     7.65096546E-03  18.395286    
 2.02262885E-06 6.75222424E-09  2717094.6      2717076.2     7.86169732E-03  18.386631    
 2.03617854E-06 6.79745770E-09  2771972.7      2771954.3     8.07433283E-03  18.387130    
 2.04981899E-06 6.84299417E-09  2827034.3      2827015.9     8.28724159E-03  18.399457    
 2.06355082E-06 6.88883570E-09  2885768.2      2885749.8     8.52106498E-03  18.378921    
 2.07737464E-06 6.93498432E-09  2942944.8      2942926.4     8.74492852E-03  18.393284    
 2.09129106E-06 6.98144209E-09  3002689.5      3002671.1     8.98325805E-03  18.389788    
 2.10530072E-06 7.02821109E-09  3063761.6      3063743.2     9.22881358E-03  18.385115    
 2.11940422E-06 7.07529339E-09  3124453.8      3124435.4     9.47117931E-03  18.399407    
 2.13360221E-06 7.12269110E-09  3189252.6      3189234.3     9.73771719E-03  18.380121    
 2.14789530E-06 7.17040633E-09  3252724.6      3252706.2     9.99530516E-03  18.391278    
 2.16228415E-06 7.21844121E-09  3318290.1      3318271.7     1.02648199E-02  18.392944    
 2.17676939E-06 7.26679787E-09  3386251.1      3386232.7     1.05483583E-02  18.383096    
 2.19135167E-06 7.31547848E-09  3453332.6      3453314.2     1.08254117E-02  18.397411    
 2.20603163E-06 7.36448520E-09  3524453.9      3524435.5     1.11269153E-02  18.383277    
 2.22080994E-06 7.41382021E-09  3595096.9      3595078.5     1.14244584E-02  18.389269    
 2.23568724E-06 7.46348573E-09  3667047.0      3667028.6     1.17292082E-02  18.396101    
 2.25066421E-06 7.51348396E-09  3742669.6      3742651.2     1.20565664E-02  18.381074    
 2.26574151E-06 7.56381713E-09  3816812.4      3816794.0     1.23732718E-02  18.395412    
 2.28091982E-06 7.61448748E-09  3894869.5      3894851.1     1.27142958E-02  18.386433    
 2.29619980E-06 7.66549727E-09  3973488.9      3973470.5     1.30579486E-02  18.387257    
 2.31158215E-06 7.71684879E-09  4052441.2      4052422.8     1.34025042E-02  18.399258    
 2.32706754E-06 7.76854430E-09  4136584.2      4136565.8     1.37804113E-02  18.379048    
 2.34265667E-06 7.82058613E-09  4218531.3      4218512.9     1.41424436E-02  18.393410    
 2.35835023E-06 7.87297659E-09  4304196.3      4304177.9     1.45281306E-02  18.389589    
 2.37414893E-06 7.92571802E-09  4391687.5      4391669.1     1.49249903E-02  18.385242    
 2.39005346E-06 7.97881276E-09  4478672.2      4478653.8     1.53169442E-02  18.399532    
 2.40606454E-06 8.03226319E-09  4571581.6      4571563.2     1.57482725E-02  18.379922    
 2.42218287E-06 8.08607168E-09  4662509.4      4662491.0     1.61645687E-02  18.391404    
 2.43840918E-06 8.14024064E-09  4756519.1      4756500.7     1.66007251E-02  18.392746    
 2.45474420E-06 8.19477248E-09  4853877.5      4853859.1     1.70589748E-02  18.383223    
 2.47118864E-06 8.24966963E-09  4950017.3      4949998.9     1.75070255E-02  18.397537    
 2.48774324E-06 8.30493454E-09  5051990.2      5051971.8     1.79949402E-02  18.383078    
 2.50440875E-06 8.36056967E-09  5153189.0      5153170.6     1.84758129E-02  18.389396    
 2.52118589E-06 8.41657750E-09  5256351.3      5256332.9     1.89689931E-02  18.395903    
 2.53807543E-06 8.47296053E-09  5364683.1      5364664.7     1.94980672E-02  18.381201    
 2.55507811E-06 8.52972128E-09  5470940.8      5470922.4     2.00102430E-02  18.395538    
 2.57219470E-06 8.58686227E-09  5582856.1      5582837.7     2.05621154E-02  18.386234    
 2.58942595E-06 8.64438604E-09  5695479.1      5695460.7     2.11175121E-02  18.387384    
 2.60677263E-06 8.70229518E-09  5808679.4      5808660.9     2.16751141E-02  18.473666    
 2.62423551E-06 8.76059224E-09  5929214.8      5929195.8     2.22858890E-02  18.905143    
 2.64181539E-06 8.81927985E-09  6046655.0      6046635.6     2.28713671E-02  19.420279    
 2.65951303E-06 8.87836060E-09  6169476.6      6169456.6     2.34955205E-02  19.960633    
 2.67732922E-06 8.93783714E-09  6294806.3      6294785.8     2.41369123E-02  20.504168    
 2.69526477E-06 8.99771211E-09  6419464.4      6419443.3     2.47707793E-02  21.031679    
 2.71332047E-06 9.05798819E-09  6552668.6      6552646.9     2.54687804E-02  21.599436    
 2.73149713E-06 9.11866806E-09  6682918.8      6682896.6     2.61415688E-02  22.149169    
 2.74979555E-06 9.17975443E-09  6817702.2      6817679.4     2.68474004E-02  22.744265    
 2.76821656E-06 9.24125002E-09  6957163.1      6957139.8     2.75880139E-02  23.365520    
 2.78676096E-06 9.30315757E-09  7094938.1      7094914.1     2.83126002E-02  23.962307    
 2.80542960E-06 9.36547984E-09  7241134.0      7241109.3     2.91021772E-02  24.598298    
 2.82422330E-06 9.42821962E-09  7386093.6      7386068.4     2.98793352E-02  25.212670    
 2.84314290E-06 9.49137968E-09  7533996.3      7533970.5     3.06774531E-02  25.832181    
 2.86218924E-06 9.55496287E-09  7689172.4      7689145.9     3.15325374E-02  26.497981    
 2.88136318E-06 9.61897199E-09  7841443.4      7841416.2     3.23608263E-02  27.165962    
 2.90066556E-06 9.68340992E-09  8001890.1      8001862.2     3.32539088E-02  27.878688    
 2.92009725E-06 9.74827952E-09  8163210.3      8163181.6     3.41515149E-02  28.580846    
 2.93965911E-06 9.81358368E-09  8325501.0      8325471.7     3.50538927E-02  29.275129    
 2.95935202E-06 9.87932532E-09  8498152.8      8498122.7     3.60410275E-02  30.014177    
 2.97917685E-06 9.94550737E-09  8666443.6      8666412.9     3.69878600E-02  30.715326    
 2.99913449E-06 1.00121328E-08  8842521.6      8842490.1     3.79979190E-02  31.467492    
 3.01922583E-06 1.00792045E-08  9022037.4      9022005.1     3.90345136E-02  32.263928    
 3.03945176E-06 1.01467255E-08  9200668.6      9200635.5     4.00596001E-02  33.045305    
 3.05981319E-06 1.02146989E-08  9391625.1      9391591.1     4.11891446E-02  33.883012    
 3.08031101E-06 1.02831276E-08  9578185.4      9578150.7     4.22764550E-02  34.678532    
 3.10094616E-06 1.03520148E-08  9771407.9      9771372.4     4.34186994E-02  35.496493    
 3.12171953E-06 1.04213634E-08  9971159.2      9971122.8     4.46156607E-02  36.335274    
 3.14263207E-06 1.04911766E-08  10168581.      10168544.     4.57874575E-02  37.174689    
 3.16368471E-06 1.05614574E-08  10378157.      10378119.     4.70652020E-02  38.109188    
 3.18487837E-06 1.06322091E-08  10585781.      10585742.     4.83211962E-02  39.018216    
 3.20621402E-06 1.07034348E-08  10797806.      10797766.     4.96127948E-02  39.935869    
 3.22769259E-06 1.07751376E-08  11020061.      11020020.     5.09947703E-02  40.891447    
 3.24931505E-06 1.08473207E-08  11238248.      11238206.     5.23342736E-02  41.808201    
 3.27108236E-06 1.09199874E-08  11468248.      11468205.     5.37795255E-02  42.772107    
 3.29299549E-06 1.09931409E-08  11699298.      11699254.     5.52301906E-02  43.765052    
 3.31505541E-06 1.10667844E-08  11931944.      11931899.     5.66905223E-02  44.790797    
 3.33726312E-06 1.11409213E-08  12179221.      12179175.     5.82859264E-02  45.882760    
 3.35961959E-06 1.12155548E-08  12420357.      12420310.     5.98171370E-02  46.920332    
 3.38212584E-06 1.12906884E-08  12672758.      12672710.     6.14516980E-02  47.999942    
 3.40478285E-06 1.13663252E-08  12929861.      12929812.     6.31270012E-02  49.083670    
 3.42759164E-06 1.14424687E-08  13185808.      13185758.     6.47847628E-02  50.146904    
 3.45055323E-06 1.15191223E-08  13459528.      13459476.     6.66126506E-02  51.335511    
 3.47366865E-06 1.15962894E-08  13726715.      13726662.     6.83698763E-02  52.513965    
 3.49693891E-06 1.16739735E-08  14003686.      14003632.     7.02183612E-02  53.726287    
 3.52036506E-06 1.17521780E-08  14289762.      14289707.     7.21528559E-02  54.964249    
 3.54394814E-06 1.18309064E-08  14572624.      14572568.     7.40478752E-02  56.165077    
 3.56768921E-06 1.19101621E-08  14873025.      14872968.     7.61155991E-02  57.432614    
 3.59158932E-06 1.19899488E-08  15170370.      15170311.     7.81454530E-02  58.670596    
 3.61564954E-06 1.20702701E-08  15474286.      15474226.     8.02356489E-02  59.985694    
 3.63987094E-06 1.21511293E-08  15792579.      15792518.     8.24691731E-02  61.400156    
 3.66425460E-06 1.22325303E-08  16105185.      16105122.     8.46354046E-02  62.759410    
 3.68880161E-06 1.23144766E-08  16434853.      16434788.     8.69742120E-02  64.184312    
 3.71351306E-06 1.23969718E-08  16765736.      16765670.     8.93186969E-02  65.590174    
 3.73839005E-06 1.24800197E-08  17099201.      17099134.     9.16819678E-02  66.987600    
 3.76343369E-06 1.25636239E-08  17453318.      17453250.     9.42604482E-02  68.470985    
 3.78864510E-06 1.26477882E-08  17798791.      17798721.     9.67367053E-02  69.972413    
 3.81402541E-06 1.27325163E-08  18160558.      18160486.     9.93818805E-02  71.572304    
 3.83957574E-06 1.28178120E-08  18528740.      18528666.     0.10208943      73.178131    
 3.86529723E-06 1.29036791E-08  18895426.      18895351.     0.10477034      74.751391    
 3.89119103E-06 1.29901214E-08  19287732.      19287655.     0.10772832      76.423197    
 3.91725829E-06 1.30771428E-08  19670347.      19670269.     0.11056820      78.022196    
 3.94350018E-06 1.31647472E-08  20067318.      20067239.     0.11355958      79.683548    
 3.96991787E-06 1.32529384E-08  20476976.      20476895.     0.11668605      81.479093    
 3.99651253E-06 1.33417205E-08  20882209.      20882126.     0.11975065      83.258966    
 4.02328535E-06 1.34310972E-08  21312745.      21312660.     0.12309676      85.139872    
 4.05023752E-06 1.35210728E-08  21738531.      21738443.     0.12637726      86.965164    
 4.07737024E-06 1.36116511E-08  22174109.      22174020.     0.12975982      88.810901    
 4.10468473E-06 1.37028361E-08  22629886.      22629795.     0.13336959      90.719721    
 4.13218219E-06 1.37946320E-08  23077713.      23077620.     0.13687279      92.598469    
