 OPTXAGNF AGN Spectrum Model Parameters: BLS, Astar 0.0                          
 M_BH:  5.0000E+06 M_0            L  :  0.3000     L/Ledd 
 D   :  1.5000E+18 cm             z  :   0.000     redshift 
 Rcor:   60.00     Rg             Ro :   4.000     Rg 
 C_T :  0.2000     keV            Tau:   15.00     Optical Depth 
 gam :   1.800     (-slope)       fpl:  0.5000     Fraction 
 E              0.5DeltaE      E.FE total     E.FE Disk      E.FE Compton   E.FE NonThermal
 (keV)          (keV)          E.E/cm2/s/E    E.E/cm2/s/E    E.E/cm2/s/E    E.E/cm2/s/E    
 1.00334952E-06 3.34952256E-09  290400.38      290393.55     2.26946313E-03  6.8275961    
 1.01007101E-06 3.37196116E-09  296157.20      296150.36     2.32908884E-03  6.8329353    
 1.01683752E-06 3.39455008E-09  302156.68      302149.85     2.39231035E-03  6.8323598    
 1.02364936E-06 3.41729032E-09  308321.88      308315.05     2.45796340E-03  6.8298986    
 1.03050683E-06 3.44018290E-09  314432.92      314426.08     2.52251719E-03  6.8352114    
 1.03741024E-06 3.46322884E-09  320940.71      320933.87     2.59322941E-03  6.8287684    
 1.04435990E-06 3.48642917E-09  327348.70      327341.87     2.66210929E-03  6.8321897    
 1.05135611E-06 3.50978492E-09  333933.04      333926.20     2.73360060E-03  6.8335326    
 1.05839920E-06 3.53329712E-09  340794.10      340787.26     2.80940561E-03  6.8291481    
 1.06548946E-06 3.55696684E-09  347548.96      347542.12     2.88319844E-03  6.8344696    
 1.07262722E-06 3.58079512E-09  354692.09      354685.26     2.96318420E-03  6.8299409    
 1.07981280E-06 3.60478303E-09  361824.51      361817.67     3.04274448E-03  6.8314429    
 1.08704652E-06 3.62893164E-09  369050.37      369043.53     3.12357911E-03  6.8347054    
 1.09432869E-06 3.65324201E-09  376685.40      376678.57     3.21109574E-03  6.8283964    
 1.10165965E-06 3.67771524E-09  384151.90      384145.06     3.29544984E-03  6.8337265    
 1.10903971E-06 3.70235243E-09  391992.04      391985.21     3.38591667E-03  6.8311135    
 1.11646922E-06 3.72715465E-09  399930.32      399923.48     3.47780205E-03  6.8306949    
 1.12394850E-06 3.75212303E-09  407859.81      407852.98     3.56919158E-03  6.8358784    
 1.13147788E-06 3.77725867E-09  416355.68      416348.84     3.67021780E-03  6.8276435    
 1.13905770E-06 3.80256270E-09  424608.74      424601.91     3.76664465E-03  6.8329821    
 1.14668830E-06 3.82803623E-09  433213.51      433206.68     3.86895594E-03  6.8322861    
 1.15437002E-06 3.85368042E-09  442048.19      442041.36     3.97506291E-03  6.8299457    
 1.16210319E-06 3.87949640E-09  450809.03      450802.19     4.07945945E-03  6.8352581    
 1.16988818E-06 3.90548532E-09  460142.65      460135.82     4.19389077E-03  6.8286947    
 1.17772531E-06 3.93164835E-09  469325.12      469318.29     4.30521024E-03  6.8322366    
 1.18561494E-06 3.95798663E-09  478768.65      478761.81     4.42090523E-03  6.8334588    
 1.19355743E-06 3.98450137E-09  488600.39      488593.56     4.54342042E-03  6.8291953    
 1.20155313E-06 4.01119372E-09  498284.11      498277.27     4.66275830E-03  6.8345162    
 1.20960239E-06 4.03806489E-09  508528.88      508522.04     4.79219744E-03  6.8298672    
 1.21770557E-06 4.06511607E-09  518749.33      518742.49     4.92077888E-03  6.8314899    
 1.22586303E-06 4.09234846E-09  529112.86      529106.02     5.05159502E-03  6.8346317    
 1.23407514E-06 4.11976329E-09  540053.59      540046.76     5.19303938E-03  6.8284437    
 1.24234227E-06 4.14736177E-09  550757.37      550750.53     5.32945692E-03  6.8337732    
 1.25066478E-06 4.17514513E-09  562001.71      561994.87     5.47585816E-03  6.8310397    
 1.25904304E-06 4.20311462E-09  573376.81      573369.97     5.62435990E-03  6.8307420    
 1.26747742E-06 4.23127147E-09  584749.43      584742.59     5.77225817E-03  6.8358046    
 1.27596831E-06 4.25961695E-09  596923.56      596916.73     5.93553780E-03  6.8276908    
 1.28451608E-06 4.28815232E-09  608754.80      608747.96     6.09147934E-03  6.8330290    
 1.29312111E-06 4.31687884E-09  621095.66      621088.83     6.25704929E-03  6.8322124    
 1.30178379E-06 4.34579781E-09  633755.12      633748.28     6.42853666E-03  6.8299929    
 1.31050450E-06 4.37491051E-09  646314.18      646307.33     6.59736672E-03  6.8353047    
 1.31928362E-06 4.40421823E-09  659700.08      659693.25     6.78254695E-03  6.8286210    
 1.32812156E-06 4.43372228E-09  672857.72      672850.88     6.96245437E-03  6.8322836    
 1.33701871E-06 4.46342399E-09  686401.40      686394.56     7.14968419E-03  6.8333851    
 1.34597546E-06 4.49332467E-09  700489.42      700482.59     7.34769149E-03  6.8292425    
 1.35499221E-06 4.52342565E-09  714371.29      714364.44     7.54068463E-03  6.8345629    
 1.36406936E-06 4.55372829E-09  729063.78      729056.95     7.75015264E-03  6.8297935    
 1.37320733E-06 4.58423392E-09  743708.59      743701.75     7.95795928E-03  6.8315369    
 1.38240650E-06 4.61494391E-09  758571.58      758564.74     8.16966104E-03  6.8345579    
 1.39166731E-06 4.64585962E-09  774248.50      774241.67     8.39826293E-03  6.8284910    
 1.40099015E-06 4.67698245E-09  789592.50      789585.60     8.61887720E-03  6.8890847    
 1.41037545E-06 4.70831376E-09  805718.56      805711.48     8.85579589E-03  7.0717758    
 1.41982361E-06 4.73985497E-09  822017.85      822010.57     9.09579843E-03  7.2699500    
 1.42933508E-06 4.77160747E-09  838328.08      838320.61     9.33514593E-03  7.4638827    
 1.43891026E-06 4.80357269E-09  855772.33      855764.65     9.59903964E-03  7.6732896    
 1.44854958E-06 4.83575204E-09  872732.45      872724.57     9.85122801E-03  7.8695156    
 1.45825348E-06 4.86814696E-09  890430.91      890422.83     1.01191686E-02  8.0739336    
 1.46802239E-06 4.90075889E-09  908570.32      908562.02     1.03963216E-02  8.2889809    
 1.47785673E-06 4.93358930E-09  926573.63      926565.11     1.06693531E-02  8.5075565    
 1.48775696E-06 4.96663964E-09  945770.42      945761.67     1.09690233E-02  8.7439882    
 1.49772351E-06 4.99991138E-09  964623.38      964614.40     1.12597775E-02  8.9688434    
 1.50775683E-06 5.03340601E-09  984046.64      984037.43     1.15627720E-02  9.1987887    
 1.51785736E-06 5.06712502E-09  1004232.7      1004223.3     1.18827879E-02  9.4361440    
 1.52802556E-06 5.10106992E-09  1024132.0      1024122.3     1.21948957E-02  9.6644490    
 1.53826187E-06 5.13524222E-09  1045202.3      1045192.4     1.25338717E-02  9.9167539    
 1.54856676E-06 5.16964344E-09  1066185.9      1066175.7     1.28697173E-02  10.173910    
 1.55894067E-06 5.20427512E-09  1087501.0      1087490.6     1.32123168E-02  10.432470    
 1.56938409E-06 5.23913879E-09  1109963.5      1109952.7     1.35817816E-02  10.704689    
 1.57989746E-06 5.27423602E-09  1131958.2      1131947.2     1.39385582E-02  10.963563    
 1.59048127E-06 5.30956836E-09  1155083.9      1155072.6     1.43219589E-02  11.235275    
 1.60113597E-06 5.34513740E-09  1178437.4      1178425.9     1.47098406E-02  11.506126    
 1.61186206E-06 5.38094472E-09  1201827.5      1201815.7     1.50971818E-02  11.784124    
 1.62265999E-06 5.41699191E-09  1226821.6      1226809.5     1.55236878E-02  12.095214    
 1.63353026E-06 5.45328058E-09  1251132.4      1251120.0     1.59315257E-02  12.389084    
 1.64447336E-06 5.48981235E-09  1276512.7      1276500.0     1.63651311E-02  12.694806    
 1.65548976E-06 5.52658885E-09  1302502.4      1302489.4     1.68130568E-02  13.003777    
 1.66657996E-06 5.56361172E-09  1328308.2      1328294.9     1.72546019E-02  13.304281    
 1.67774445E-06 5.60088261E-09  1355836.5      1355822.9     1.77395457E-02  13.626543    
 1.68898374E-06 5.63840317E-09  1382848.2      1382834.2     1.82094421E-02  13.951093    
 1.70029832E-06 5.67617509E-09  1410701.6      1410687.2     1.86997776E-02  14.294010    
 1.71168869E-06 5.71420004E-09  1439623.3      1439608.7     1.92169805E-02  14.648104    
 1.72315537E-06 5.75247973E-09  1468146.3      1468131.3     1.97217194E-02  14.989128    
 1.73469887E-06 5.79101585E-09  1498360.9      1498345.5     2.02702732E-02  15.349604    
 1.74631969E-06 5.82981012E-09  1528424.8      1528409.1     2.08130470E-02  15.700886    
 1.75801837E-06 5.86886429E-09  1558990.7      1558974.6     2.13674786E-02  16.056290    
 1.76979541E-06 5.90818007E-09  1591173.4      1591156.9     2.19646037E-02  16.449102    
 1.78165135E-06 5.94775924E-09  1622699.5      1622682.6     2.25415802E-02  16.835732    
 1.79358672E-06 5.98760354E-09  1655861.0      1655843.7     2.31620286E-02  17.241461    
 1.80560203E-06 6.02771477E-09  1689319.9      1689302.2     2.37889044E-02  17.643747    
 1.81769784E-06 6.06809470E-09  1722860.8      1722842.8     2.44157458E-02  18.040452    
 1.82987468E-06 6.10874514E-09  1758670.1      1758651.6     2.51050648E-02  18.462300    
 1.84213310E-06 6.14966790E-09  1793515.3      1793496.4     2.57646170E-02  18.868603    
 1.85447363E-06 6.19086481E-09  1829909.3      1829889.9     2.64663144E-02  19.312462    
 1.86689683E-06 6.23233769E-09  1867144.4      1867124.6     2.71902355E-02  19.773184    
 1.87940326E-06 6.27408840E-09  1904132.1      1904111.9     2.79042985E-02  20.221927    
 1.89199346E-06 6.31611880E-09  1943605.2      1943584.5     2.86890611E-02  20.699564    
 1.90466801E-06 6.35843077E-09  1982303.9      1982282.7     2.94484724E-02  21.157270    
 1.91742747E-06 6.40102618E-09  2022243.6      2022221.9     3.02419798E-02  21.625081    
 1.93027240E-06 6.44390694E-09  2063678.7      2063656.5     3.10778700E-02  22.112940    
 1.94320339E-06 6.48707497E-09  2104560.1      2104537.5     3.18941290E-02  22.611893    
 1.95622099E-06 6.53053217E-09  2147884.5      2147861.3     3.27818336E-02  23.149692    
 1.96932581E-06 6.57428050E-09  2190955.2      2190931.5     3.36590303E-02  23.673462    
 1.98251841E-06 6.61832191E-09  2234783.9      2234759.7     3.45562692E-02  24.199840    
 1.99579939E-06 6.66265834E-09  2280890.0      2280865.2     3.55213341E-02  24.748878    
 2.00916934E-06 6.70729179E-09  2326074.8      2326049.5     3.64544145E-02  25.276585    
 2.02262885E-06 6.75222424E-09  2373623.9      2373598.1     3.74584690E-02  25.837226    
 2.03617854E-06 6.79745770E-09  2421557.6      2421531.2     3.84715933E-02  26.428907    
 2.04981899E-06 6.84299417E-09  2469651.6      2469624.5     3.94860194E-02  27.020810    
 2.06355082E-06 6.88883570E-09  2520952.2      2520924.5     4.06000938E-02  27.649326    
 2.07737464E-06 6.93498432E-09  2570893.1      2570864.8     4.16667140E-02  28.247473    
 2.09129106E-06 6.98144209E-09  2623076.5      2623047.6     4.28022578E-02  28.867315    
 2.10530072E-06 7.02821109E-09  2676419.0      2676389.5     4.39722297E-02  29.492089    
 2.11940422E-06 7.07529339E-09  2729429.9      2729399.8     4.51270038E-02  30.116555    
 2.13360221E-06 7.12269110E-09  2786026.7      2785995.9     4.63969462E-02  30.822031    
 2.14789530E-06 7.17040633E-09  2841465.0      2841433.5     4.76242465E-02  31.503840    
 2.16228415E-06 7.21844121E-09  2898731.5      2898699.2     4.89083719E-02  32.201455    
 2.17676939E-06 7.26679787E-09  2958089.6      2958056.6     5.02593127E-02  32.916141    
 2.19135167E-06 7.31547848E-09  3016679.8      3016646.1     5.15793560E-02  33.609469    
 2.20603163E-06 7.36448520E-09  3078797.5      3078763.1     5.30158920E-02  34.337954    
 2.22080994E-06 7.41382021E-09  3140497.7      3140462.5     5.44335579E-02  35.073296    
 2.23568724E-06 7.46348573E-09  3203339.2      3203303.3     5.58855595E-02  35.851436    
 2.25066421E-06 7.51348396E-09  3269387.4      3269350.7     5.74452788E-02  36.669251    
 2.26574151E-06 7.56381713E-09  3334143.7      3334106.2     5.89542432E-02  37.455133    
 2.28091982E-06 7.61448748E-09  3402317.7      3402279.3     6.05790721E-02  38.275750    
 2.29619980E-06 7.66549727E-09  3470982.8      3470943.6     6.22164264E-02  39.089365    
 2.31158215E-06 7.71684879E-09  3539938.6      3539898.6     6.38580817E-02  39.895539    
 2.32706754E-06 7.76854430E-09  3613426.5      3613385.6     6.56586387E-02  40.780055    
 2.34265667E-06 7.82058613E-09  3684997.4      3684955.6     6.73835607E-02  41.666722    
 2.35835023E-06 7.87297659E-09  3759814.3      3759771.7     6.92211845E-02  42.590567    
 2.37414893E-06 7.92571802E-09  3836225.9      3836182.3     7.11120401E-02  43.520852    
 2.39005346E-06 7.97881276E-09  3912195.4      3912150.9     7.29795220E-02  44.431538    
 2.40606454E-06 8.03226319E-09  3993337.5      3993292.1     7.50346009E-02  45.395189    
 2.42218287E-06 8.08607168E-09  4072749.8      4072703.4     7.70180602E-02  46.325410    
 2.43840918E-06 8.14024064E-09  4154853.0      4154805.6     7.90961419E-02  47.314748    
 2.45474420E-06 8.19477248E-09  4239879.8      4239831.3     8.12794856E-02  48.374401    
 2.47118864E-06 8.24966963E-09  4323843.0      4323793.5     8.34142367E-02  49.406418    
 2.48774324E-06 8.30493454E-09  4412898.7      4412848.1     8.57389170E-02  50.492294    
 2.50440875E-06 8.36056967E-09  4501278.8      4501227.2     8.80300455E-02  51.551630    
 2.52118589E-06 8.41657750E-09  4591373.2      4591320.5     9.03798123E-02  52.618573    
 2.53807543E-06 8.47296053E-09  4685980.7      4685926.9     9.29005927E-02  53.730774    
 2.55507811E-06 8.52972128E-09  4778778.0      4778723.0     9.53408619E-02  54.854597    
 2.57219470E-06 8.58686227E-09  4876514.3      4876458.2     9.79702620E-02  56.073147    
 2.58942595E-06 8.64438604E-09  4974868.7      4974811.3     0.10061645      57.283876    
 2.60677263E-06 8.70229518E-09  5073727.2      5073668.6     0.10327315      58.484170    
 2.62423551E-06 8.76059224E-09  5178988.8      5178928.9     0.10618319      59.749215    
 2.64181539E-06 8.81927985E-09  5281548.7      5281487.6     0.10897270      60.961398    
 2.65951303E-06 8.87836060E-09  5388806.4      5388744.1     0.11194647      62.223091    
 2.67732922E-06 8.93783714E-09  5498253.8      5498190.1     0.11500237      63.559676    
 2.69526477E-06 8.99771211E-09  5607115.3      5607050.3     0.11802243      64.911825    
 2.71332047E-06 9.05798819E-09  5723437.1      5723370.6     0.12134804      66.348299    
 2.73149713E-06 9.11866806E-09  5837180.6      5837112.7     0.12455353      67.727180    
 2.74979555E-06 9.17975443E-09  5954881.4      5954812.1     0.12791645      69.138563    
 2.76821656E-06 9.24125002E-09  6076665.4      6076594.7     0.13144508      70.579276    
 2.78676096E-06 9.30315757E-09  6196978.2      6196906.0     0.13489735      71.996034    
 2.80542960E-06 9.36547984E-09  6324641.6      6324567.9     0.13865926      73.563006    
 2.82422330E-06 9.42821962E-09  6451226.4      6451151.2     0.14236201      75.138326    
 2.84314290E-06 9.49137968E-09  6580380.5      6580303.6     0.14616461      76.726523    
 2.86218924E-06 9.55496287E-09  6715883.4      6715804.9     0.15023862      78.373525    
 2.88136318E-06 9.61897199E-09  6848851.0      6848770.9     0.15418496      79.964469    
 2.90066556E-06 9.68340992E-09  6988955.0      6988873.2     0.15844001      81.621549    
 2.92009725E-06 9.74827952E-09  7129821.7      7129738.3     0.16271661      83.286522    
 2.93965911E-06 9.81358368E-09  7271536.2      7271451.0     0.16701594      85.028279    
 2.95935202E-06 9.87932532E-09  7422294.2      7422207.1     0.17171908      86.912083    
 2.97917685E-06 9.94550737E-09  7569246.4      7569157.5     0.17623020      88.714422    
 2.99913449E-06 1.00121328E-08  7722995.7      7722904.9     0.18104256      90.580927    
 3.01922583E-06 1.00792045E-08  7879745.7      7879653.1     0.18598134      92.456862    
 3.03945176E-06 1.01467255E-08  8035724.3      8035629.8     0.19086529      94.299692    
 3.05981319E-06 1.02146989E-08  8202460.3      8202363.8     0.19624691      96.273563    
 3.08031101E-06 1.02831276E-08  8365360.2      8365261.7     0.20142732      98.291757    
 3.10094616E-06 1.03520148E-08  8534075.1      8533974.5     0.20686944      100.39269    
 3.12171953E-06 1.04213634E-08  8708488.4      8708385.6     0.21257225      102.53660    
 3.14263207E-06 1.04911766E-08  8880869.4      8880764.5     0.21815517      104.62410    
 3.16368471E-06 1.05614574E-08  9063858.0      9063751.0     0.22424286      106.81460    
 3.18487837E-06 1.06322091E-08  9245143.1      9245034.0     0.23022692      108.95318    
 3.20621402E-06 1.07034348E-08  9430270.6      9430159.2     0.23638061      111.14780    
 3.22769259E-06 1.07751376E-08  9624325.2      9624211.4     0.24296488      113.57067    
 3.24931505E-06 1.08473207E-08  9814831.8      9814715.6     0.24934679      115.93528    
 3.27108236E-06 1.09199874E-08  10015647.      10015529.     0.25623252      118.40336    
 3.29299549E-06 1.09931409E-08  10217379.      10217258.     0.26314404      120.84537    
 3.31505541E-06 1.10667844E-08  10420506.      10420382.     0.27010162      123.27378    
 3.33726312E-06 1.11409213E-08  10636400.      10636274.     0.27770271      125.81954    
 3.35961959E-06 1.12155548E-08  10846935.      10846807.     0.28499796      128.33604    
 3.38212584E-06 1.12906884E-08  11067303.      11067172.     0.29278560      131.08538    
 3.40478285E-06 1.13663252E-08  11291774.      11291640.     0.30076735      133.87545    
 3.42759164E-06 1.14424687E-08  11515237.      11515100.     0.30866552      136.61392    
 3.45055323E-06 1.15191223E-08  11754209.      11754069.     0.31737421      139.50945    
 3.47366865E-06 1.15962894E-08  11987482.      11987340.     0.32574625      142.29337    
 3.49693891E-06 1.16739735E-08  12229293.      12229148.     0.33455307      145.14458    
 3.52036506E-06 1.17521780E-08  12479049.      12478901.     0.34376965      148.15177    
 3.54394814E-06 1.18309064E-08  12726003.      12725852.     0.35279816      151.23006    
 3.56768921E-06 1.19101621E-08  12988261.      12988107.     0.36264948      154.49350    
 3.59158932E-06 1.19899488E-08  13247853.      13247695.     0.37232037      157.67145    
 3.61564954E-06 1.20702701E-08  13513180.      13513019.     0.38227874      160.88115    
 3.63987094E-06 1.21511293E-08  13791052.      13790888.     0.39291994      164.19691    
 3.66425460E-06 1.22325303E-08  14063963.      14063795.     0.40324056      167.41724    
 3.68880161E-06 1.23144766E-08  14351761.      14351590.     0.41438335      170.89687    
 3.71351306E-06 1.23969718E-08  14640622.      14640447.     0.42555319      174.50878    
 3.73839005E-06 1.24800197E-08  14931736.      14931557.     0.43681253      178.11931    
 3.76343369E-06 1.25636239E-08  15240870.      15240687.     0.44909716      181.90954    
 3.78864510E-06 1.26477882E-08  15542462.      15542276.     0.46089478      185.55105    
 3.81402541E-06 1.27325163E-08  15858272.      15858082.     0.47349714      189.31846    
 3.83957574E-06 1.28178120E-08  16179680.      16179486.     0.48639668      193.11447    
 3.86529723E-06 1.29036791E-08  16499784.      16499586.     0.49916930      196.99870    
 3.89119103E-06 1.29901214E-08  16842241.      16842039.     0.51326189      201.29526    
 3.91725829E-06 1.30771428E-08  17176245.      17176039.     0.52679186      205.42951    
 3.94350018E-06 1.31647472E-08  17522775.      17522564.     0.54104358      209.67182    
 3.96991787E-06 1.32529384E-08  17880373.      17880159.     0.55593887      213.98940    
 3.99651253E-06 1.33417205E-08  18234113.      18233894.     0.57053942      218.20612    
 4.02328535E-06 1.34310972E-08  18609927.      18609704.     0.58648109      222.64709    
 4.05023752E-06 1.35210728E-08  18981600.      18981372.     0.60211022      227.19258    
 4.07737024E-06 1.36116511E-08  19361817.      19361584.     0.61822554      231.95162    
 4.10468473E-06 1.37028361E-08  19759655.      19759418.     0.63542332      236.88591    
 4.13218219E-06 1.37946320E-08  20150560.      20150318.     0.65211339      241.66163    
