 OPTXAGNF AGN Spectrum Model Parameters: NLS, Astar 0.0                          
 M_BH:  5.0000E+06 M_0            L  :  0.2000     L/Ledd 
 D   :  1.5000E+18 cm             z  :   0.000     redshift 
 Rcor:   40.00     Rg             Ro :   4.000     Rg 
 C_T :  0.2000     keV            Tau:   15.00     Optical Depth 
 gam :   2.200     (-slope)       fpl:  0.2000     Fraction 
 E              0.5DeltaE      E.FE total     E.FE Disk      E.FE Compton   E.FE NonThermal
 (keV)          (keV)          E.E/cm2/s/E    E.E/cm2/s/E    E.E/cm2/s/E    E.E/cm2/s/E    
 1.00334952E-06 3.34952256E-09  264718.12      264710.92     6.50659027E-04  7.2066411    
 1.01007101E-06 3.37196116E-09  269965.44      269958.23     6.67753892E-04  7.2122768    
 1.01683752E-06 3.39455008E-09  275433.93      275426.72     6.85879692E-04  7.2116694    
 1.02364936E-06 3.41729032E-09  281053.45      281046.24     7.04702621E-04  7.2090714    
 1.03050683E-06 3.44018290E-09  286623.61      286616.40     7.23210391E-04  7.2146793    
 1.03741024E-06 3.46322884E-09  292555.36      292548.15     7.43483808E-04  7.2078786    
 1.04435990E-06 3.48642917E-09  298396.16      298388.95     7.63231888E-04  7.2114898    
 1.05135611E-06 3.50978492E-09  304397.69      304390.47     7.83728677E-04  7.2129072    
 1.05839920E-06 3.53329712E-09  310651.40      310644.20     8.05462222E-04  7.2082793    
 1.06548946E-06 3.55696684E-09  316808.35      316801.14     8.26618866E-04  7.2138962    
 1.07262722E-06 3.58079512E-09  323319.15      323311.94     8.49551055E-04  7.2091161    
 1.07981280E-06 3.60478303E-09  329820.18      329812.97     8.72361256E-04  7.2107015    
 1.08704652E-06 3.62893164E-09  336406.39      336399.17     8.95536818E-04  7.2141452    
 1.09432869E-06 3.65324201E-09  343365.49      343358.29     9.20628145E-04  7.2074859    
 1.10165965E-06 3.67771524E-09  350171.01      350163.80     9.44812761E-04  7.2131118    
 1.10903971E-06 3.70235243E-09  357317.05      357309.84     9.70749924E-04  7.2103538    
 1.11646922E-06 3.72715465E-09  364552.53      364545.32     9.97093794E-04  7.2099120    
 1.12394850E-06 3.75212303E-09  371780.02      371772.80     1.02329550E-03  7.2153832    
 1.13147788E-06 3.77725867E-09  379523.65      379516.44     1.05226010E-03  7.2066911    
 1.13905770E-06 3.80256270E-09  387046.03      387038.82     1.07990604E-03  7.2123262    
 1.14668830E-06 3.82803623E-09  394888.94      394881.72     1.10923907E-03  7.2115915    
 1.15437002E-06 3.85368042E-09  402941.36      402934.15     1.13966035E-03  7.2091212    
 1.16210319E-06 3.87949640E-09  410926.50      410919.29     1.16959124E-03  7.2147285    
 1.16988818E-06 3.90548532E-09  419433.64      419426.43     1.20239915E-03  7.2078008    
 1.17772531E-06 3.93164835E-09  427803.04      427795.83     1.23431489E-03  7.2115393    
 1.18561494E-06 3.95798663E-09  436410.35      436403.13     1.26748510E-03  7.2128294    
 1.19355743E-06 3.98450137E-09  445371.45      445364.24     1.30261071E-03  7.2083291    
 1.20155313E-06 4.01119372E-09  454197.66      454190.45     1.33682537E-03  7.2139455    
 1.20960239E-06 4.03806489E-09  463535.17      463527.96     1.37393611E-03  7.2090383    
 1.21770557E-06 4.06511607E-09  472850.53      472843.31     1.41080095E-03  7.2107511    
 1.22586303E-06 4.09234846E-09  482296.29      482289.07     1.44830650E-03  7.2140673    
 1.23407514E-06 4.11976329E-09  492268.04      492260.83     1.48885921E-03  7.2075358    
 1.24234227E-06 4.14736177E-09  502023.88      502016.66     1.52797071E-03  7.2131612    
 1.25066478E-06 4.17514513E-09  512272.33      512265.12     1.56994460E-03  7.2102759    
 1.25904304E-06 4.20311462E-09  522639.95      522632.74     1.61252071E-03  7.2099617    
 1.26747742E-06 4.23127147E-09  533005.33      532998.12     1.65492381E-03  7.2153054    
 1.27596831E-06 4.25961695E-09  544101.11      544093.90     1.70173683E-03  7.2067412    
 1.28451608E-06 4.28815232E-09  554884.43      554877.21     1.74644599E-03  7.2123756    
 1.29312111E-06 4.31687884E-09  566132.17      566124.96     1.79391566E-03  7.2115137    
 1.30178379E-06 4.34579781E-09  577670.24      577663.03     1.84308191E-03  7.2091710    
 1.31050450E-06 4.37491051E-09  589116.84      589109.62     1.89148628E-03  7.2147777    
 1.31928362E-06 4.40421823E-09  601316.92      601309.71     1.94457836E-03  7.2077230    
 1.32812156E-06 4.43372228E-09  613309.00      613301.79     1.99615869E-03  7.2115888    
 1.33701871E-06 4.46342399E-09  625652.87      625645.66     2.04983840E-03  7.2127515    
 1.34597546E-06 4.49332467E-09  638492.80      638485.59     2.10660809E-03  7.2083790    
 1.35499221E-06 4.52342565E-09  651144.87      651137.66     2.16194019E-03  7.2139947    
 1.36406936E-06 4.55372829E-09  664535.65      664528.43     2.22199574E-03  7.2089605    
 1.37320733E-06 4.58423392E-09  677882.97      677875.76     2.28157498E-03  7.2108007    
 1.38240650E-06 4.61494391E-09  691429.14      691421.92     2.34227097E-03  7.2139895    
 1.39166731E-06 4.64585962E-09  705716.99      705709.78     2.40781234E-03  7.2075857    
 1.40099015E-06 4.67698245E-09  719701.44      719694.22     2.47106362E-03  7.2132105    
 1.41037545E-06 4.70831376E-09  734398.42      734391.21     2.53898949E-03  7.2101981    
 1.41982361E-06 4.73985497E-09  749253.25      749246.04     2.60779952E-03  7.2100114    
 1.42933508E-06 4.77160747E-09  764118.10      764110.88     2.67642176E-03  7.2152275    
 1.43891026E-06 4.80357269E-09  780016.25      780009.04     2.75208157E-03  7.2067912    
 1.44854958E-06 4.83575204E-09  795473.31      795466.09     2.82438537E-03  7.2124251    
 1.45825348E-06 4.86814696E-09  811603.15      811595.94     2.90120547E-03  7.2114359    
 1.46802239E-06 4.90075889E-09  828134.79      828127.58     2.98066682E-03  7.2092207    
 1.47785673E-06 4.93358930E-09  844542.45      844535.23     3.05894652E-03  7.2148268    
 1.48775696E-06 4.96663964E-09  862037.58      862030.37     3.14486372E-03  7.2076451    
 1.49772351E-06 4.99991138E-09  879219.47      879212.26     3.22822468E-03  7.2116383    
 1.50775683E-06 5.03340601E-09  896921.02      896913.80     3.31509499E-03  7.2126737    
 1.51785736E-06 5.06712502E-09  915317.67      915310.46     3.40684549E-03  7.2084288    
 1.52802556E-06 5.10106992E-09  933452.97      933445.76     3.49632869E-03  7.2140440    
 1.53826187E-06 5.13524222E-09  952655.35      952648.13     3.59351521E-03  7.2088827    
 1.54856676E-06 5.16964344E-09  971778.70      971771.48     3.68980423E-03  7.2108503    
 1.55894067E-06 5.20427512E-09  991204.14      991196.92     3.78802964E-03  7.2139116    
 1.56938409E-06 5.23913879E-09  1011675.0      1011667.8     3.89395756E-03  7.2076356    
 1.57989746E-06 5.27423602E-09  1031719.8      1031712.6     3.99624765E-03  7.2132599    
 1.59048127E-06 5.30956836E-09  1052795.0      1052787.8     4.10617114E-03  7.2101203    
 1.60113597E-06 5.34513740E-09  1074077.9      1074070.7     4.21737934E-03  7.2100610    
 1.61186206E-06 5.38094472E-09  1095394.1      1095386.9     4.32843262E-03  7.2151497    
 1.62265999E-06 5.41699191E-09  1118171.7      1118164.5     4.45071476E-03  7.2068412    
 1.63353026E-06 5.45328058E-09  1140326.9      1140319.7     4.56764459E-03  7.2124745    
 1.64447336E-06 5.48981235E-09  1163456.5      1163449.3     4.69196222E-03  7.2113580    
 1.65548976E-06 5.52658885E-09  1187141.4      1187134.2     4.82038558E-03  7.2092705    
 1.66657996E-06 5.56361172E-09  1210658.9      1210651.6     4.94697960E-03  7.2148760    
 1.67774445E-06 5.60088261E-09  1235745.6      1235738.4     5.08601640E-03  7.2075673    
 1.68898374E-06 5.63840317E-09  1260361.8      1260354.5     5.22073900E-03  7.2116878    
 1.70029832E-06 5.67617509E-09  1285744.8      1285737.6     5.36132167E-03  7.2125959    
 1.71168869E-06 5.71420004E-09  1312101.3      1312094.0     5.50960748E-03  7.2084786    
 1.72315537E-06 5.75247973E-09  1338094.5      1338087.3     5.65431976E-03  7.2140933    
 1.73469887E-06 5.79101585E-09  1365628.9      1365621.7     5.81159419E-03  7.2088048    
 1.74631969E-06 5.82981012E-09  1393026.1      1393018.9     5.96721145E-03  7.2108999    
 1.75801837E-06 5.86886429E-09  1420880.7      1420873.4     6.12617110E-03  7.2138338    
 1.76979541E-06 5.90818007E-09  1450208.3      1450201.1     6.29737142E-03  7.2076855    
 1.78165135E-06 5.94775924E-09  1478937.8      1478930.6     6.46279494E-03  7.2133092    
 1.79358672E-06 5.98760354E-09  1509157.3      1509150.0     6.64068229E-03  7.2100425    
 1.80560203E-06 6.02771477E-09  1539647.8      1539640.6     6.82041245E-03  7.2101107    
 1.81769784E-06 6.06809470E-09  1570213.1      1570205.9     7.00013275E-03  7.2150718    
 1.82987468E-06 6.10874514E-09  1602845.0      1602837.7     7.19776601E-03  7.2068911    
 1.84213310E-06 6.14966790E-09  1634598.6      1634591.4     7.38686484E-03  7.2125239    
 1.85447363E-06 6.19086481E-09  1667763.3      1667756.1     7.58804714E-03  7.2112802    
 1.86689683E-06 6.23233769E-09  1701694.4      1701687.1     7.79560123E-03  7.2093202    
 1.87940326E-06 6.27408840E-09  1735400.1      1735392.8     8.00032890E-03  7.2166602    
 1.89199346E-06 6.31611880E-09  1771370.2      1771362.9     8.22532690E-03  7.3239009    
 1.90466801E-06 6.35843077E-09  1806635.0      1806627.4     8.44305643E-03  7.5270914    
 1.91742747E-06 6.40102618E-09  1843030.4      1843022.6     8.67056168E-03  7.7357147    
 1.93027240E-06 6.44390694E-09  1880788.2      1880780.2     8.91021854E-03  7.9509292    
 1.94320339E-06 6.48707497E-09  1918041.7      1918033.5     9.14424695E-03  8.1570953    
 1.95622099E-06 6.53053217E-09  1957520.8      1957512.4     9.39875960E-03  8.3766103    
 1.96932581E-06 6.57428050E-09  1996768.8      1996760.2     9.65025954E-03  8.5904130    
 1.98251841E-06 6.61832191E-09  2036707.5      2036698.7     9.90750584E-03  8.8155437    
 1.99579939E-06 6.66265834E-09  2078720.9      2078711.8     1.01841986E-02  9.0612198    
 2.00916934E-06 6.70729179E-09  2119895.1      2119885.8     1.04517211E-02  9.2944612    
 2.02262885E-06 6.75222424E-09  2163223.3      2163213.8     1.07395926E-02  9.5403254    
 2.03617854E-06 6.79745770E-09  2206901.8      2206892.0     1.10300646E-02  9.7833945    
 2.04981899E-06 6.84299417E-09  2250726.4      2250716.4     1.13209099E-02  10.022790    
 2.06355082E-06 6.88883570E-09  2297472.3      2297462.0     1.16403255E-02  10.280777    
 2.07737464E-06 6.93498432E-09  2342979.6      2342969.1     1.19461355E-02  10.537714    
 2.09129106E-06 6.98144209E-09  2390529.8      2390519.0     1.22717066E-02  10.812786    
 2.10530072E-06 7.02821109E-09  2439136.0      2439124.9     1.26071488E-02  11.090578    
 2.11940422E-06 7.07529339E-09  2487440.3      2487428.9     1.29382336E-02  11.360452    
 2.13360221E-06 7.12269110E-09  2539011.1      2538999.4     1.33023386E-02  11.649407    
 2.14789530E-06 7.17040633E-09  2589526.6      2589514.7     1.36542175E-02  11.924674    
 2.16228415E-06 7.21844121E-09  2641707.7      2641695.4     1.40223890E-02  12.209765    
 2.17676939E-06 7.26679787E-09  2695794.1      2695781.6     1.44097173E-02  12.519662    
 2.19135167E-06 7.31547848E-09  2749181.2      2749168.4     1.47881869E-02  12.824821    
 2.20603163E-06 7.36448520E-09  2805781.7      2805768.5     1.52000565E-02  13.148955    
 2.22080994E-06 7.41382021E-09  2862001.9      2861988.4     1.56065158E-02  13.463465    
 2.23568724E-06 7.46348573E-09  2919261.8      2919248.0     1.60228196E-02  13.779849    
 2.25066421E-06 7.51348396E-09  2979442.8      2979428.7     1.64700075E-02  14.110438    
 2.26574151E-06 7.56381713E-09  3038447.2      3038432.8     1.69026434E-02  14.432179    
 2.28091982E-06 7.61448748E-09  3100564.8      3100550.0     1.73684992E-02  14.787952    
 2.29619980E-06 7.66549727E-09  3163129.9      3163114.7     1.78379462E-02  15.147371    
 2.31158215E-06 7.71684879E-09  3225959.9      3225944.4     1.83086264E-02  15.502210    
 2.32706754E-06 7.76854430E-09  3292918.1      3292902.2     1.88248659E-02  15.879864    
 2.34265667E-06 7.82058613E-09  3358130.4      3358114.1     1.93194198E-02  16.238166    
 2.35835023E-06 7.87297659E-09  3426299.5      3426282.8     1.98462870E-02  16.610365    
 2.37414893E-06 7.92571802E-09  3495921.2      3495904.1     2.03884165E-02  16.993688    
 2.39005346E-06 7.97881276E-09  3565140.4      3565123.0     2.09238444E-02  17.387126    
 2.40606454E-06 8.03226319E-09  3639071.2      3639053.3     2.15130592E-02  17.814540    
 2.42218287E-06 8.08607168E-09  3711426.5      3711408.3     2.20817395E-02  18.222167    
 2.43840918E-06 8.14024064E-09  3786232.9      3786214.3     2.26775496E-02  18.640048    
 2.45474420E-06 8.19477248E-09  3863702.3      3863683.3     2.33035398E-02  19.068099    
 2.47118864E-06 8.24966963E-09  3940203.2      3940183.7     2.39155979E-02  19.482975    
 2.48774324E-06 8.30493454E-09  4021342.5      4021322.6     2.45821115E-02  19.931256    
 2.50440875E-06 8.36056967E-09  4101866.7      4101846.3     2.52390054E-02  20.392231    
 2.52118589E-06 8.41657750E-09  4183952.6      4183931.7     2.59127117E-02  20.861309    
 2.53807543E-06 8.47296053E-09  4270149.0      4270127.6     2.66354504E-02  21.350369    
 2.55507811E-06 8.52972128E-09  4354696.8      4354674.9     2.73351053E-02  21.819700    
 2.57219470E-06 8.58686227E-09  4443743.2      4443720.9     2.80889870E-02  22.310757    
 2.58942595E-06 8.64438604E-09  4533352.7      4533329.9     2.88476830E-02  22.797571    
 2.60677263E-06 8.70229518E-09  4623421.6      4623398.3     2.96093914E-02  23.292693    
 2.62423551E-06 8.76059224E-09  4719322.3      4719298.4     3.04437356E-02  23.847243    
 2.64181539E-06 8.81927985E-09  4812762.7      4812738.3     3.12435235E-02  24.378492    
 2.65951303E-06 8.87836060E-09  4910481.8      4910456.9     3.20961430E-02  24.930308    
 2.67732922E-06 8.93783714E-09  5010195.4      5010169.9     3.29723108E-02  25.485407    
 2.69526477E-06 8.99771211E-09  5109375.6      5109349.5     3.38381992E-02  26.028603    
 2.71332047E-06 9.05798819E-09  5215350.1      5215323.5     3.47916966E-02  26.605354    
 2.73149713E-06 9.11866806E-09  5318977.0      5318949.8     3.57107528E-02  27.179040    
 2.74979555E-06 9.17975443E-09  5426208.1      5426180.2     3.66749467E-02  27.795597    
 2.76821656E-06 9.24125002E-09  5537158.0      5537129.5     3.76866537E-02  28.429813    
 2.78676096E-06 9.30315757E-09  5646768.3      5646739.3     3.86764670E-02  29.044707    
 2.80542960E-06 9.36547984E-09  5763073.0      5763043.3     3.97550591E-02  29.692655    
 2.82422330E-06 9.42821962E-09  5878395.7      5878365.4     4.08166866E-02  30.323690    
 2.84314290E-06 9.49137968E-09  5996058.5      5996027.5     4.19069458E-02  30.959944    
 2.86218924E-06 9.55496287E-09  6119503.2      6119471.5     4.30750224E-02  31.650257    
 2.88136318E-06 9.61897199E-09  6240639.5      6240607.1     4.42064957E-02  32.345314    
 2.90066556E-06 9.68340992E-09  6368274.9      6368241.8     4.54264785E-02  33.074000    
 2.92009725E-06 9.74827952E-09  6496605.1      6496571.3     4.66526405E-02  33.794551    
 2.93965911E-06 9.81358368E-09  6625707.7      6625673.1     4.78853208E-02  34.509432    
 2.95935202E-06 9.87932532E-09  6763045.7      6763010.4     4.92337808E-02  35.262695    
 2.97917685E-06 9.94550737E-09  6896918.6      6896882.6     5.05271870E-02  35.986580    
 2.99913449E-06 1.00121328E-08  7036981.4      7036944.5     5.19069618E-02  36.771537    
 3.01922583E-06 1.00792045E-08  7179777.0      7179739.4     5.33229847E-02  37.593536    
 3.03945176E-06 1.01467255E-08  7321870.6      7321832.2     5.47232872E-02  38.399267    
 3.05981319E-06 1.02146989E-08  7473760.2      7473720.9     5.62662810E-02  39.254438    
 3.08031101E-06 1.02831276E-08  7622157.0      7622116.9     5.77515824E-02  40.074166    
 3.10094616E-06 1.03520148E-08  7775849.2      7775808.2     5.93119244E-02  40.914155    
 3.12171953E-06 1.04213634E-08  7934730.5      7934688.7     6.09470105E-02  41.776645    
 3.14263207E-06 1.04911766E-08  8091761.9      8091719.2     6.25477215E-02  42.658715    
 3.16368471E-06 1.05614574E-08  8258452.5      8258408.8     6.42931585E-02  43.619286    
 3.18487837E-06 1.06322091E-08  8423592.5      8423547.8     6.60088841E-02  44.555116    
 3.20621402E-06 1.07034348E-08  8592231.5      8592185.9     6.77732458E-02  45.499540    
 3.22769259E-06 1.07751376E-08  8768999.3      8768952.7     6.96610635E-02  46.478109    
 3.24931505E-06 1.08473207E-08  8942537.0      8942489.5     7.14908634E-02  47.423665    
 3.27108236E-06 1.09199874E-08  9125461.5      9125413.0     7.34651173E-02  48.418083    
 3.29299549E-06 1.09931409E-08  9309221.5      9309171.9     7.54467654E-02  49.458178    
 3.31505541E-06 1.10667844E-08  9494251.1      9494200.5     7.74416181E-02  50.517898    
 3.33726312E-06 1.11409213E-08  9690906.4      9690854.7     7.96209811E-02  51.636221    
 3.35961959E-06 1.12155548E-08  9882683.6      9882630.8     8.17126548E-02  52.706741    
 3.38212584E-06 1.12906884E-08  10083413.      10083359.     8.39455062E-02  53.815857    
 3.40478285E-06 1.13663252E-08  10287878.      10287823.     8.62340115E-02  54.929552    
 3.42759164E-06 1.14424687E-08  10491427.      10491371.     8.84985547E-02  56.036558    
 3.45055323E-06 1.15191223E-08  10709097.      10709039.     9.09954915E-02  57.275731    
 3.47366865E-06 1.15962894E-08  10921578.      10921520.     9.33959032E-02  58.491467    
 3.49693891E-06 1.16739735E-08  11141834.      11141774.     9.59209754E-02  59.739130    
 3.52036506E-06 1.17521780E-08  11369323.      11369262.     9.85635373E-02  61.011023    
 3.54394814E-06 1.18309064E-08  11594262.      11594200.     0.10115218      62.250231    
 3.56768921E-06 1.19101621E-08  11833135.      11833071.     0.10397673      63.550892    
 3.59158932E-06 1.19899488E-08  12069580.      12069515.     0.10674955      64.843855    
 3.61564954E-06 1.20702701E-08  12311248.      12311182.     0.10960480      66.217610    
 3.63987094E-06 1.21511293E-08  12564338.      12564270.     0.11265584      67.671026    
 3.66425460E-06 1.22325303E-08  12812911.      12812842.     0.11561495      69.074065    
 3.68880161E-06 1.23144766E-08  13075039.      13074968.     0.11880980      70.538744    
 3.71351306E-06 1.23969718E-08  13338134.      13338062.     0.12201241      71.986818    
 3.73839005E-06 1.24800197E-08  13603281.      13603208.     0.12524068      73.428283    
 3.76343369E-06 1.25636239E-08  13884833.      13884758.     0.12876293      74.973069    
 3.78864510E-06 1.26477882E-08  14159522.      14159445.     0.13214553      76.541047    
 3.81402541E-06 1.27325163E-08  14447153.      14447075.     0.13575888      78.189485    
 3.83957574E-06 1.28178120E-08  14739881.      14739801.     0.13945744      79.843010    
 3.86529723E-06 1.29036791E-08  15031423.      15031341.     0.14311960      81.467188    
 3.89119103E-06 1.29901214E-08  15343314.      15343230.     0.14716024      83.184353    
 3.91725829E-06 1.30771428E-08  15647511.      15647426.     0.15103956      84.836377    
 3.94350018E-06 1.31647472E-08  15963110.      15963023.     0.15512582      86.570286    
 3.96991787E-06 1.32529384E-08  16288786.      16288698.     0.15939661      88.440998    
 3.99651253E-06 1.33417205E-08  16610951.      16610861.     0.16358289      90.279958    
 4.02328535E-06 1.34310972E-08  16953211.      16953118.     0.16815371      92.214585    
 4.05023752E-06 1.35210728E-08  17291701.      17291607.     0.17263491      94.097578    
 4.07737024E-06 1.36116511E-08  17637969.      17637873.     0.17725552      96.001056    
 4.10468473E-06 1.37028361E-08  18000278.      18000180.     0.18218649      97.967183    
 4.13218219E-06 1.37946320E-08  18356277.      18356177.     0.18697190      99.932297    
