 OPTXAGNF AGN Spectrum Model Parameters: BLS, Astar 0.0                          
 M_BH:  5.0000E+06 M_0            L  :  1.0000E-02 L/Ledd 
 D   :  1.5000E+18 cm             z  :   0.000     redshift 
 Rcor:   60.00     Rg             Ro :   4.000     Rg 
 C_T :  0.2000     keV            Tau:   15.00     Optical Depth 
 gam :   1.800     (-slope)       fpl:  0.5000     Fraction 
 E              0.5DeltaE      E.FE total     E.FE Disk      E.FE Compton   E.FE NonThermal
 (keV)          (keV)          E.E/cm2/s/E    E.E/cm2/s/E    E.E/cm2/s/E    E.E/cm2/s/E    
 1.00334952E-06 3.34952256E-09  124174.68      124166.32     3.19339796E-02  8.3297644    
 1.01007101E-06 3.37196116E-09  126634.23      126625.70     3.27729323E-02  8.4967549    
 1.01683752E-06 3.39455008E-09  129197.31      129188.61     3.36624757E-02  8.6687314    
 1.02364936E-06 3.41729032E-09  131831.08      131822.20     3.45862288E-02  8.8429360    
 1.03050683E-06 3.44018290E-09  134441.79      134432.74     3.54945158E-02  9.0152136    
 1.03741024E-06 3.46322884E-09  137221.72      137212.48     3.64894472E-02  9.2060824    
 1.04435990E-06 3.48642917E-09  139959.13      139949.69     3.74585985E-02  9.3966785    
 1.05135611E-06 3.50978492E-09  142771.76      142762.14     3.84644904E-02  9.5902604    
 1.05839920E-06 3.53329712E-09  145702.42      145692.59     3.95310720E-02  9.7892631    
 1.06548946E-06 3.55696684E-09  148587.83      148577.81     4.05693434E-02  9.9826110    
 1.07262722E-06 3.58079512E-09  151638.81      151628.58     4.16947438E-02  10.184271    
 1.07981280E-06 3.60478303E-09  154685.26      154674.83     4.28141573E-02  10.385895    
 1.08704652E-06 3.62893164E-09  157771.59      157760.95     4.39514993E-02  10.598325    
 1.09432869E-06 3.65324201E-09  161032.40      161021.53     4.51828501E-02  10.825799    
 1.10165965E-06 3.67771524E-09  164221.39      164210.30     4.63697068E-02  11.044758    
 1.10903971E-06 3.70235243E-09  167569.70      167558.38     4.76425626E-02  11.271987    
 1.11646922E-06 3.72715465E-09  170959.88      170948.33     4.89353752E-02  11.498799    
 1.12394850E-06 3.75212303E-09  174346.36      174334.58     5.02212114E-02  11.722753    
 1.13147788E-06 3.77725867E-09  177974.27      177962.26     5.16426239E-02  11.962876    
 1.13905770E-06 3.80256270E-09  181498.76      181486.50     5.29993280E-02  12.207180    
 1.14668830E-06 3.82803623E-09  185173.20      185160.68     5.44388186E-02  12.463031    
 1.15437002E-06 3.85368042E-09  188945.65      188932.87     5.59317086E-02  12.722076    
 1.16210319E-06 3.87949640E-09  192686.68      192673.65     5.74005344E-02  12.975587    
 1.16988818E-06 3.90548532E-09  196671.85      196658.55     5.90105355E-02  13.242003    
 1.17772531E-06 3.93164835E-09  200592.65      200579.09     6.05767562E-02  13.500770    
 1.18561494E-06 3.95798663E-09  204624.75      204610.92     6.22045336E-02  13.768378    
 1.19355743E-06 3.98450137E-09  208822.32      208808.20     6.39282603E-02  14.061009    
 1.20155313E-06 4.01119372E-09  212956.89      212942.47     6.56072862E-02  14.348092    
 1.20960239E-06 4.03806489E-09  217330.54      217315.82     6.74284203E-02  14.648374    
 1.21770557E-06 4.06511607E-09  221693.88      221678.87     6.92374870E-02  14.943583    
 1.22586303E-06 4.09234846E-09  226118.24      226102.93     7.10779916E-02  15.239346    
 1.23407514E-06 4.11976329E-09  230788.54      230772.92     7.30680162E-02  15.546846    
 1.24234227E-06 4.14736177E-09  235357.96      235342.04     7.49873212E-02  15.852287    
 1.25066478E-06 4.17514513E-09  240157.73      240141.47     7.70470783E-02  16.187268    
 1.25904304E-06 4.20311462E-09  245013.25      244996.65     7.91363845E-02  16.524356    
 1.26747742E-06 4.23127147E-09  249867.80      249850.86     8.12172002E-02  16.857037    
 1.27596831E-06 4.25961695E-09  255063.76      255046.47     8.35144011E-02  17.208463    
 1.28451608E-06 4.28815232E-09  260113.76      260096.12     8.57083682E-02  17.545435    
 1.29312111E-06 4.31687884E-09  265380.86      265362.88     8.80377869E-02  17.892378    
 1.30178379E-06 4.34579781E-09  270783.71      270765.37     9.04504503E-02  18.255971    
 1.31050450E-06 4.37491051E-09  276143.92      276125.19     9.28257299E-02  18.629703    
 1.31928362E-06 4.40421823E-09  281856.27      281837.15     9.54310205E-02  19.026597    
 1.32812156E-06 4.43372228E-09  287471.50      287451.99     9.79621322E-02  19.410690    
 1.33701871E-06 4.46342399E-09  293251.19      293231.28     0.10059625      19.801356    
 1.34597546E-06 4.49332467E-09  299262.70      299242.39     0.10338199      20.201871    
 1.35499221E-06 4.52342565E-09  305186.53      305165.84     0.10609718      20.592542    
 1.36406936E-06 4.55372829E-09  311455.56      311434.44     0.10904414      21.016197    
 1.37320733E-06 4.58423392E-09  317704.39      317682.83     0.11196772      21.452777    
 1.38240650E-06 4.61494391E-09  324046.20      324024.20     0.11494610      21.892335    
 1.39166731E-06 4.64585962E-09  330734.54      330712.07     0.11816222      22.349976    
 1.40099015E-06 4.67698245E-09  337281.25      337258.34     0.12126597      22.791766    
 1.41037545E-06 4.70831376E-09  344160.86      344137.49     0.12459908      23.249988    
 1.41982361E-06 4.73985497E-09  351114.29      351090.45     0.12797557      23.708718    
 1.42933508E-06 4.77160747E-09  358072.51      358048.20     0.13134284      24.180883    
 1.43891026E-06 4.80357269E-09  365513.41      365488.57     0.13505541      24.702024    
 1.44854958E-06 4.83575204E-09  372748.43      372723.09     0.13860331      25.202300    
 1.45825348E-06 4.86814696E-09  380297.72      380271.86     0.14237281      25.718417    
 1.46802239E-06 4.90075889E-09  388034.73      388008.34     0.14627189      26.239913    
 1.47785673E-06 4.93358930E-09  395713.96      395687.06     0.15011299      26.751391    
 1.48775696E-06 4.96663964E-09  403901.05      403873.60     0.15432882      27.291415    
 1.49772351E-06 4.99991138E-09  411942.03      411914.03     0.15841922      27.841180    
 1.50775683E-06 5.03340601E-09  420225.76      420197.18     0.16268181      28.420336    
 1.51785736E-06 5.06712502E-09  428834.10      428804.92     0.16718383      29.016097    
 1.52802556E-06 5.10106992E-09  437320.58      437290.81     0.17157461      29.595291    
 1.53826187E-06 5.13524222E-09  446305.27      446274.90     0.17634333      30.200605    
 1.54856676E-06 5.16964344E-09  455253.21      455222.23     0.18106801      30.795291    
 1.55894067E-06 5.20427512E-09  464342.30      464310.72     0.18588770      31.396246    
 1.56938409E-06 5.23913879E-09  473919.47      473887.22     0.19108529      32.054152    
 1.57989746E-06 5.27423602E-09  483297.95      483265.04     0.19610439      32.709532    
 1.59048127E-06 5.30956836E-09  493157.45      493123.86     0.20149800      33.391523    
 1.60113597E-06 5.34513740E-09  503114.01      503079.73     0.20695464      34.070312    
 1.61186206E-06 5.38094472E-09  513086.28      513051.32     0.21240367      34.742017    
 1.62265999E-06 5.41699191E-09  523740.61      523704.94     0.21840361      35.448852    
 1.63353026E-06 5.45328058E-09  534104.67      534068.31     0.22414094      36.136286    
 1.64447336E-06 5.48981235E-09  544923.57      544886.46     0.23024073      36.881801    
 1.65548976E-06 5.52658885E-09  556001.72      555963.83     0.23654195      37.657102    
 1.66657996E-06 5.56361172E-09  567001.94      566963.28     0.24275341      38.416415    
 1.67774445E-06 5.60088261E-09  578734.37      578694.90     0.24957531      39.216205    
 1.68898374E-06 5.63840317E-09  590247.47      590207.23     0.25618556      39.990145    
 1.70029832E-06 5.67617509E-09  602118.47      602077.43     0.26308329      40.778347    
 1.71168869E-06 5.71420004E-09  614443.67      614401.80     0.27035894      41.596248    
 1.72315537E-06 5.75247973E-09  626599.74      626557.03     0.27745926      42.438500    
 1.73469887E-06 5.79101585E-09  639474.75      639431.12     0.28517587      43.339862    
 1.74631969E-06 5.82981012E-09  652285.97      652241.45     0.29281117      44.223072    
 1.75801837E-06 5.86886429E-09  665310.73      665265.32     0.30061044      45.110224    
 1.76979541E-06 5.90818007E-09  679022.52      678976.18     0.30901022      46.030935    
 1.78165135E-06 5.94775924E-09  692455.69      692408.45     0.31712659      46.922272    
 1.79358672E-06 5.98760354E-09  706583.73      706535.54     0.32585441      47.860924    
 1.80560203E-06 6.02771477E-09  720838.44      720789.24     0.33467262      48.855677    
 1.81769784E-06 6.06809470E-09  735128.32      735078.12     0.34349035      49.853408    
 1.82987468E-06 6.10874514E-09  750381.70      750330.44     0.35318683      50.905748    
 1.84213310E-06 6.14966790E-09  765226.03      765173.75     0.36246463      51.914928    
 1.85447363E-06 6.19086481E-09  780728.30      780674.97     0.37233520      52.955866    
 1.86689683E-06 6.23233769E-09  796587.99      796533.60     0.38251835      54.005694    
 1.87940326E-06 6.27408840E-09  812343.01      812287.56     0.39256283      55.057846    
 1.89199346E-06 6.31611880E-09  829153.51      829096.87     0.40360169      56.235506    
 1.90466801E-06 6.35843077E-09  845635.62      845577.82     0.41428398      57.384275    
 1.91742747E-06 6.40102618E-09  862644.88      862585.90     0.42544582      58.556232    
 1.93027240E-06 6.44390694E-09  880289.16      880228.97     0.43720376      59.755136    
 1.94320339E-06 6.48707497E-09  897698.89      897637.52     0.44868557      60.923469    
 1.95622099E-06 6.53053217E-09  916145.69      916083.09     0.46117224      62.143500    
 1.96932581E-06 6.57428050E-09  934485.26      934421.41     0.47351111      63.378597    
 1.98251841E-06 6.61832191E-09  953146.97      953081.80     0.48613186      64.684093    
 1.99579939E-06 6.66265834E-09  972775.33      972708.78     0.49970652      66.054144    
 2.00916934E-06 6.70729179E-09  992013.31      991945.42     0.51283134      67.377110    
 2.02262885E-06 6.75222424E-09  1012254.7      1012185.5     0.52695434      68.752125    
 2.03617854E-06 6.79745770E-09  1032659.7      1032589.0     0.54120490      70.118956    
 2.04981899E-06 6.84299417E-09  1053133.1      1053061.1     0.55547375      71.474864    
 2.06355082E-06 6.88883570E-09  1074967.1      1074893.6     0.57114406      72.951983    
 2.07737464E-06 6.93498432E-09  1096225.1      1096150.0     0.58614695      74.441820    
 2.09129106E-06 6.98144209E-09  1118434.5      1118357.9     0.60211918      75.990355    
 2.10530072E-06 7.02821109E-09  1141135.9      1141057.7     0.61857558      77.550970    
 2.11940422E-06 7.07529339E-09  1163697.3      1163617.6     0.63481823      79.082568    
 2.13360221E-06 7.12269110E-09  1187779.5      1187698.2     0.65268056      80.694054    
 2.14789530E-06 7.17040633E-09  1211371.2      1211288.3     0.66994317      82.257992    
 2.16228415E-06 7.21844121E-09  1235738.5      1235653.9     0.68800494      83.913427    
 2.17676939E-06 7.26679787E-09  1260993.1      1260906.7     0.70700635      85.687728    
 2.19135167E-06 7.31547848E-09  1285922.8      1285834.7     0.72557322      87.422019    
 2.20603163E-06 7.36448520E-09  1312348.2      1312258.2     0.74577835      89.238730    
 2.22080994E-06 7.41382021E-09  1338597.2      1338505.4     0.76571809      91.017655    
 2.23568724E-06 7.46348573E-09  1365330.6      1365237.1     0.78614068      92.807839    
 2.25066421E-06 7.51348396E-09  1393423.4      1393327.9     0.80807811      94.669100    
 2.26574151E-06 7.56381713E-09  1420969.6      1420872.2     0.82930174      96.552611    
 2.28091982E-06 7.61448748E-09  1449964.5      1449865.0     0.85215476      98.591068    
 2.29619980E-06 7.66549727E-09  1479168.1      1479066.6     0.87518390      100.62180    
 2.31158215E-06 7.71684879E-09  1508495.8      1508392.3     0.89827351      102.63582    
 2.32706754E-06 7.76854430E-09  1539743.7      1539638.0     0.92359770      104.75231    
 2.34265667E-06 7.82058613E-09  1570180.5      1570072.7     0.94785822      106.78782    
 2.35835023E-06 7.87297659E-09  1601992.8      1601882.9     0.97370361      108.89895    
 2.37414893E-06 7.92571802E-09  1634481.2      1634369.1      1.0002975      111.13376    
 2.39005346E-06 7.97881276E-09  1666783.5      1666669.1      1.0265628      113.40257    
 2.40606454E-06 8.03226319E-09  1701276.6      1701159.7      1.0554660      115.80339    
 2.42218287E-06 8.08607168E-09  1735038.3      1734919.0      1.0833621      118.11781    
 2.43840918E-06 8.14024064E-09  1769940.0      1769818.4      1.1125888      120.48191    
 2.45474420E-06 8.19477248E-09  1806080.0      1805956.0      1.1432956      122.89460    
 2.47118864E-06 8.24966963E-09  1841771.0      1841644.5      1.1733191      125.26903    
 2.48774324E-06 8.30493454E-09  1879618.2      1879489.1      1.2060134      127.88364    
 2.50440875E-06 8.36056967E-09  1917180.6      1917048.8      1.2382358      130.52513    
 2.52118589E-06 8.41657750E-09  1955469.5      1955335.1      1.2712827      133.18560    
 2.53807543E-06 8.47296053E-09  1995668.8      1995531.6      1.3067344      135.94177    
 2.55507811E-06 8.52972128E-09  2035103.5      2034963.6      1.3410539      138.61010    
 2.57219470E-06 8.58686227E-09  2076628.6      2076485.8      1.3780328      141.38200    
 2.58942595E-06 8.64438604E-09  2118416.2      2118270.6      1.4152478      144.16694    
 2.60677263E-06 8.70229518E-09  2160418.6      2160270.1      1.4526105      147.08072    
 2.62423551E-06 8.76059224E-09  2205130.0      2204978.2      1.4935354      150.23133    
 2.64181539E-06 8.81927985E-09  2248700.3      2248545.5      1.5327655      153.25275    
 2.65951303E-06 8.87836060E-09  2294258.2      2294100.2      1.5745866      156.37545    
 2.67732922E-06 8.93783714E-09  2340743.1      2340582.0      1.6175624      159.51686    
 2.69526477E-06 8.99771211E-09  2386981.9      2386817.7      1.6600341      162.60598    
 2.71332047E-06 9.05798819E-09  2436375.4      2436207.8      1.7068022      165.89654    
 2.73149713E-06 9.11866806E-09  2484680.9      2484509.9      1.7518812      169.27633    
 2.74979555E-06 9.17975443E-09  2534660.5      2534485.9      1.7991737      172.79155    
 2.76821656E-06 9.24125002E-09  2586366.9      2586188.7      1.8487961      176.37949    
 2.78676096E-06 9.30315757E-09  2637453.5      2637271.7      1.8973449      179.87733    
 2.80542960E-06 9.36547984E-09  2691647.0      2691461.6      1.9502472      183.53849    
 2.82422330E-06 9.42821962E-09  2745386.6      2745197.5      2.0023176      187.12150    
 2.84314290E-06 9.49137968E-09  2800213.5      2800020.6      2.0557919      190.79130    
 2.86218924E-06 9.55496287E-09  2857723.6      2857526.6      2.1130822      194.83518    
 2.88136318E-06 9.61897199E-09  2914165.0      2913964.0      2.1685775      198.79547    
 2.90066556E-06 9.68340992E-09  2973621.8      2973416.7      2.2284130      202.92115    
 2.92009725E-06 9.74827952E-09  3033402.5      3033193.2      2.2885514      207.00992    
 2.93965911E-06 9.81358368E-09  3093543.3      3093329.9      2.3490093      211.07474    
 2.95935202E-06 9.87932532E-09  3157503.4      3157285.7      2.4151446      215.33158    
 2.97917685E-06 9.94550737E-09  3219859.5      3219637.5      2.4785802      219.54032    
 2.99913449E-06 1.00121328E-08  3285086.8      3284860.1      2.5462509      224.12821    
 3.01922583E-06 1.00792045E-08  3351582.6      3351351.1      2.6156988      228.79726    
 3.03945176E-06 1.01467255E-08  3417755.3      3417519.2      2.6843759      233.38242    
 3.05981319E-06 1.02146989E-08  3488468.9      3488227.9      2.7600496      238.21921    
 3.08031101E-06 1.02831276E-08  3557566.5      3557320.8      2.8328943      242.88201    
 3.10094616E-06 1.03520148E-08  3629119.7      3628869.1      2.9094185      247.65020    
 3.12171953E-06 1.04213634E-08  3703078.7      3702823.1      2.9896075      252.67078    
 3.14263207E-06 1.04911766E-08  3776183.8      3775923.0      3.0681109      257.81682    
 3.16368471E-06 1.05614574E-08  3853764.6      3853498.2      3.1537104      263.26885    
 3.18487837E-06 1.06322091E-08  3930629.8      3930358.0      3.2378530      268.58873    
 3.20621402E-06 1.07034348E-08  4009118.0      4008840.7      3.3243802      273.95647    
 3.22769259E-06 1.07751376E-08  4091371.9      4091088.9      3.4169604      279.50123    
 3.24931505E-06 1.08473207E-08  4172133.4      4171845.0      3.5066959      284.89076    
 3.27108236E-06 1.09199874E-08  4257242.9      4256948.6      3.6035139      290.69194    
 3.29299549E-06 1.09931409E-08  4342741.9      4342441.5      3.7006942      296.73028    
 3.31505541E-06 1.10667844E-08  4428831.9      4428525.4      3.7985219      302.76819    
 3.33726312E-06 1.11409213E-08  4520304.1      4519991.0      3.9053957      309.10432    
 3.35961959E-06 1.12155548E-08  4609522.4      4609203.2      4.0079702      315.19776    
 3.38212584E-06 1.12906884E-08  4702885.6      4702559.9      4.1174662      321.49399    
 3.40478285E-06 1.13663252E-08  4797980.2      4797648.1      4.2296905      327.84108    
 3.42759164E-06 1.14424687E-08  4892654.9      4892316.2      4.3407400      334.32506    
 3.45055323E-06 1.15191223E-08  4993863.1      4993517.1      4.4631828      341.49596    
 3.47366865E-06 1.15962894E-08  5092676.0      5092323.0      4.5808932      348.41503    
 3.49693891E-06 1.16739735E-08  5195087.2      5194727.0      4.7047150      355.50498    
 3.52036506E-06 1.17521780E-08  5300846.3      5300478.7      4.8342966      362.72483    
 3.54394814E-06 1.18309064E-08  5405430.6      5405055.8      4.9612344      369.77890    
 3.56768921E-06 1.19101621E-08  5516458.7      5516076.5      5.0997376      377.19150    
 3.59158932E-06 1.19899488E-08  5626369.8      5625979.8      5.2357046      384.77875    
 3.61564954E-06 1.20702701E-08  5738698.8      5738300.7      5.3757123      392.72980    
 3.63987094E-06 1.21511293E-08  5856309.0      5855902.5      5.5253179      400.97857    
 3.66425460E-06 1.22325303E-08  5971837.6      5971423.0      5.6704169      408.96597    
 3.68880161E-06 1.23144766E-08  6093631.7      6093208.6      5.8270722      417.28183    
 3.71351306E-06 1.23969718E-08  6215877.0      6215445.5      5.9841074      425.51434    
 3.73839005E-06 1.24800197E-08  6339075.7      6338635.8      6.1424004      433.75730    
 3.76343369E-06 1.25636239E-08  6469854.1      6469405.0      6.3151040      442.83520    
 3.78864510E-06 1.26477882E-08  6597469.1      6597010.7      6.4809623      451.87492    
 3.81402541E-06 1.27325163E-08  6731064.6      6730596.7      6.6581313      461.24178    
 3.83957574E-06 1.28178120E-08  6867017.5      6866540.0      6.8394767      470.63945    
 3.86529723E-06 1.29036791E-08  7002429.6      7001942.7      7.0190382      479.88604    
 3.89119103E-06 1.29901214E-08  7147236.7      7146739.9      7.2171512      489.62926    
 3.91725829E-06 1.30771428E-08  7288500.0      7287993.4      7.4073565      499.10750    
 3.94350018E-06 1.31647472E-08  7435030.7      7434513.8      7.6077054      509.32169    
 3.96991787E-06 1.32529384E-08  7586215.6      7585687.7      7.8170990      520.05661    
 3.99651253E-06 1.33417205E-08  7735788.0      7735249.5      8.0223499      530.52651    
 4.02328535E-06 1.34310972E-08  7894633.3      7894083.6      8.2464489      541.51230    
 4.05023752E-06 1.35210728E-08  8051747.3      8051186.6      8.4661550      552.22633    
 4.07737024E-06 1.36116511E-08  8212454.9      8211883.1      8.6926937      563.05459    
 4.10468473E-06 1.37028361E-08  8380563.1      8379979.9      8.9344446      574.33468    
 4.13218219E-06 1.37946320E-08  8545771.9      8545176.8      9.1690598      585.93716    
