 OPTXAGNF AGN Spectrum Model Parameters: BLS, Astar 0.0                          
 M_BH:  5.0000E+06 M_0            L  :   1.000     L/Ledd 
 D   :  1.5000E+18 cm             z  :   0.000     redshift 
 Rcor:   60.00     Rg             Ro :   4.000     Rg 
 C_T :  0.2000     keV            Tau:   15.00     Optical Depth 
 gam :   1.800     (-slope)       fpl:  0.5000     Fraction 
 E              0.5DeltaE      E.FE total     E.FE Disk      E.FE Compton   E.FE NonThermal
 (keV)          (keV)          E.E/cm2/s/E    E.E/cm2/s/E    E.E/cm2/s/E    E.E/cm2/s/E    
 1.00334952E-06 3.34952256E-09  391281.19      391255.17     9.61756075E-04  26.019593    
 1.01007101E-06 3.37196116E-09  399038.80      399012.76     9.87024506E-04  26.039940    
 1.01683752E-06 3.39455008E-09  407123.50      407097.46     1.01381680E-03  26.037747    
 1.02364936E-06 3.41729032E-09  415431.57      415405.54     1.04163954E-03  26.028367    
 1.03050683E-06 3.44018290E-09  423666.62      423640.57     1.06899643E-03  26.048614    
 1.03741024E-06 3.46322884E-09  432436.46      432410.44     1.09896319E-03  26.024061    
 1.04435990E-06 3.48642917E-09  441071.78      441045.75     1.12815344E-03  26.037099    
 1.05135611E-06 3.50978492E-09  449944.80      449918.76     1.15845037E-03  26.042216    
 1.05839920E-06 3.53329712E-09  459190.83      459164.80     1.19057540E-03  26.025507    
 1.06548946E-06 3.55696684E-09  468293.69      468267.65     1.22184769E-03  26.045787    
 1.07262722E-06 3.58079512E-09  477919.93      477893.91     1.25574447E-03  26.028529    
 1.07981280E-06 3.60478303E-09  487531.72      487505.69     1.28946095E-03  26.034253    
 1.08704652E-06 3.62893164E-09  497269.46      497243.42     1.32371747E-03  26.046686    
 1.09432869E-06 3.65324201E-09  507558.78      507532.76     1.36080576E-03  26.022643    
 1.10165965E-06 3.67771524E-09  517620.89      517594.84     1.39655381E-03  26.042955    
 1.10903971E-06 3.70235243E-09  528186.68      528160.65     1.43489236E-03  26.032997    
 1.11646922E-06 3.72715465E-09  538884.75      538858.71     1.47383207E-03  26.031402    
 1.12394850E-06 3.75212303E-09  549570.97      549544.92     1.51256166E-03  26.051156    
 1.13147788E-06 3.77725867E-09  561020.69      560994.67     1.55537517E-03  26.019773    
 1.13905770E-06 3.80256270E-09  572143.08      572117.04     1.59623952E-03  26.040119    
 1.14668830E-06 3.82803623E-09  583739.60      583713.56     1.63959764E-03  26.037466    
 1.15437002E-06 3.85368042E-09  595646.04      595620.01     1.68456433E-03  26.028547    
 1.16210319E-06 3.87949640E-09  607452.91      607426.86     1.72880616E-03  26.048792    
 1.16988818E-06 3.90548532E-09  620031.98      620005.95     1.77730063E-03  26.023780    
 1.17772531E-06 3.93164835E-09  632407.25      632381.21     1.82447633E-03  26.037278    
 1.18561494E-06 3.95798663E-09  645134.44      645108.40     1.87350634E-03  26.041935    
 1.19355743E-06 3.98450137E-09  658385.01      658358.98     1.92542668E-03  26.025687    
 1.20155313E-06 4.01119372E-09  671435.98      671409.93     1.97600051E-03  26.045965    
 1.20960239E-06 4.03806489E-09  685243.36      685217.33     2.03085516E-03  26.028248    
 1.21770557E-06 4.06511607E-09  699017.92      698991.88     2.08534634E-03  26.034432    
 1.22586303E-06 4.09234846E-09  712985.37      712959.32     2.14078456E-03  26.046405    
 1.23407514E-06 4.11976329E-09  727731.00      727704.97     2.20072692E-03  26.022823    
 1.24234227E-06 4.14736177E-09  742157.12      742131.07     2.25853897E-03  26.043133    
 1.25066478E-06 4.17514513E-09  757312.05      757286.02     2.32058203E-03  26.032716    
 1.25904304E-06 4.20311462E-09  772643.25      772617.22     2.38351526E-03  26.031582    
 1.26747742E-06 4.23127147E-09  787971.09      787945.03     2.44619276E-03  26.050875    
 1.27596831E-06 4.25961695E-09  804379.57      804353.55     2.51538874E-03  26.019954    
 1.28451608E-06 4.28815232E-09  820325.70      820299.65     2.58147492E-03  26.040297    
 1.29312111E-06 4.31687884E-09  836958.93      836932.89     2.65164153E-03  26.037185    
 1.30178379E-06 4.34579781E-09  854021.71      853995.68     2.72431591E-03  26.028727    
 1.31050450E-06 4.37491051E-09  870949.08      870923.02     2.79586414E-03  26.048970    
 1.31928362E-06 4.40421823E-09  888991.32      888965.29     2.87434146E-03  26.023499    
 1.32812156E-06 4.43372228E-09  906725.72      906699.68     2.95058420E-03  26.037456    
 1.33701871E-06 4.46342399E-09  924980.62      924954.57     3.02993013E-03  26.041654    
 1.34597546E-06 4.49332467E-09  943969.49      943943.46     3.11384348E-03  26.025867    
 1.35499221E-06 4.52342565E-09  962680.32      962654.27     3.19563187E-03  26.046143    
 1.36406936E-06 4.55372829E-09  982484.20      982458.17     3.28440221E-03  26.027967    
 1.37320733E-06 4.58423392E-09  1002223.7      1002197.7     3.37246848E-03  26.034611    
 1.38240650E-06 4.61494391E-09  1022257.4      1022231.4     3.46218547E-03  26.046124    
 1.39166731E-06 4.64585962E-09  1043388.6      1043362.6     3.55906464E-03  26.023003    
 1.40099015E-06 4.67698245E-09  1064070.8      1064044.7     3.65255871E-03  26.043312    
 1.41037545E-06 4.70831376E-09  1085807.3      1085781.3     3.75296250E-03  26.032435    
 1.41982361E-06 4.73985497E-09  1107777.4      1107751.4     3.85467322E-03  26.031761    
 1.42933508E-06 4.77160747E-09  1129762.2      1129736.1     3.95610634E-03  26.050594    
 1.43891026E-06 4.80357269E-09  1153276.2      1153250.1     4.06794202E-03  26.020134    
 1.44854958E-06 4.83575204E-09  1176137.2      1176111.2     4.17481705E-03  26.040476    
 1.45825348E-06 4.86814696E-09  1199993.9      1199967.9     4.28836780E-03  26.036904    
 1.46802239E-06 4.90075889E-09  1224445.2      1224419.2     4.40582271E-03  26.028906    
 1.47785673E-06 4.93358930E-09  1248712.8      1248686.8     4.52153098E-03  26.049147    
 1.48775696E-06 4.96663964E-09  1274590.0      1274563.9     4.64852858E-03  26.023218    
 1.49772351E-06 4.99991138E-09  1300003.4      1299977.3     4.77174767E-03  26.037635    
 1.50775683E-06 5.03340601E-09  1326185.8      1326159.7     4.90015411E-03  26.041373    
 1.51785736E-06 5.06712502E-09  1353396.9      1353370.9     5.03577419E-03  26.026047    
 1.52802556E-06 5.10106992E-09  1380221.1      1380195.1     5.16804288E-03  26.046321    
 1.53826187E-06 5.13524222E-09  1408624.7      1408598.7     5.31169819E-03  26.027686    
 1.54856676E-06 5.16964344E-09  1436911.2      1436885.1     5.45402686E-03  26.034790    
 1.55894067E-06 5.20427512E-09  1465644.6      1465618.6     5.59921781E-03  26.045843    
 1.56938409E-06 5.23913879E-09  1495925.5      1495899.5     5.75579421E-03  26.023183    
 1.57989746E-06 5.27423602E-09  1525575.5      1525549.5     5.90699337E-03  26.043490    
 1.59048127E-06 5.30956836E-09  1556750.7      1556724.7     6.06947582E-03  26.032154    
 1.60113597E-06 5.34513740E-09  1588233.2      1588207.2     6.23385725E-03  26.031940    
 1.61186206E-06 5.38094472E-09  1619764.8      1619738.8     6.39800970E-03  26.050313    
 1.62265999E-06 5.41699191E-09  1653459.9      1653433.8     6.57876008E-03  26.020315    
 1.63353026E-06 5.45328058E-09  1686233.2      1686207.1     6.75159894E-03  26.040654    
 1.64447336E-06 5.48981235E-09  1720448.9      1720422.9     6.93535808E-03  26.036623    
 1.65548976E-06 5.52658885E-09  1755486.6      1755460.5     7.12518610E-03  26.029086    
 1.66657996E-06 5.56361172E-09  1790276.1      1790250.1     7.31231009E-03  26.049325    
 1.67774445E-06 5.60088261E-09  1827388.9      1827362.8     7.51782639E-03  26.022937    
 1.68898374E-06 5.63840317E-09  1863804.7      1863778.6     7.71696563E-03  26.037814    
 1.70029832E-06 5.67617509E-09  1901355.7      1901329.6     7.92476696E-03  26.041092    
 1.71168869E-06 5.71420004E-09  1940347.8      1940321.7     8.14395469E-03  26.026227    
 1.72315537E-06 5.75247973E-09  1978801.8      1978775.8     8.35786020E-03  26.046499    
 1.73469887E-06 5.79101585E-09  2019537.6      2019511.6     8.59033447E-03  26.027405    
 1.74631969E-06 5.82981012E-09  2060069.9      2060043.9     8.82035920E-03  26.034969    
 1.75801837E-06 5.86886429E-09  2101279.4      2101253.3     9.05532450E-03  26.045562    
 1.76979541E-06 5.90818007E-09  2144669.7      2144643.7     9.30838336E-03  26.023364    
 1.78165135E-06 5.94775924E-09  2187174.1      2187148.1     9.55290326E-03  26.043668    
 1.79358672E-06 5.98760354E-09  2231884.5      2231858.5     9.81584658E-03  26.031873    
 1.80560203E-06 6.02771477E-09  2276996.1      2276970.1     1.00815139E-02  26.032120    
 1.81769784E-06 6.06809470E-09  2322218.2      2322192.1     1.03471666E-02  26.050032    
 1.82987468E-06 6.10874514E-09  2370500.2      2370474.2     1.06392974E-02  26.020495    
 1.84213310E-06 6.14966790E-09  2417481.4      2417455.4     1.09188131E-02  26.040833    
 1.85447363E-06 6.19086481E-09  2466552.0      2466525.9     1.12161899E-02  26.036342    
 1.86689683E-06 6.23233769E-09  2516757.2      2516731.1     1.15229853E-02  26.029266    
 1.87940326E-06 6.27408840E-09  2566628.3      2566602.3     1.18256028E-02  26.049502    
 1.89199346E-06 6.31611880E-09  2619852.5      2619826.5     1.21581829E-02  26.022656    
 1.90466801E-06 6.35843077E-09  2672031.7      2672005.7     1.24800192E-02  26.037993    
 1.91742747E-06 6.40102618E-09  2725885.0      2725859.0     1.28163055E-02  26.040811    
 1.93027240E-06 6.44390694E-09  2781755.8      2781729.7     1.31705538E-02  26.026407    
 1.94320339E-06 6.48707497E-09  2836879.3      2836853.2     1.35164823E-02  26.046677    
 1.95622099E-06 6.53053217E-09  2895298.8      2895272.7     1.38926898E-02  26.027124    
 1.96932581E-06 6.57428050E-09  2953375.7      2953349.6     1.42644440E-02  26.035148    
 1.98251841E-06 6.61832191E-09  3012475.1      3012449.0     1.46446923E-02  26.045281    
 1.99579939E-06 6.66265834E-09  3074647.2      3074621.2     1.50536854E-02  26.023544    
 2.00916934E-06 6.70729179E-09  3135576.0      3135550.0     1.54491235E-02  26.043846    
 2.02262885E-06 6.75222424E-09  3199694.8      3199668.8     1.58746407E-02  26.031592    
 2.03617854E-06 6.79745770E-09  3264332.3      3264306.2     1.63040018E-02  26.032299    
 2.04981899E-06 6.84299417E-09  3329185.7      3329159.6     1.67339147E-02  26.049751    
 2.06355082E-06 6.88883570E-09  3398365.9      3398339.9     1.72060591E-02  26.020676    
 2.07737464E-06 6.93498432E-09  3465711.1      3465685.0     1.76580922E-02  26.041011    
 2.09129106E-06 6.98144209E-09  3536082.0      3536055.9     1.81393355E-02  26.036061    
 2.10530072E-06 7.02821109E-09  3608016.8      3607990.8     1.86351697E-02  26.029445    
 2.11940422E-06 7.07529339E-09  3679503.9      3679477.8     1.91245630E-02  26.049680    
 2.13360221E-06 7.12269110E-09  3755829.7      3755803.7     1.96627655E-02  26.022375    
 2.14789530E-06 7.17040633E-09  3830591.8      3830565.7     2.01828959E-02  26.038171    
 2.16228415E-06 7.21844121E-09  3907820.7      3907794.6     2.07271094E-02  26.040530    
 2.17676939E-06 7.26679787E-09  3987872.1      3987846.0     2.12996397E-02  26.026587    
 2.19135167E-06 7.31547848E-09  4066886.8      4066860.8     2.18590755E-02  26.046854    
 2.20603163E-06 7.36448520E-09  4150661.9      4150635.9     2.24678818E-02  26.026843    
 2.22080994E-06 7.41382021E-09  4233873.1      4233847.0     2.30686909E-02  26.035327    
 2.23568724E-06 7.46348573E-09  4318624.2      4318598.1     2.36840519E-02  26.045000    
 2.25066421E-06 7.51348396E-09  4407702.8      4407676.8     2.43450645E-02  26.023724    
 2.26574151E-06 7.56381713E-09  4495037.5      4495011.4     2.49845669E-02  26.044024    
 2.28091982E-06 7.61448748E-09  4586984.5      4586958.5     2.56731738E-02  26.031311    
 2.29619980E-06 7.66549727E-09  4679594.0      4679568.0     2.63670891E-02  26.032478    
 2.31158215E-06 7.71684879E-09  4772595.5      4772569.4     2.70628273E-02  26.049470    
 2.32706754E-06 7.76854430E-09  4871713.7      4871687.7     2.78259096E-02  26.020856    
 2.34265667E-06 7.82058613E-09  4968243.9      4968217.8     2.85569372E-02  26.041189    
 2.35835023E-06 7.87297659E-09  5069155.2      5069129.1     2.93357290E-02  26.035780    
 2.37414893E-06 7.92571802E-09  5172218.4      5172192.4     3.01370811E-02  26.029625    
 2.39005346E-06 7.97881276E-09  5274684.4      5274658.3     3.09285273E-02  26.052013    
 2.40606454E-06 8.03226319E-09  5384132.6      5384106.3     3.17994793E-02  26.274113    
 2.42218287E-06 8.08607168E-09  5491245.5      5491218.6     3.26400781E-02  26.934407    
 2.43840918E-06 8.14024064E-09  5601990.4      5601962.7     3.35207792E-02  27.687037    
 2.45474420E-06 8.19477248E-09  5716681.5      5716653.0     3.44460916E-02  28.461482    
 2.47118864E-06 8.24966963E-09  5829936.0      5829906.7     3.53508100E-02  29.204126    
 2.48774324E-06 8.30493454E-09  5950064.9      5950034.9     3.63360229E-02  29.996108    
 2.50440875E-06 8.36056967E-09  6069281.1      6069250.3     3.73070162E-02  30.763154    
 2.52118589E-06 8.41657750E-09  6190811.0      6190779.4     3.83028613E-02  31.560245    
 2.53807543E-06 8.47296053E-09  6318433.4      6318401.0     3.93711844E-02  32.442930    
 2.55507811E-06 8.52972128E-09  6443610.9      6443577.6     4.04053859E-02  33.286606    
 2.57219470E-06 8.58686227E-09  6575456.1      6575421.9     4.15197438E-02  34.177477    
 2.58942595E-06 8.64438604E-09  6708135.1      6708100.0     4.26412182E-02  35.055839    
 2.60677263E-06 8.70229518E-09  6841493.8      6841457.8     4.37671455E-02  35.922892    
 2.62423551E-06 8.76059224E-09  6983497.2      6983460.3     4.50004409E-02  36.850840    
 2.64181539E-06 8.81927985E-09  7121852.1      7121814.3     4.61826561E-02  37.762921    
 2.65951303E-06 8.87836060E-09  7266549.2      7266510.4     4.74429657E-02  38.759544    
 2.67732922E-06 8.93783714E-09  7414202.3      7414162.5     4.87380837E-02  39.767282    
 2.69526477E-06 8.99771211E-09  7561063.1      7561022.3     5.00180072E-02  40.747031    
 2.71332047E-06 9.05798819E-09  7717996.9      7717955.1     5.14274319E-02  41.798192    
 2.73149713E-06 9.11866806E-09  7871448.3      7871405.5     5.27859465E-02  42.796382    
 2.74979555E-06 9.17975443E-09  8030242.4      8030198.5     5.42111828E-02  43.824691    
 2.76821656E-06 9.24125002E-09  8194549.7      8194504.7     5.57066516E-02  44.929431    
 2.78676096E-06 9.30315757E-09  8356869.1      8356823.0     5.71697578E-02  46.039309    
 2.80542960E-06 9.36547984E-09  8529114.2      8529066.9     5.87640947E-02  47.222236    
 2.82422330E-06 9.42821962E-09  8699901.6      8699853.1     6.03333550E-02  48.366578    
 2.84314290E-06 9.49137968E-09  8874157.4      8874107.9     6.19449382E-02  49.520451    
 2.86218924E-06 9.55496287E-09  9056986.7      9056935.9     6.36715491E-02  50.724195    
 2.88136318E-06 9.61897199E-09  9236390.6      9236338.6     6.53440540E-02  51.881758    
 2.90066556E-06 9.68340992E-09  9425431.7      9425378.4     6.71473919E-02  53.160176    
 2.92009725E-06 9.74827952E-09  9615501.8      9615447.2     6.89598636E-02  54.471841    
 2.93965911E-06 9.81358368E-09  9806715.4      9806659.5     7.07819707E-02  55.769381    
 2.95935202E-06 9.87932532E-09  10010143.      10010085.     7.27752210E-02  57.148712    
 2.97917685E-06 9.94550737E-09  10208428.      10208369.     7.46870921E-02  58.457266    
 2.99913449E-06 1.00121328E-08  10415893.      10415833.     7.67266314E-02  59.818914    
 3.01922583E-06 1.00792045E-08  10627410.      10627348.     7.88197522E-02  61.197108    
 3.03945176E-06 1.01467255E-08  10837883.      10837820.     8.08896354E-02  62.616745    
 3.05981319E-06 1.02146989E-08  11062886.      11062822.     8.31704424E-02  64.184314    
 3.08031101E-06 1.02831276E-08  11282706.      11282640.     8.53659696E-02  65.675024    
 3.10094616E-06 1.03520148E-08  11510379.      11510311.     8.76724206E-02  67.207328    
 3.12171953E-06 1.04213634E-08  11745748.      11745679.     9.00893572E-02  68.774117    
 3.14263207E-06 1.04911766E-08  11978371.      11978300.     9.24554811E-02  70.292161    
 3.16368471E-06 1.05614574E-08  12225322.      12225250.     9.50355368E-02  71.911787    
 3.18487837E-06 1.06322091E-08  12469970.      12469896.     9.75716737E-02  73.580425    
 3.20621402E-06 1.07034348E-08  12719807.      12719731.     0.10017970      75.302261    
 3.22769259E-06 1.07751376E-08  12981703.      12981626.     0.10297022      77.096577    
 3.24931505E-06 1.08473207E-08  13238803.      13238725.     0.10567499      78.818453    
 3.27108236E-06 1.09199874E-08  13509830.      13509750.     0.10859328      80.623556    
 3.29299549E-06 1.09931409E-08  13782094.      13782011.     0.11152250      82.405913    
 3.31505541E-06 1.10667844E-08  14056239.      14056154.     0.11447124      84.198857    
 3.33726312E-06 1.11409213E-08  14347634.      14347548.     0.11769272      86.210793    
 3.35961959E-06 1.12155548E-08  14631786.      14631698.     0.12078457      88.163116    
 3.38212584E-06 1.12906884E-08  14929221.      14929131.     0.12408512      90.195041    
 3.40478285E-06 1.13663252E-08  15232199.      15232107.     0.12746794      92.234704    
 3.42759164E-06 1.14424687E-08  15533813.      15533719.     0.13081533      94.231304    
 3.45055323E-06 1.15191223E-08  15856382.      15856285.     0.13450624      96.353261    
 3.47366865E-06 1.15962894E-08  16171247.      16171148.     0.13805448      98.427989    
 3.49693891E-06 1.16739735E-08  16497647.      16497546.     0.14178698      100.67276    
 3.52036506E-06 1.17521780E-08  16834783.      16834680.     0.14569316      103.00738    
 3.54394814E-06 1.18309064E-08  17168129.      17168023.     0.14951963      105.27119    
 3.56768921E-06 1.19101621E-08  17522155.      17522047.     0.15369483      107.66181    
 3.59158932E-06 1.19899488E-08  17872575.      17872465.     0.15779356      109.98337    
 3.61564954E-06 1.20702701E-08  18230743.      18230631.     0.16201413      112.32865    
 3.63987094E-06 1.21511293E-08  18605866.      18605751.     0.16652411      114.82519    
 3.66425460E-06 1.22325303E-08  18974278.      18974161.     0.17089822      117.36052    
 3.68880161E-06 1.23144766E-08  19362811.      19362691.     0.17562079      120.05242    
 3.71351306E-06 1.23969718E-08  19752776.      19752653.     0.18035483      122.70757    
 3.73839005E-06 1.24800197E-08  20145784.      20145658.     0.18512680      125.34624    
 3.76343369E-06 1.25636239E-08  20563147.      20563019.     0.19033332      128.12438    
 3.78864510E-06 1.26477882E-08  20970312.      20970181.     0.19533344      130.78833    
 3.81402541E-06 1.27325163E-08  21396694.      21396560.     0.20067463      133.63059    
 3.83957574E-06 1.28178120E-08  21830639.      21830502.     0.20614178      136.64227    
 3.86529723E-06 1.29036791E-08  22262818.      22262678.     0.21155513      139.61661    
 3.89119103E-06 1.29901214E-08  22725213.      22725070.     0.21752794      142.78072    
 3.91725829E-06 1.30771428E-08  23176176.      23176030.     0.22326229      145.80389    
 3.94350018E-06 1.31647472E-08  23644069.      23643920.     0.22930255      148.90932    
 3.96991787E-06 1.32529384E-08  24126924.      24126772.     0.23561558      152.07927    
 3.99651253E-06 1.33417205E-08  24604557.      24604402.     0.24180368      155.26969    
 4.02328535E-06 1.34310972E-08  25112034.      25111875.     0.24856021      158.81055    
 4.05023752E-06 1.35210728E-08  25613906.      25613743.     0.25518427      162.26627    
 4.07737024E-06 1.36116511E-08  26127326.      26127160.     0.26201440      165.76102    
 4.10468473E-06 1.37028361E-08  26664570.      26664400.     0.26930332      169.37769    
 4.13218219E-06 1.37946320E-08  27192433.      27192260.     0.27637705      172.87205    
