 OPTXAGNF AGN Spectrum Model Parameters: BLS, Astar 0.0                          
 M_BH:  5.0000E+06 M_0            L  :  0.1000     L/Ledd 
 D   :  1.5000E+18 cm             z  :   0.000     redshift 
 Rcor:   60.00     Rg             Ro :   4.000     Rg 
 C_T :  0.2000     keV            Tau:   15.00     Optical Depth 
 gam :   1.800     (-slope)       fpl:  0.5000     Fraction 
 E              0.5DeltaE      E.FE total     E.FE Disk      E.FE Compton   E.FE NonThermal
 (keV)          (keV)          E.E/cm2/s/E    E.E/cm2/s/E    E.E/cm2/s/E    E.E/cm2/s/E    
 1.00334952E-06 3.34952256E-09  220915.91      220912.07     5.23670459E-03  3.8303067    
 1.01007101E-06 3.37196116E-09  225294.51      225290.59     5.37428732E-03  3.9189350    
 1.01683752E-06 3.39455008E-09  229857.63      229853.61     5.52016707E-03  4.0109878    
 1.02364936E-06 3.41729032E-09  234546.74      234542.63     5.67165734E-03  4.1088443    
 1.03050683E-06 3.44018290E-09  239194.70      239190.49     5.82061118E-03  4.2078012    
 1.03741024E-06 3.46322884E-09  244144.30      244139.98     5.98377502E-03  4.3136056    
 1.04435990E-06 3.48642917E-09  249018.04      249013.62     6.14271091E-03  4.4151497    
 1.05135611E-06 3.50978492E-09  254025.86      254021.34     6.30767242E-03  4.5184737    
 1.05839920E-06 3.53329712E-09  259244.07      259239.44     6.48258736E-03  4.6252025    
 1.06548946E-06 3.55696684E-09  264381.55      264376.82     6.65285938E-03  4.7283847    
 1.07262722E-06 3.58079512E-09  269814.23      269809.38     6.83742101E-03  4.8426238    
 1.07981280E-06 3.60478303E-09  275238.78      275233.81     7.02100085E-03  4.9589564    
 1.08704652E-06 3.62893164E-09  280734.38      280729.29     7.20752111E-03  5.0751632    
 1.09432869E-06 3.65324201E-09  286541.05      286535.85     7.40945944E-03  5.1974165    
 1.10165965E-06 3.67771524E-09  292219.61      292214.29     7.60410053E-03  5.3140996    
 1.10903971E-06 3.70235243E-09  298182.23      298176.79     7.81284611E-03  5.4358995    
 1.11646922E-06 3.72715465E-09  304219.47      304213.90     8.02486483E-03  5.5581094    
 1.12394850E-06 3.75212303E-09  310250.05      310244.36     8.23573943E-03  5.6845581    
 1.13147788E-06 3.77725867E-09  316711.19      316705.36     8.46884966E-03  5.8245266    
 1.13905770E-06 3.80256270E-09  322987.78      322981.82     8.69134731E-03  5.9568762    
 1.14668830E-06 3.82803623E-09  329531.74      329525.64     8.92742269E-03  6.0939693    
 1.15437002E-06 3.85368042E-09  336250.48      336244.24     9.17225616E-03  6.2329126    
 1.16210319E-06 3.87949640E-09  342913.11      342906.73     9.41314297E-03  6.3682415    
 1.16988818E-06 3.90548532E-09  350011.15      350004.63     9.67718395E-03  6.5129257    
 1.17772531E-06 3.93164835E-09  356994.33      356987.66     9.93404465E-03  6.6608266    
 1.18561494E-06 3.95798663E-09  364175.96      364169.14     1.02010013E-02  6.8148933    
 1.19355743E-06 3.98450137E-09  371652.71      371645.72     1.04836949E-02  6.9739596    
 1.20155313E-06 4.01119372E-09  379016.95      379009.81     1.07590571E-02  7.1274279    
 1.20960239E-06 4.03806489E-09  386807.68      386800.38     1.10577268E-02  7.2887965    
 1.21770557E-06 4.06511607E-09  394579.94      394572.48     1.13544174E-02  7.4469266    
 1.22586303E-06 4.09234846E-09  402460.98      402453.36     1.16562643E-02  7.6072505    
 1.23407514E-06 4.11976329E-09  410780.77      410772.97     1.19826346E-02  7.7854490    
 1.24234227E-06 4.14736177E-09  418920.48      418912.51     1.22974060E-02  7.9594016    
 1.25066478E-06 4.17514513E-09  427471.08      427462.93     1.26352136E-02  8.1410875    
 1.25904304E-06 4.20311462E-09  436121.09      436112.75     1.29778679E-02  8.3219789    
 1.26747742E-06 4.23127147E-09  444769.25      444760.73     1.33191296E-02  8.5000785    
 1.27596831E-06 4.25961695E-09  454026.60      454017.90     1.36958819E-02  8.6892864    
 1.28451608E-06 4.28815232E-09  463023.37      463014.49     1.40557025E-02  8.8733966    
 1.29312111E-06 4.31687884E-09  472407.52      472398.43     1.44377393E-02  9.0739972    
 1.30178379E-06 4.34579781E-09  482033.83      482024.53     1.48334298E-02  9.2809810    
 1.31050450E-06 4.37491051E-09  491583.86      491574.36     1.52229889E-02  9.4826795    
 1.31928362E-06 4.40421823E-09  501762.33      501752.62     1.56502739E-02  9.6963031    
 1.32812156E-06 4.43372228E-09  511767.34      511757.42     1.60653924E-02  9.9022652    
 1.33701871E-06 4.46342399E-09  522065.77      522055.64     1.64974064E-02  10.111951    
 1.34597546E-06 4.49332467E-09  532777.93      532767.58     1.69542880E-02  10.333160    
 1.35499221E-06 4.52342565E-09  543333.46      543322.89     1.73996000E-02  10.558796    
 1.36406936E-06 4.55372829E-09  554505.08      554494.26     1.78829255E-02  10.799397    
 1.37320733E-06 4.58423392E-09  565640.48      565629.42     1.83624175E-02  11.034874    
 1.38240650E-06 4.61494391E-09  576941.73      576930.44     1.88508970E-02  11.270833    
 1.39166731E-06 4.64585962E-09  588861.55      588850.01     1.93783711E-02  11.517163    
 1.40099015E-06 4.67698245E-09  600528.36      600516.59     1.98874148E-02  11.754427    
 1.41037545E-06 4.70831376E-09  612789.43      612777.40     2.04340786E-02  12.008217    
 1.41982361E-06 4.73985497E-09  625182.18      625169.88     2.09878579E-02  12.275141    
 1.42933508E-06 4.77160747E-09  637583.29      637570.73     2.15401257E-02  12.540483    
 1.43891026E-06 4.80357269E-09  650846.16      650833.32     2.21490302E-02  12.822327    
 1.44854958E-06 4.83575204E-09  663741.20      663728.09     2.27309263E-02  13.090925    
 1.45825348E-06 4.86814696E-09  677197.32      677183.93     2.33491684E-02  13.368459    
 1.46802239E-06 4.90075889E-09  690988.54      690974.87     2.39886664E-02  13.649576    
 1.47785673E-06 4.93358930E-09  704676.40      704662.45     2.46186548E-02  13.933295    
 1.48775696E-06 4.96663964E-09  719271.17      719256.90     2.53101076E-02  14.249590    
 1.49772351E-06 4.99991138E-09  733604.75      733590.16     2.59809883E-02  14.556050    
 1.50775683E-06 5.03340601E-09  748371.69      748356.80     2.66801112E-02  14.868440    
 1.51785736E-06 5.06712502E-09  763718.31      763703.09     2.74185084E-02  15.189138    
 1.52802556E-06 5.10106992E-09  778847.03      778831.50     2.81386590E-02  15.500353    
 1.53826187E-06 5.13524222E-09  794865.58      794849.72     2.89208034E-02  15.826925    
 1.54856676E-06 5.16964344E-09  810818.28      810802.09     2.96957247E-02  16.160625    
 1.55894067E-06 5.20427512E-09  827022.94      827006.40     3.04862295E-02  16.510524    
 1.56938409E-06 5.23913879E-09  844099.37      844082.46     3.13387215E-02  16.877339    
 1.57989746E-06 5.27423602E-09  860820.52      860803.26     3.21619373E-02  17.229986    
 1.59048127E-06 5.30956836E-09  878400.94      878383.31     3.30465839E-02  17.597147    
 1.60113597E-06 5.34513740E-09  896154.58      896136.58     3.39415692E-02  17.962426    
 1.61186206E-06 5.38094472E-09  913936.00      913917.64     3.48353077E-02  18.323962    
 1.62265999E-06 5.41699191E-09  932936.10      932917.34     3.58194119E-02  18.724789    
 1.63353026E-06 5.45328058E-09  951417.20      951398.04     3.67604424E-02  19.124253    
 1.64447336E-06 5.48981235E-09  970710.84      970691.26     3.77609270E-02  19.537642    
 1.65548976E-06 5.52658885E-09  990467.54      990447.54     3.87944527E-02  19.955111    
 1.66657996E-06 5.56361172E-09  1010084.6      1010064.2     3.98132565E-02  20.363635    
 1.67774445E-06 5.60088261E-09  1031010.3      1030989.4     4.09321946E-02  20.794517    
 1.68898374E-06 5.63840317E-09  1051543.5      1051522.3     4.20164135E-02  21.212921    
 1.70029832E-06 5.67617509E-09  1072716.3      1072694.6     4.31477918E-02  21.660691    
 1.71168869E-06 5.71420004E-09  1094700.7      1094678.5     4.43411613E-02  22.137678    
 1.72315537E-06 5.75247973E-09  1116382.4      1116359.7     4.55057725E-02  22.600514    
 1.73469887E-06 5.79101585E-09  1139349.0      1139325.9     4.67714780E-02  23.086113    
 1.74631969E-06 5.82981012E-09  1162201.3      1162177.7     4.80238471E-02  23.561676    
 1.75801837E-06 5.86886429E-09  1185435.0      1185410.9     4.93031141E-02  24.039332    
 1.76979541E-06 5.90818007E-09  1209896.9      1209872.3     5.06808880E-02  24.539417    
 1.78165135E-06 5.94775924E-09  1233860.1      1233835.0     5.20121727E-02  25.049153    
 1.79358672E-06 5.98760354E-09  1259065.7      1259040.0     5.34437601E-02  25.595327    
 1.80560203E-06 6.02771477E-09  1284497.2      1284471.0     5.48901772E-02  26.138650    
 1.81769784E-06 6.06809470E-09  1309991.2      1309964.5     5.63365147E-02  26.676005    
 1.82987468E-06 6.10874514E-09  1337208.1      1337180.8     5.79270062E-02  27.243105    
 1.84213310E-06 6.14966790E-09  1363693.0      1363665.1     5.94488167E-02  27.786610    
 1.85447363E-06 6.19086481E-09  1391354.2      1391325.8     6.10678685E-02  28.353470    
 1.86689683E-06 6.23233769E-09  1419654.4      1419625.4     6.27381966E-02  28.959593    
 1.87940326E-06 6.27408840E-09  1447766.9      1447737.3     6.43857790E-02  29.566334    
 1.89199346E-06 6.31611880E-09  1477767.0      1477736.8     6.61964853E-02  30.208497    
 1.90466801E-06 6.35843077E-09  1507179.2      1507148.3     6.79486988E-02  30.827456    
 1.91742747E-06 6.40102618E-09  1537533.9      1537502.4     6.97795813E-02  31.458955    
 1.93027240E-06 6.44390694E-09  1569024.5      1568992.3     7.17082525E-02  32.105036    
 1.94320339E-06 6.48707497E-09  1600094.7      1600061.9     7.35916289E-02  32.744181    
 1.95622099E-06 6.53053217E-09  1633020.3      1632986.8     7.56398498E-02  33.451696    
 1.96932581E-06 6.57428050E-09  1665753.4      1665719.2     7.76638259E-02  34.158615    
 1.98251841E-06 6.61832191E-09  1699062.3      1699027.3     7.97340447E-02  34.869231    
 1.99579939E-06 6.66265834E-09  1734100.6      1734064.9     8.19607559E-02  35.607661    
 2.00916934E-06 6.70729179E-09  1768439.7      1768403.2     8.41136700E-02  36.320723    
 2.02262885E-06 6.75222424E-09  1804574.1      1804537.0     8.64303400E-02  37.061831    
 2.03617854E-06 6.79745770E-09  1841000.8      1840962.9     8.87679361E-02  37.815363    
 2.04981899E-06 6.84299417E-09  1877549.4      1877510.7     9.11085356E-02  38.600640    
 2.06355082E-06 6.88883570E-09  1916533.0      1916493.4     9.36790493E-02  39.445096    
 2.07737464E-06 6.93498432E-09  1954484.4      1954444.0     9.61400736E-02  40.252785    
 2.09129106E-06 6.98144209E-09  1994138.6      1994097.4     9.87601219E-02  41.087582    
 2.10530072E-06 7.02821109E-09  2034673.1      2034631.0     0.10145960      41.928884    
 2.11940422E-06 7.07529339E-09  2074956.1      2074913.2     0.10412402      42.754871    
 2.13360221E-06 7.12269110E-09  2117961.7      2117918.0     0.10705416      43.647088    
 2.14789530E-06 7.17040633E-09  2160088.1      2160043.5     0.10988591      44.557082    
 2.16228415E-06 7.21844121E-09  2203602.7      2203557.1     0.11284877      45.496735    
 2.17676939E-06 7.26679787E-09  2248705.5      2248658.9     0.11596579      46.458043    
 2.19135167E-06 7.31547848E-09  2293225.6      2293178.1     0.11901153      47.393389    
 2.20603163E-06 7.36448520E-09  2340423.8      2340375.3     0.12232603      48.372782    
 2.22080994E-06 7.41382021E-09  2387305.4      2387255.9     0.12559700      49.333597    
 2.23568724E-06 7.46348573E-09  2435053.6      2435003.2     0.12894719      50.326630    
 2.25066421E-06 7.51348396E-09  2485236.4      2485184.9     0.13254591      51.416535    
 2.26574151E-06 7.56381713E-09  2534438.9      2534386.3     0.13602753      52.475926    
 2.28091982E-06 7.61448748E-09  2586235.9      2586182.2     0.13977647      53.579453    
 2.29619980E-06 7.66549727E-09  2638406.0      2638351.2     0.14355431      54.674657    
 2.31158215E-06 7.71684879E-09  2690797.2      2690741.3     0.14734207      55.761098    
 2.32706754E-06 7.76854430E-09  2746628.6      2746571.6     0.15149645      56.904035    
 2.34265667E-06 7.82058613E-09  2801005.4      2800947.2     0.15547633      58.042708    
 2.35835023E-06 7.87297659E-09  2857846.4      2857786.9     0.15971623      59.277930    
 2.37414893E-06 7.92571802E-09  2915898.0      2915837.3     0.16407895      60.529043    
 2.39005346E-06 7.97881276E-09  2973614.5      2973552.6     0.16838774      61.755792    
 2.40606454E-06 8.03226319E-09  3035257.2      3035194.0     0.17312936      63.050153    
 2.42218287E-06 8.08607168E-09  3095587.4      3095522.9     0.17770573      64.298901    
 2.43840918E-06 8.14024064E-09  3157960.2      3157894.5     0.18250042      65.575136    
 2.45474420E-06 8.19477248E-09  3222552.2      3222485.1     0.18753796      66.936749    
 2.47118864E-06 8.24966963E-09  3286337.5      3286269.0     0.19246339      68.322968    
 2.48774324E-06 8.30493454E-09  3353987.9      3353918.0     0.19782703      69.781819    
 2.50440875E-06 8.36056967E-09  3421126.1      3421054.7     0.20311325      71.207098    
 2.52118589E-06 8.41657750E-09  3489565.7      3489492.8     0.20853477      72.642628    
 2.53807543E-06 8.47296053E-09  3561430.3      3561356.0     0.21435084      74.128870    
 2.55507811E-06 8.52972128E-09  3631921.8      3631846.0     0.21998116      75.572551    
 2.57219470E-06 8.58686227E-09  3706161.7      3706084.3     0.22604784      77.145420    
 2.58942595E-06 8.64438604E-09  3780871.0      3780792.0     0.23215326      78.771726    
 2.60677263E-06 8.70229518E-09  3855963.5      3855882.9     0.23828291      80.386478    
 2.62423551E-06 8.76059224E-09  3935914.8      3935832.5     0.24499706      82.085257    
 2.64181539E-06 8.81927985E-09  4013816.8      4013732.9     0.25143314      83.716249    
 2.65951303E-06 8.87836060E-09  4095283.8      4095198.1     0.25829434      85.400852    
 2.67732922E-06 8.93783714E-09  4178412.6      4178325.2     0.26534503      87.106338    
 2.69526477E-06 8.99771211E-09  4261097.6      4261008.4     0.27231301      88.866052    
 2.71332047E-06 9.05798819E-09  4349443.1      4349352.0     0.27998596      90.791635    
 2.73149713E-06 9.11866806E-09  4435833.3      4435740.3     0.28738176      92.645824    
 2.74979555E-06 9.17975443E-09  4525226.3      4525131.4     0.29514078      94.542742    
 2.76821656E-06 9.24125002E-09  4617717.5      4617620.7     0.30328212      96.478175    
 2.78676096E-06 9.30315757E-09  4709093.4      4708994.7     0.31124729      98.366657    
 2.80542960E-06 9.36547984E-09  4806046.0      4805945.3     0.31992684      100.35907    
 2.82422330E-06 9.42821962E-09  4902181.2      4902078.5     0.32846988      102.41998    
 2.84314290E-06 9.49137968E-09  5000266.2      5000161.3     0.33724331      104.55115    
 2.86218924E-06 9.55496287E-09  5103167.7      5103060.6     0.34664291      106.76289    
 2.88136318E-06 9.61897199E-09  5204147.0      5204037.7     0.35574798      108.90160    
 2.90066556E-06 9.68340992E-09  5310540.0      5310428.5     0.36556525      111.12726    
 2.92009725E-06 9.74827952E-09  5417512.3      5417398.6     0.37543224      113.33397    
 2.93965911E-06 9.81358368E-09  5525128.4      5525012.5     0.38535168      115.55291    
 2.95935202E-06 9.87932532E-09  5639604.5      5639486.1     0.39620276      118.01861    
 2.97917685E-06 9.94550737E-09  5751195.1      5751074.3     0.40661084      120.44011    
 2.99913449E-06 1.00121328E-08  5867941.7      5867818.3     0.41771389      122.94700    
 3.01922583E-06 1.00792045E-08  5986964.8      5986838.9     0.42910862      125.46661    
 3.03945176E-06 1.01467255E-08  6105404.0      6105275.6     0.44037684      127.94287    
 3.05981319E-06 1.02146989E-08  6232001.9      6231870.9     0.45279325      130.55124    
 3.08031101E-06 1.02831276E-08  6355691.9      6355558.3     0.46474542      133.11586    
 3.10094616E-06 1.03520148E-08  6483792.6      6483656.2     0.47730141      135.87789    
 3.12171953E-06 1.04213634E-08  6616215.4      6616076.1     0.49045883      138.75660    
 3.14263207E-06 1.04911766E-08  6747098.4      6746956.3     0.50333964      141.56087    
 3.16368471E-06 1.05614574E-08  6886025.7      6885880.7     0.51738499      144.50179    
 3.18487837E-06 1.06322091E-08  7023662.5      7023514.6     0.53119127      147.37425    
 3.20621402E-06 1.07034348E-08  7164213.9      7164063.1     0.54538889      150.27240    
 3.22769259E-06 1.07751376E-08  7311534.9      7311381.1     0.56057989      153.33476    
 3.24931505E-06 1.08473207E-08  7456167.4      7456010.3     0.57530406      156.46547    
 3.27108236E-06 1.09199874E-08  7608616.8      7608456.5     0.59119056      159.77897    
 3.29299549E-06 1.09931409E-08  7761762.7      7761599.0     0.60713655      163.05799    
 3.31505541E-06 1.10667844E-08  7915966.7      7915799.8     0.62318879      166.31914    
 3.33726312E-06 1.11409213E-08  8079851.4      8079681.0     0.64072566      169.73655    
 3.35961959E-06 1.12155548E-08  8239675.4      8239501.7     0.65755695      173.03137    
 3.38212584E-06 1.12906884E-08  8406953.9      8406776.7     0.67552421      176.51753    
 3.40478285E-06 1.13663252E-08  8577344.6      8577163.7     0.69393927      180.22566    
 3.42759164E-06 1.14424687E-08  8746973.2      8746788.6     0.71216151      183.90244    
 3.45055323E-06 1.15191223E-08  8928358.5      8928170.0     0.73225367      187.78913    
 3.47366865E-06 1.15962894E-08  9105426.0      9105233.7     0.75156915      191.52687    
 3.49693891E-06 1.16739735E-08  9288966.3      9288770.2     0.77188767      195.35462    
 3.52036506E-06 1.17521780E-08  9478530.4      9478330.3     0.79315155      199.25617    
 3.54394814E-06 1.18309064E-08  9665972.3      9665768.3     0.81398153      203.18119    
 3.56768921E-06 1.19101621E-08  9865015.0      9864806.6     0.83670974      207.52885    
 3.59158932E-06 1.19899488E-08  10062039.      10061826.     0.85902170      211.79467    
 3.61564954E-06 1.20702701E-08  10263411.      10263194.     0.88199689      216.10308    
 3.63987094E-06 1.21511293E-08  10474292.      10474070.     0.90654740      220.55371    
 3.66425460E-06 1.22325303E-08  10681415.      10681189.     0.93035828      224.86942    
 3.68880161E-06 1.23144766E-08  10899822.      10899591.     0.95606594      229.36005    
 3.71351306E-06 1.23969718E-08  11119035.      11118800.     0.98183600      233.98451    
 3.73839005E-06 1.24800197E-08  11339959.      11339719.      1.0078125      238.80950    
 3.76343369E-06 1.25636239E-08  11574538.      11574293.      1.0361544      243.89671    
 3.78864510E-06 1.26477882E-08  11803406.      11803156.      1.0633727      248.78386    
 3.81402541E-06 1.27325163E-08  12043048.      12042793.      1.0924476      253.84026    
 3.83957574E-06 1.28178120E-08  12286933.      12286673.      1.1222080      258.91384    
 3.86529723E-06 1.29036791E-08  12529834.      12529569.      1.1516757      263.91184    
 3.89119103E-06 1.29901214E-08  12789670.      12789400.      1.1841885      269.42537    
 3.91725829E-06 1.30771428E-08  13043107.      13042831.      1.2154033      274.96710    
 3.94350018E-06 1.31647472E-08  13306034.      13305752.      1.2482832      280.66012    
 3.96991787E-06 1.32529384E-08  13577349.      13577061.      1.2826478      286.45448    
 3.99651253E-06 1.33417205E-08  13845744.      13845450.      1.3163324      292.11262    
 4.02328535E-06 1.34310972E-08  14130862.      14130563.      1.3531109      298.04014    
 4.05023752E-06 1.35210728E-08  14412846.      14412541.      1.3891684      303.85438    
 4.07737024E-06 1.36116511E-08  14701305.      14700994.      1.4263476      310.00329    
 4.10468473E-06 1.37028361E-08  15003113.      15002795.      1.4660239      316.61170    
 4.13218219E-06 1.37946320E-08  15299674.      15299349.      1.5045289      323.01892    
