 OPTXAGNF AGN Spectrum Model Parameters: NLS, Astar 0.0                          
 M_BH:  5.0000E+07 M_0            L  :   1.000     L/Ledd 
 D   :  1.5000E+18 cm             z  :   0.000     redshift 
 Rcor:   40.00     Rg             Ro :   4.000     Rg 
 C_T :  0.2000     keV            Tau:   15.00     Optical Depth 
 gam :   2.200     (-slope)       fpl:  0.2000     Fraction 
 E              0.5DeltaE      E.FE total     E.FE Disk      E.FE Compton   E.FE NonThermal
 (keV)          (keV)          E.E/cm2/s/E    E.E/cm2/s/E    E.E/cm2/s/E    E.E/cm2/s/E    
 1.00334952E-06 3.34952256E-09  22273990.      22273636.     0.10887597      353.95571    
 1.01007101E-06 3.37196116E-09  22715457.      22715103.     0.11173647      354.23250    
 1.01683752E-06 3.39455008E-09  23175528.      23175173.     0.11476948      354.20267    
 1.02364936E-06 3.41729032E-09  23648302.      23647948.     0.11791914      354.07507    
 1.03050683E-06 3.44018290E-09  24116926.      24116571.     0.12101607      354.35050    
 1.03741024E-06 3.46322884E-09  24615962.      24615608.     0.12440844      354.01648    
 1.04435990E-06 3.48642917E-09  25107351.      25106996.     0.12771290      354.19385    
 1.05135611E-06 3.50978492E-09  25612258.      25611903.     0.13114265      354.26347    
 1.05839920E-06 3.53329712E-09  26138377.      26138022.     0.13477934      354.03616    
 1.06548946E-06 3.55696684E-09  26656357.      26656003.     0.13831950      354.31204    
 1.07262722E-06 3.58079512E-09  27204100.      27203745.     0.14215676      354.07727    
 1.07981280E-06 3.60478303E-09  27751022.      27750668.     0.14597361      354.15513    
 1.08704652E-06 3.62893164E-09  28305108.      28304754.     0.14985160      354.32427    
 1.09432869E-06 3.65324201E-09  28890558.      28890204.     0.15405015      353.99720    
 1.10165965E-06 3.67771524E-09  29463091.      29462737.     0.15809698      354.27352    
 1.10903971E-06 3.70235243E-09  30064265.      30063911.     0.16243706      354.13805    
 1.11646922E-06 3.72715465E-09  30672961.      30672607.     0.16684520      354.11636    
 1.12394850E-06 3.75212303E-09  31280987.      31280633.     0.17122955      354.38508    
 1.13147788E-06 3.77725867E-09  31932422.      31932068.     0.17607621      353.95816    
 1.13905770E-06 3.80256270E-09  32565251.      32564897.     0.18070222      354.23493    
 1.14668830E-06 3.82803623E-09  33225037.      33224683.     0.18561054      354.19885    
 1.15437002E-06 3.85368042E-09  33902445.      33902091.     0.19070095      354.07752    
 1.16210319E-06 3.87949640E-09  34574196.      34573841.     0.19570930      354.35292    
 1.16988818E-06 3.90548532E-09  35289847.      35289493.     0.20119906      354.01266    
 1.17772531E-06 3.93164835E-09  35993916.      35993562.     0.20653954      354.19628    
 1.18561494E-06 3.95798663E-09  36717994.      36717640.     0.21208992      354.25964    
 1.19355743E-06 3.98450137E-09  37471827.      37471472.     0.21796750      354.03861    
 1.20155313E-06 4.01119372E-09  38214317.      38213962.     0.22369265      354.31446    
 1.20960239E-06 4.03806489E-09  38999806.      38999452.     0.22990241      354.07344    
 1.21770557E-06 4.06511607E-09  39783435.      39783080.     0.23607101      354.15757    
 1.22586303E-06 4.09234846E-09  40578031.      40577676.     0.24234682      354.32045    
 1.23407514E-06 4.11976329E-09  41416862.      41416507.     0.24913252      353.99965    
 1.24234227E-06 4.14736177E-09  42237537.      42237182.     0.25567706      354.27594    
 1.25066478E-06 4.17514513E-09  43099639.      43099285.     0.26270055      354.13423    
 1.25904304E-06 4.20311462E-09  43971764.      43971410.     0.26982482      354.11880    
 1.26747742E-06 4.23127147E-09  44843703.      44843349.     0.27692013      354.38125    
 1.27596831E-06 4.25961695E-09  45777064.      45776710.     0.28475336      353.96062    
 1.28451608E-06 4.28815232E-09  46684152.      46683797.     0.29223455      354.23736    
 1.29312111E-06 4.31687884E-09  47630295.      47629940.     0.30017765      354.19502    
 1.30178379E-06 4.34579781E-09  48600854.      48600499.     0.30840463      354.07996    
 1.31050450E-06 4.37491051E-09  49563723.      49563368.     0.31650414      354.35533    
 1.31928362E-06 4.40421823E-09  50589953.      50589599.     0.32538803      354.00884    
 1.32812156E-06 4.43372228E-09  51598695.      51598341.     0.33401896      354.19871    
 1.33701871E-06 4.46342399E-09  52637021.      52636667.     0.34300118      354.25582    
 1.34597546E-06 4.49332467E-09  53717060.      53716706.     0.35250044      354.04106    
 1.35499221E-06 4.52342565E-09  54781307.      54780952.     0.36175915      354.31688    
 1.36406936E-06 4.55372829E-09  55907669.      55907314.     0.37180823      354.06962    
 1.37320733E-06 4.58423392E-09  57030381.      57030026.     0.38177760      355.10953    
 1.38240650E-06 4.61494391E-09  58169822.      58169459.     0.39193385      361.75905    
 1.39166731E-06 4.64585962E-09  59371632.      59371259.     0.40290086      372.34755    
 1.40099015E-06 4.67698245E-09  60547933.      60547550.     0.41348467      382.34202    
 1.41037545E-06 4.70831376E-09  61784149.      61783756.     0.42485068      392.87853    
 1.41982361E-06 4.73985497E-09  63033640.      63033237.     0.43636463      403.32783    
 1.42933508E-06 4.77160747E-09  64283976.      64283562.     0.44784716      413.56845    
 1.43891026E-06 4.80357269E-09  65621197.      65620772.     0.46050727      424.70100    
 1.44854958E-06 4.83575204E-09  66921333.      66920896.     0.47260582      435.80378    
 1.45825348E-06 4.86814696E-09  68278040.      68277592.     0.48546009      447.59930    
 1.46802239E-06 4.90075889E-09  69668533.      69668073.     0.49875630      459.54214    
 1.47785673E-06 4.93358930E-09  71048605.      71048134.     0.51185479      471.10531    
 1.48775696E-06 4.96663964E-09  72520114.      72519630.     0.52623125      483.49486    
 1.49772351E-06 4.99991138E-09  73965288.      73964792.     0.54017998      495.31441    
 1.50775683E-06 5.03340601E-09  75454157.      75453649.     0.55471592      507.56102    
 1.51785736E-06 5.06712502E-09  77001472.      77000950.     0.57006845      520.98937    
 1.52802556E-06 5.10106992E-09  78526818.      78526283.     0.58504161      534.06935    
 1.53826187E-06 5.13524222E-09  80141881.      80141332.     0.60130373      547.95684    
 1.54856676E-06 5.16964344E-09  81750303.      81749741.     0.61741569      561.46386    
 1.55894067E-06 5.20427512E-09  83384128.      83383552.     0.63385165      575.00140    
 1.56938409E-06 5.23913879E-09  85105849.      85105259.     0.65157646      589.21557    
 1.57989746E-06 5.27423602E-09  86791750.      86791146.     0.66869255      603.07305    
 1.59048127E-06 5.30956836E-09  88564287.      88563668.     0.68708593      618.41205    
 1.60113597E-06 5.34513740E-09  90354289.      90353654.     0.70569427      633.84952    
 1.61186206E-06 5.38094472E-09  92147092.      92146443.     0.72427669      649.02527    
 1.62265999E-06 5.41699191E-09  94062767.      94062101.     0.74473800      665.26178    
 1.63353026E-06 5.45328058E-09  95926112.      95925431.     0.76430373      680.61114    
 1.64447336E-06 5.48981235E-09  97871382.      97870684.     0.78510563      696.54604    
 1.65548976E-06 5.52658885E-09  99863339.      99862625.     0.80659454      713.12674    
 1.66657996E-06 5.56361172E-09 1.01841224E+08 1.01840493E+08 0.82777735      730.06867    
 1.67774445E-06 5.60088261E-09 1.03951039E+08 1.03950290E+08 0.85104217      748.37598    
 1.68898374E-06 5.63840317E-09 1.06021298E+08 1.06020531E+08 0.87358511      765.87073    
 1.70029832E-06 5.67617509E-09 1.08156028E+08 1.08155244E+08 0.89710859      783.75276    
 1.71168869E-06 5.71420004E-09 1.10372595E+08 1.10371792E+08 0.92192102      802.13974    
 1.72315537E-06 5.75247973E-09 1.12558634E+08 1.12557813E+08 0.94613550      819.91927    
 1.73469887E-06 5.79101585E-09 1.14874232E+08 1.14873392E+08 0.97245197      839.27445    
 1.74631969E-06 5.82981012E-09 1.17178300E+08 1.17177440E+08 0.99849115      859.12718    
 1.75801837E-06 5.86886429E-09 1.19520827E+08 1.19519947E+08  1.0250896      879.19195    
 1.76979541E-06 5.90818007E-09 1.21987182E+08 1.21986281E+08  1.0537362      900.19928    
 1.78165135E-06 5.94775924E-09 1.24403267E+08 1.24402345E+08  1.0814163      920.30241    
 1.79358672E-06 5.98760354E-09 1.26944597E+08 1.26943654E+08  1.1111818      941.32386    
 1.80560203E-06 6.02771477E-09 1.29508719E+08 1.29507755E+08  1.1412557      962.25024    
 1.81769784E-06 6.06809470E-09 1.32079138E+08 1.32078153E+08  1.1713280      983.60879    
 1.82987468E-06 6.10874514E-09 1.34823268E+08 1.34822259E+08  1.2043975      1007.4822    
 1.84213310E-06 6.14966790E-09 1.37493587E+08 1.37492556E+08  1.2360391      1030.2361    
 1.85447363E-06 6.19086481E-09 1.40282518E+08 1.40281463E+08  1.2697025      1053.8491    
 1.86689683E-06 6.23233769E-09 1.43135871E+08 1.43134792E+08  1.3044321      1077.6780    
 1.87940326E-06 6.27408840E-09 1.45970293E+08 1.45969191E+08  1.3386887      1100.9440    
 1.89199346E-06 6.31611880E-09 1.48995037E+08 1.48993910E+08  1.3763371      1125.6990    
 1.90466801E-06 6.35843077E-09 1.51960500E+08 1.51959348E+08  1.4127693      1150.5245    
 1.91742747E-06 6.40102618E-09 1.55021002E+08 1.55019824E+08  1.4508372      1176.9352    
 1.93027240E-06 6.44390694E-09 1.58196018E+08 1.58194812E+08  1.4909384      1204.1611    
 1.94320339E-06 6.48707497E-09 1.61328660E+08 1.61327428E+08  1.5300978      1230.4967    
 1.95622099E-06 6.53053217E-09 1.64648361E+08 1.64647101E+08  1.5726848      1258.2304    
 1.96932581E-06 6.57428050E-09 1.67948654E+08 1.67947367E+08  1.6147677      1285.3055    
 1.98251841E-06 6.61832191E-09 1.71307000E+08 1.71305686E+08  1.6578120      1312.6193    
 1.99579939E-06 6.66265834E-09 1.74839723E+08 1.74838379E+08  1.7041103      1342.4959    
 2.00916934E-06 6.70729179E-09 1.78301937E+08 1.78300563E+08  1.7488741      1372.2768    
 2.02262885E-06 6.75222424E-09 1.81945178E+08 1.81943773E+08  1.7970429      1403.4558    
 2.03617854E-06 6.79745770E-09 1.85617876E+08 1.85616440E+08  1.8456468      1434.3740    
 2.04981899E-06 6.84299417E-09 1.89302864E+08 1.89301397E+08  1.8943131      1464.9474    
 2.06355082E-06 6.88883570E-09 1.93233357E+08 1.93231858E+08  1.9477600      1497.2814    
 2.07737464E-06 6.93498432E-09 1.97059783E+08 1.97058252E+08  1.9989303      1528.3831    
 2.09129106E-06 6.98144209E-09 2.01057897E+08 2.01056332E+08  2.0534071      1562.2210    
 2.10530072E-06 7.02821109E-09 2.05144764E+08 2.05143165E+08  2.1095356      1597.5444    
 2.11940422E-06 7.07529339E-09 2.09206277E+08 2.09204643E+08  2.1649351      1632.0510    
 2.13360221E-06 7.12269110E-09 2.13542299E+08 2.13540628E+08  2.2258596      1668.6482    
 2.14789530E-06 7.17040633E-09 2.17789664E+08 2.17787958E+08  2.2847384      1703.8098    
 2.16228415E-06 7.21844121E-09 2.22176994E+08 2.22175252E+08  2.3463433      1739.7433    
 2.17676939E-06 7.26679787E-09 2.26724451E+08 2.26722672E+08  2.4111537      1776.8206    
 2.19135167E-06 7.31547848E-09 2.31213166E+08 2.31211348E+08  2.4744817      1814.9230    
 2.20603163E-06 7.36448520E-09 2.35971903E+08 2.35970045E+08  2.5433985      1856.0935    
 2.22080994E-06 7.41382021E-09 2.40698708E+08 2.40696809E+08  2.6114099      1896.2386    
 2.23568724E-06 7.46348573E-09 2.45512900E+08 2.45510961E+08  2.6810686      1936.6308    
 2.25066421E-06 7.51348396E-09 2.50572544E+08 2.50570563E+08  2.7558949      1978.6192    
 2.26574151E-06 7.56381713E-09 2.55533351E+08 2.55531329E+08  2.8282863      2019.1131    
 2.28091982E-06 7.61448748E-09 2.60755751E+08 2.60753686E+08  2.9062362      2061.7848    
 2.29619980E-06 7.66549727E-09 2.66015773E+08 2.66013664E+08  2.9847870      2106.7683    
 2.31158215E-06 7.71684879E-09 2.71298084E+08 2.71295929E+08  3.0635442      2152.1249    
 2.32706754E-06 7.76854430E-09 2.76927258E+08 2.76925055E+08  3.1499245      2200.1099    
 2.34265667E-06 7.82058613E-09 2.82409763E+08 2.82407513E+08  3.2326763      2245.9542    
 2.35835023E-06 7.87297659E-09 2.88140715E+08 2.88138418E+08  3.3208349      2293.3988    
 2.37414893E-06 7.92571802E-09 2.93993729E+08 2.93991384E+08  3.4115472      2341.1714    
 2.39005346E-06 7.97881276E-09 2.99812958E+08 2.99810566E+08  3.5011382      2388.7893    
 2.40606454E-06 8.03226319E-09 3.06028045E+08 3.06025599E+08  3.5997290      2442.2093    
 2.42218287E-06 8.08607168E-09 3.12110805E+08 3.12108307E+08  3.6948839      2494.3540    
 2.43840918E-06 8.14024064E-09 3.18399510E+08 3.18396959E+08  3.7945783      2547.7152    
 2.45474420E-06 8.19477248E-09 3.24911957E+08 3.24909350E+08  3.8993225      2602.2754    
 2.47118864E-06 8.24966963E-09 3.31343068E+08 3.31340409E+08  4.0017355      2655.3426    
 2.48774324E-06 8.30493454E-09 3.38163875E+08 3.38161159E+08  4.1132602      2710.9880    
 2.50440875E-06 8.36056967E-09 3.44933032E+08 3.44930261E+08  4.2231753      2766.7912    
 2.52118589E-06 8.41657750E-09 3.51833412E+08 3.51830582E+08  4.3359035      2825.8936    
 2.53807543E-06 8.47296053E-09 3.59079128E+08 3.59076235E+08  4.4568360      2888.2419    
 2.55507811E-06 8.52972128E-09 3.66186391E+08 3.66183439E+08  4.5739060      2948.3237    
 2.57219470E-06 8.58686227E-09 3.73671577E+08 3.73668562E+08  4.7000494      3010.9744    
 2.58942595E-06 8.64438604E-09 3.81204094E+08 3.81201017E+08  4.8269983      3073.0798    
 2.60677263E-06 8.70229518E-09 3.88775240E+08 3.88772100E+08  4.9544513      3134.7273    
 2.62423551E-06 8.76059224E-09 3.96836277E+08 3.96833071E+08  5.0940579      3201.5210    
 2.64181539E-06 8.81927985E-09 4.04690703E+08 4.04687429E+08  5.2278824      3268.9475    
 2.65951303E-06 8.87836060E-09 4.12904560E+08 4.12901215E+08  5.3705469      3339.4467    
 2.67732922E-06 8.93783714E-09 4.21285974E+08 4.21282559E+08  5.5171515      3410.3667    
 2.69526477E-06 8.99771211E-09 4.29622634E+08 4.29619148E+08  5.6620361      3479.9173    
 2.71332047E-06 9.05798819E-09 4.38530006E+08 4.38526447E+08  5.8215797      3553.3741    
 2.73149713E-06 9.11866806E-09 4.47240232E+08 4.47236602E+08  5.9753605      3624.2866    
 2.74979555E-06 9.17975443E-09 4.56253221E+08 4.56249516E+08  6.1366938      3699.0773    
 2.76821656E-06 9.24125002E-09 4.65578595E+08 4.65574809E+08  6.3059771      3779.5357    
 2.78676096E-06 9.30315757E-09 4.74791513E+08 4.74787649E+08  6.4715971      3858.2825    
 2.80542960E-06 9.36547984E-09 4.84566706E+08 4.84562758E+08  6.6520718      3941.0286    
 2.82422330E-06 9.42821962E-09 4.94259473E+08 4.94255444E+08  6.8297079      4021.7796    
 2.84314290E-06 9.49137968E-09 5.04148820E+08 5.04144710E+08  7.0121347      4103.1858    
 2.86218924E-06 9.55496287E-09 5.14523790E+08 5.14519595E+08  7.2075820      4187.6695    
 2.88136318E-06 9.61897199E-09 5.24704954E+08 5.24700674E+08  7.3969048      4272.5685    
 2.90066556E-06 9.68340992E-09 5.35431964E+08 5.35427591E+08  7.6010371      4365.2244    
 2.92009725E-06 9.74827952E-09 5.46217380E+08 5.46212915E+08  7.8062034      4457.4205    
 2.93965911E-06 9.81358368E-09 5.57067715E+08 5.57063158E+08  8.0124602      4548.9630    
 2.95935202E-06 9.87932532E-09 5.68609681E+08 5.68605027E+08  8.2380895      4645.1912    
 2.97917685E-06 9.94550737E-09 5.79860726E+08 5.79855980E+08  8.4545071      4737.6107    
 2.99913449E-06 1.00121328E-08 5.91631608E+08 5.91626766E+08  8.6853760      4833.4120    
 3.01922583E-06 1.00792045E-08 6.03632038E+08 6.03627095E+08  8.9223100      4934.1984    
 3.03945176E-06 1.01467255E-08 6.15573591E+08 6.15568544E+08  9.1566135      5037.1346    
 3.05981319E-06 1.02146989E-08 6.28337753E+08 6.28332597E+08  9.4147924      5146.4478    
 3.08031101E-06 1.02831276E-08 6.40808712E+08 6.40803451E+08  9.6633180      5251.4406    
 3.10094616E-06 1.03520148E-08 6.53724372E+08 6.53719003E+08  9.9243995      5358.9502    
 3.12171953E-06 1.04213634E-08 6.67075801E+08 6.67070322E+08  10.197987      5468.5435    
 3.14263207E-06 1.04911766E-08 6.80271981E+08 6.80266395E+08  10.465823      5575.9216    
 3.16368471E-06 1.05614574E-08 6.94279235E+08 6.94273530E+08  10.757875      5694.1651    
 3.18487837E-06 1.06322091E-08 7.08156380E+08 7.08150555E+08  11.044955      5814.0153    
 3.20621402E-06 1.07034348E-08 7.22327389E+08 7.22321442E+08  11.340173      5934.9592    
 3.22769259E-06 1.07751376E-08 7.37180933E+08 7.37174861E+08  11.656048      6060.1557    
 3.24931505E-06 1.08473207E-08 7.51763388E+08 7.51757195E+08  11.962215      6181.2952    
 3.27108236E-06 1.09199874E-08 7.67133987E+08 7.67127667E+08  12.292552      6307.3942    
 3.29299549E-06 1.09931409E-08 7.82574799E+08 7.82568354E+08  12.624127      6433.1345    
 3.31505541E-06 1.10667844E-08 7.98122316E+08 7.98115738E+08  12.957910      6564.8912    
 3.33726312E-06 1.11409213E-08 8.14645881E+08 8.14639160E+08  13.322566      6707.9850    
 3.35961959E-06 1.12155548E-08 8.30760037E+08 8.30753178E+08  13.672550      6845.1488    
 3.38212584E-06 1.12906884E-08 8.47625784E+08 8.47618783E+08  14.046156      6987.1557    
 3.40478285E-06 1.13663252E-08 8.64805290E+08 8.64798146E+08  14.429073      7129.7563    
 3.42759164E-06 1.14424687E-08 8.81907962E+08 8.81900677E+08  14.807981      7269.9926    
 3.45055323E-06 1.15191223E-08 9.00196000E+08 9.00188565E+08  15.225773      7419.1963    
 3.47366865E-06 1.15962894E-08 9.18048703E+08 9.18041116E+08  15.627415      7571.6062    
 3.49693891E-06 1.16739735E-08 9.36554035E+08 9.36546287E+08  16.049914      7731.2966    
 3.52036506E-06 1.17521780E-08 9.55666711E+08 9.55658800E+08  16.492072      7894.1744    
 3.54394814E-06 1.18309064E-08 9.74565415E+08 9.74557345E+08  16.925207      8052.9643    
 3.56768921E-06 1.19101621E-08 9.94633729E+08 9.94625493E+08  17.397816      8219.4973    
 3.59158932E-06 1.19899488E-08 1.01449850E+09 1.01449010E+09  17.861768      8382.0596    
 3.61564954E-06 1.20702701E-08 1.03480167E+09 1.03479310E+09  18.339512      8548.3469    
 3.63987094E-06 1.21511293E-08 1.05606360E+09 1.05605485E+09  18.850015      8730.7272    
 3.66425460E-06 1.22325303E-08 1.07694666E+09 1.07693773E+09  19.345138      8910.4568    
 3.68880161E-06 1.23144766E-08 1.09896737E+09 1.09895825E+09  19.879704      9098.0685    
 3.71351306E-06 1.23969718E-08 1.12106941E+09 1.12106011E+09  20.415567      9283.5942    
 3.73839005E-06 1.24800197E-08 1.14334387E+09 1.14333438E+09  20.955724      9468.3017    
 3.76343369E-06 1.25636239E-08 1.16699512E+09 1.16698543E+09  21.545069      9661.6017    
 3.78864510E-06 1.26477882E-08 1.19007054E+09 1.19006067E+09  22.111049      9851.7712    
 3.81402541E-06 1.27325163E-08 1.21423228E+09 1.21422219E+09  22.715637      10059.199    
 3.83957574E-06 1.28178120E-08 1.23882183E+09 1.23881154E+09  23.334481      10271.069    
 3.86529723E-06 1.29036791E-08 1.26331211E+09 1.26330161E+09  23.947236      10479.216    
 3.89119103E-06 1.29901214E-08 1.28950997E+09 1.28949925E+09  24.623315      10699.201    
 3.91725829E-06 1.30771428E-08 1.31506247E+09 1.31505153E+09  25.272404      10910.696    
 3.94350018E-06 1.31647472E-08 1.34157191E+09 1.34156075E+09  25.956118      11127.423    
 3.96991787E-06 1.32529384E-08 1.36892700E+09 1.36891562E+09  26.670706      11353.903    
 3.99651253E-06 1.33417205E-08 1.39598773E+09 1.39597612E+09  27.371154      11586.555    
 4.02328535E-06 1.34310972E-08 1.42473459E+09 1.42472273E+09  28.135942      11834.473    
 4.05023752E-06 1.35210728E-08 1.45316542E+09 1.45315332E+09  28.885736      12075.795    
 4.07737024E-06 1.36116511E-08 1.48224906E+09 1.48223671E+09  29.658854      12319.741    
 4.10468473E-06 1.37028361E-08 1.51267860E+09 1.51266600E+09  30.483902      12571.421    
 4.13218219E-06 1.37946320E-08 1.54257910E+09 1.54256625E+09  31.284593      12815.967    
