 OPTXAGNF AGN Spectrum Model Parameters: BLS, Astar 0.0                          
 M_BH:  5.0000E+07 M_0            L  :  0.2000     L/Ledd 
 D   :  1.5000E+18 cm             z  :   0.000     redshift 
 Rcor:   60.00     Rg             Ro :   4.000     Rg 
 C_T :  0.2000     keV            Tau:   15.00     Optical Depth 
 gam :   1.800     (-slope)       fpl:  0.5000     Fraction 
 E              0.5DeltaE      E.FE total     E.FE Disk      E.FE Compton   E.FE NonThermal
 (keV)          (keV)          E.E/cm2/s/E    E.E/cm2/s/E    E.E/cm2/s/E    E.E/cm2/s/E    
 1.00334952E-06 3.34952256E-09  14774290.      14773601.      1.8422514      686.78412    
 1.01007101E-06 3.37196116E-09  15066997.      15066294.      1.8906510      700.53326    
 1.01683752E-06 3.39455008E-09  15372029.      15371313.      1.9419694      714.69204    
 1.02364936E-06 3.41729032E-09  15685479.      15684748.      1.9952613      729.18472    
 1.03050683E-06 3.44018290E-09  15996181.      15995435.      2.0476610      744.16828    
 1.03741024E-06 3.46322884E-09  16327032.      16326270.      2.1050594      760.38130    
 1.04435990E-06 3.48642917E-09  16652818.      16652040.      2.1609705      776.07610    
 1.05135611E-06 3.50978492E-09  16987561.      16986767.      2.2190012      792.01603    
 1.05839920E-06 3.53329712E-09  17336355.      17335545.      2.2805333      808.40033    
 1.06548946E-06 3.55696684E-09  17679761.      17678935.      2.3404321      824.32236    
 1.07262722E-06 3.58079512E-09  18042882.      18042039.      2.4053576      841.13458    
 1.07981280E-06 3.60478303E-09  18405463.      18404602.      2.4699377      858.75775    
 1.08704652E-06 3.62893164E-09  18772791.      18771911.      2.5355521      876.68556    
 1.09432869E-06 3.65324201E-09  19160893.      19159995.      2.6065902      895.41403    
 1.10165965E-06 3.67771524E-09  19540443.      19539527.      2.6750612      913.44786    
 1.10903971E-06 3.70235243E-09  19938964.      19938029.      2.7484938      932.15822    
 1.11646922E-06 3.72715465E-09  20342469.      20341515.      2.8230778      950.83554    
 1.12394850E-06 3.75212303E-09  20745532.      20744560.      2.8972593      969.57479    
 1.13147788E-06 3.77725867E-09  21177348.      21176354.      2.9792625      990.65760    
 1.13905770E-06 3.80256270E-09  21596843.      21595829.      3.0575326      1011.0822    
 1.14668830E-06 3.82803623E-09  22034194.      22033158.      3.1405788      1032.1523    
 1.15437002E-06 3.85368042E-09  22483216.      22482159.      3.2267058      1053.4841    
 1.16210319E-06 3.87949640E-09  22928495.      22927417.      3.3114445      1074.3666    
 1.16988818E-06 3.90548532E-09  23402847.      23401748.      3.4043281      1096.3018    
 1.17772531E-06 3.93164835E-09  23869533.      23868411.      3.4946858      1118.1747    
 1.18561494E-06 3.95798663E-09  24349472.      24348327.      3.5885950      1141.5671    
 1.19355743E-06 3.98450137E-09  24849117.      24847947.      3.6880397      1165.9453    
 1.20155313E-06 4.01119372E-09  25341254.      25340061.      3.7849056      1189.5961    
 1.20960239E-06 4.03806489E-09  25861866.      25860647.      3.8899701      1214.3226    
 1.21770557E-06 4.06511607E-09  26381247.      26380005.      3.9943385      1238.6384    
 1.22586303E-06 4.09234846E-09  26907895.      26906628.      4.1005206      1263.0017    
 1.23407514E-06 4.11976329E-09  27463833.      27462540.      4.2153291      1289.1764    
 1.24234227E-06 4.14736177E-09  28007756.      28006436.      4.3260575      1315.7359    
 1.25066478E-06 4.17514513E-09  28579110.      28577762.      4.4448891      1343.5892    
 1.25904304E-06 4.20311462E-09  29157103.      29155727.      4.5654256      1371.3539    
 1.26747742E-06 4.23127147E-09  29734977.      29733573.      4.6854722      1398.7637    
 1.27596831E-06 4.25961695E-09  30353516.      30352083.      4.8180028      1427.6978    
 1.28451608E-06 4.28815232E-09  30954666.      30953206.      4.9445776      1455.5192    
 1.29312111E-06 4.31687884E-09  31581676.      31580186.      5.0789671      1485.1350    
 1.30178379E-06 4.34579781E-09  32224854.      32223332.      5.2181594      1516.6529    
 1.31050450E-06 4.37491051E-09  32862946.      32861393.      5.3551948      1547.6672    
 1.31928362E-06 4.40421823E-09  33542984.      33541399.      5.5055005      1580.3477    
 1.32812156E-06 4.43372228E-09  34211451.      34209833.      5.6515266      1611.9937    
 1.33701871E-06 4.46342399E-09  34899504.      34897854.      5.8034957      1644.1761    
 1.34597546E-06 4.49332467E-09  35615172.      35613489.      5.9642121      1677.2787    
 1.35499221E-06 4.52342565E-09  36320393.      36318676.      6.1208587      1710.7626    
 1.36406936E-06 4.55372829E-09  37066733.      37064980.      6.2908768      1747.3995    
 1.37320733E-06 4.58423392E-09  37810662.      37808872.      6.4595463      1783.5253    
 1.38240650E-06 4.61494391E-09  38565664.      38563838.      6.6313772      1819.7423    
 1.39166731E-06 4.64585962E-09  39361946.      39360082.      6.8169244      1857.4272    
 1.40099015E-06 4.67698245E-09  40141353.      40139452.      6.9959887      1893.8336    
 1.41037545E-06 4.70831376E-09  40960416.      40958477.      7.1882858      1931.7284    
 1.41982361E-06 4.73985497E-09  41788271.      41786292.      7.3830858      1971.2996    
 1.42933508E-06 4.77160747E-09  42616694.      42614674.      7.5773540      2011.9084    
 1.43891026E-06 4.80357269E-09  43502617.      43500555.      7.7915441      2054.9915    
 1.44854958E-06 4.83575204E-09  44364007.      44361903.      7.9962340      2096.2209    
 1.45825348E-06 4.86814696E-09  45262838.      45260691.      8.2137085      2138.7368    
 1.46802239E-06 4.90075889E-09  46184030.      46181840.      8.4386596      2181.6925    
 1.47785673E-06 4.93358930E-09  47098335.      47096102.      8.6602656      2224.0347    
 1.48775696E-06 4.96663964E-09  48073148.      48070868.      8.9034915      2270.8588    
 1.49772351E-06 4.99991138E-09  49030546.      49028219.      9.1394812      2317.8468    
 1.50775683E-06 5.03340601E-09  50016862.      50014487.      9.3854048      2365.7067    
 1.51785736E-06 5.06712502E-09  51041852.      51039428.      9.6451429      2414.7746    
 1.52802556E-06 5.10106992E-09  52052317.      52049844.      9.8984628      2462.5108    
 1.53826187E-06 5.13524222E-09  53122143.      53119621.      10.173588      2512.3627    
 1.54856676E-06 5.16964344E-09  54187586.      54185013.      10.446173      2561.7573    
 1.55894067E-06 5.20427512E-09  55269845.      55267220.      10.724240      2613.9587    
 1.56938409E-06 5.23913879E-09  56410258.      56407577.      11.024109      2670.0443    
 1.57989746E-06 5.27423602E-09  57526987.      57524251.      11.313681      2724.1028    
 1.59048127E-06 5.30956836E-09  58701032.      58698240.      11.624861      2780.2787    
 1.60113597E-06 5.34513740E-09  59886638.      59883790.      11.939677      2836.2033    
 1.61186206E-06 5.38094472E-09  61074110.      61071206.      12.254054      2891.5651    
 1.62265999E-06 5.41699191E-09  62342860.      62339898.      12.600216      2950.3676    
 1.63353026E-06 5.45328058E-09  63577015.      63573992.      12.931227      3010.3742    
 1.64447336E-06 5.48981235E-09  64865366.      64862279.      13.283151      3073.6107    
 1.65548976E-06 5.52658885E-09  66184605.      66181454.      13.646696      3137.4794    
 1.66657996E-06 5.56361172E-09  67494550.      67491336.      14.005063      3200.0680    
 1.67774445E-06 5.60088261E-09  68891754.      68888474.      14.398651      3265.9291    
 1.68898374E-06 5.63840317E-09  70262812.      70259467.      14.780026      3329.7157    
 1.70029832E-06 5.67617509E-09  71676519.      71673108.      15.177989      3395.5547    
 1.71168869E-06 5.71420004E-09  73144358.      73140875.      15.597756      3467.2231    
 1.72315537E-06 5.75247973E-09  74592026.      74588472.      16.007407      3538.0751    
 1.73469887E-06 5.79101585E-09  76125376.      76121747.      16.452617      3612.3126    
 1.74631969E-06 5.82981012E-09  77651115.      77647413.      16.893136      3685.0968    
 1.75801837E-06 5.86886429E-09  79202298.      79198523.      17.343115      3758.2106    
 1.76979541E-06 5.90818007E-09  80835367.      80831515.      17.827742      3834.0374    
 1.78165135E-06 5.94775924E-09  82435217.      82431289.      18.296017      3909.0352    
 1.79358672E-06 5.98760354E-09  84117891.      84113881.      18.799571      3991.2897    
 1.80560203E-06 6.02771477E-09  85815650.      85811556.      19.308341      4074.3952    
 1.81769784E-06 6.06809470E-09  87517590.      87513413.      19.817083      4156.6396    
 1.82987468E-06 6.10874514E-09  89334379.      89330115.      20.376527      4243.2946    
 1.84213310E-06 6.14966790E-09  91102394.      91098046.      20.911814      4326.4868    
 1.85447363E-06 6.19086481E-09  92948833.      92944400.      21.481303      4412.2493    
 1.86689683E-06 6.23233769E-09  94837876.      94833353.      22.068827      4501.2621    
 1.87940326E-06 6.27408840E-09  96714431.      96709816.      22.648351      4593.0554    
 1.89199346E-06 6.31611880E-09  98716803.      98712088.      23.285248      4691.1799    
 1.90466801E-06 6.35843077E-09 1.00680011E+08 1.00675201E+08  23.901572      4785.8724    
 1.91742747E-06 6.40102618E-09 1.02706055E+08 1.02701148E+08  24.545566      4882.4480    
 1.93027240E-06 6.44390694E-09 1.04807801E+08 1.04802794E+08  25.223953      4981.2061    
 1.94320339E-06 6.48707497E-09 1.06881566E+08 1.06876463E+08  25.886410      5077.6072    
 1.95622099E-06 6.53053217E-09 1.09078975E+08 1.09073767E+08  26.606844      5181.4703    
 1.96932581E-06 6.57428050E-09 1.11263587E+08 1.11258271E+08  27.318751      5288.7477    
 1.98251841E-06 6.61832191E-09 1.13486587E+08 1.13481162E+08  28.046922      5397.4159    
 1.99579939E-06 6.66265834E-09 1.15824836E+08 1.15819297E+08  28.830134      5510.2552    
 2.00916934E-06 6.70729179E-09 1.18116520E+08 1.18110871E+08  29.587389      5619.3232    
 2.02262885E-06 6.75222424E-09 1.20527842E+08 1.20522079E+08  30.402240      5732.5960    
 2.03617854E-06 6.79745770E-09 1.22958652E+08 1.22952776E+08  31.224450      5845.5366    
 2.04981899E-06 6.84299417E-09 1.25397617E+08 1.25391624E+08  32.047717      5961.2556    
 2.06355082E-06 6.88883570E-09 1.27998813E+08 1.27992690E+08  32.951846      6089.4624    
 2.07737464E-06 6.93498432E-09 1.30531285E+08 1.30525038E+08  33.817466      6212.9686    
 2.09129106E-06 6.98144209E-09 1.33177209E+08 1.33170834E+08  34.739017      6340.5598    
 2.10530072E-06 7.02821109E-09 1.35881792E+08 1.35875287E+08  35.688504      6469.1414    
 2.11940422E-06 7.07529339E-09 1.38569660E+08 1.38563028E+08  36.625659      6595.4131    
 2.13360221E-06 7.12269110E-09 1.41438888E+08 1.41432121E+08  37.656269      6728.5731    
 2.14789530E-06 7.17040633E-09 1.44249592E+08 1.44242690E+08  38.652276      6862.9587    
 2.16228415E-06 7.21844121E-09 1.47152787E+08 1.47145741E+08  39.694394      7005.9520    
 2.17676939E-06 7.26679787E-09 1.50161775E+08 1.50154582E+08  40.790730      7152.8386    
 2.19135167E-06 7.31547848E-09 1.53132003E+08 1.53124666E+08  41.861993      7295.8267    
 2.20603163E-06 7.36448520E-09 1.56280599E+08 1.56273111E+08  43.027785      7445.4649    
 2.22080994E-06 7.41382021E-09 1.59408142E+08 1.59400505E+08  44.178263      7592.0896    
 2.23568724E-06 7.46348573E-09 1.62593437E+08 1.62585652E+08  45.356604      7740.1003    
 2.25066421E-06 7.51348396E-09 1.65940863E+08 1.65932915E+08  46.622351      7900.9973    
 2.26574151E-06 7.56381713E-09 1.69223070E+08 1.69214960E+08  47.846913      8062.7296    
 2.28091982E-06 7.61448748E-09 1.72678053E+08 1.72669773E+08  49.165491      8231.3318    
 2.29619980E-06 7.66549727E-09 1.76157916E+08 1.76149467E+08  50.494233      8398.6856    
 2.31158215E-06 7.71684879E-09 1.79652544E+08 1.79643927E+08  51.826464      8564.7272    
 2.32706754E-06 7.76854430E-09 1.83376222E+08 1.83367430E+08  53.287633      8739.0263    
 2.34265667E-06 7.82058613E-09 1.87003116E+08 1.86994154E+08  54.687428      8907.7765    
 2.35835023E-06 7.87297659E-09 1.90794090E+08 1.90784943E+08  56.178673      9090.8208    
 2.37414893E-06 7.92571802E-09 1.94665695E+08 1.94656355E+08  57.713110      9281.9614    
 2.39005346E-06 7.97881276E-09 1.98515053E+08 1.98505524E+08  59.228580      9469.4144    
 2.40606454E-06 8.03226319E-09 2.02625762E+08 2.02616034E+08  60.896270      9667.1342    
 2.42218287E-06 8.08607168E-09 2.06649177E+08 2.06639256E+08  62.505846      9857.9431    
 2.43840918E-06 8.14024064E-09 2.10808584E+08 2.10798467E+08  64.192198      10052.777    
 2.45474420E-06 8.19477248E-09 2.15115717E+08 2.15105398E+08  65.963961      10253.195    
 2.47118864E-06 8.24966963E-09 2.19369243E+08 2.19358715E+08  67.696294      10459.907    
 2.48774324E-06 8.30493454E-09 2.23880017E+08 2.23869264E+08  69.582736      10682.663    
 2.50440875E-06 8.36056967E-09 2.28356762E+08 2.28345790E+08  71.441952      10900.402    
 2.52118589E-06 8.41657750E-09 2.32920169E+08 2.32908976E+08  73.348747      11119.707    
 2.53807543E-06 8.47296053E-09 2.37711512E+08 2.37700090E+08  75.394300      11346.733    
 2.55507811E-06 8.52972128E-09 2.42411566E+08 2.42399922E+08  77.374525      11566.747    
 2.57219470E-06 8.58686227E-09 2.47361052E+08 2.47349174E+08  79.508209      11797.769    
 2.58942595E-06 8.64438604E-09 2.52341845E+08 2.52329722E+08  81.655515      12041.315    
 2.60677263E-06 8.70229518E-09 2.57348209E+08 2.57335837E+08  83.811345      12287.804    
 2.62423551E-06 8.76059224E-09 2.62677835E+08 2.62665201E+08  86.172726      12547.277    
 2.64181539E-06 8.81927985E-09 2.67871232E+08 2.67858347E+08  88.436314      12796.413    
 2.65951303E-06 8.87836060E-09 2.73301817E+08 2.73288672E+08  90.849409      13053.729    
 2.67732922E-06 8.93783714E-09 2.78843003E+08 2.78829597E+08  93.329139      13312.587    
 2.69526477E-06 8.99771211E-09 2.84354763E+08 2.84341096E+08  95.779780      13571.151    
 2.71332047E-06 9.05798819E-09 2.90243047E+08 2.90229088E+08  98.478338      13860.106    
 2.73149713E-06 9.11866806E-09 2.96001392E+08 2.95987148E+08  101.07943      14143.294    
 2.74979555E-06 9.17975443E-09 3.01959510E+08 3.01944974E+08  103.80825      14433.013    
 2.76821656E-06 9.24125002E-09 3.08123723E+08 3.08108887E+08  106.67153      14728.617    
 2.78676096E-06 9.30315757E-09 3.14213876E+08 3.14198750E+08  109.47285      15017.042    
 2.80542960E-06 9.36547984E-09 3.20674899E+08 3.20659468E+08  112.52538      15318.622    
 2.82422330E-06 9.42821962E-09 3.27081673E+08 3.27065937E+08  115.52991      15621.198    
 2.84314290E-06 9.49137968E-09 3.33618193E+08 3.33602132E+08  118.61546      15942.029    
 2.86218924E-06 9.55496287E-09 3.40474997E+08 3.40458595E+08  121.92121      16279.819    
 2.88136318E-06 9.61897199E-09 3.47204135E+08 3.47187404E+08  125.12338      16606.416    
 2.90066556E-06 9.68340992E-09 3.54293237E+08 3.54276163E+08  128.57601      16946.325    
 2.92009725E-06 9.74827952E-09 3.61420948E+08 3.61403533E+08  132.04611      17283.326    
 2.93965911E-06 9.81358368E-09 3.68591585E+08 3.68573831E+08  135.53466      17618.473    
 2.95935202E-06 9.87932532E-09 3.76218234E+08 3.76200115E+08  139.35082      17979.778    
 2.97917685E-06 9.94550737E-09 3.83653272E+08 3.83634782E+08  143.01120      18346.072    
 2.99913449E-06 1.00121328E-08 3.91431070E+08 3.91412194E+08  146.91596      18728.896    
 3.01922583E-06 1.00792045E-08 3.99360270E+08 3.99341005E+08  150.92329      19113.660    
 3.03945176E-06 1.01467255E-08 4.07250814E+08 4.07231167E+08  154.88614      19491.761    
 3.05981319E-06 1.02146989E-08 4.15683576E+08 4.15663526E+08  159.25274      19890.119    
 3.08031101E-06 1.02831276E-08 4.23923268E+08 4.23902829E+08  163.45609      20275.301    
 3.10094616E-06 1.03520148E-08 4.32456152E+08 4.32435303E+08  167.87176      20681.055    
 3.12171953E-06 1.04213634E-08 4.41276317E+08 4.41255027E+08  172.49893      21117.315    
 3.14263207E-06 1.04911766E-08 4.49994362E+08 4.49972640E+08  177.02883      21545.453    
 3.16368471E-06 1.05614574E-08 4.59246904E+08 4.59224727E+08  181.96823      21994.565    
 3.18487837E-06 1.06322091E-08 4.68413883E+08 4.68391263E+08  186.82355      22433.142    
 3.20621402E-06 1.07034348E-08 4.77774625E+08 4.77751558E+08  191.81648      22875.646    
 3.22769259E-06 1.07751376E-08 4.87585113E+08 4.87561582E+08  197.15873      23333.677    
 3.24931505E-06 1.08473207E-08 4.97217242E+08 4.97193245E+08  202.33681      23794.569    
 3.27108236E-06 1.09199874E-08 5.07368673E+08 5.07344168E+08  207.92361      24297.657    
 3.29299549E-06 1.09931409E-08 5.17566522E+08 5.17541510E+08  213.53133      24798.293    
 3.31505541E-06 1.10667844E-08 5.27834848E+08 5.27809333E+08  219.17640      25296.152    
 3.33726312E-06 1.11409213E-08 5.38746095E+08 5.38720051E+08  225.34352      25818.030    
 3.35961959E-06 1.12155548E-08 5.49387954E+08 5.49361402E+08  231.26252      26320.527    
 3.38212584E-06 1.12906884E-08 5.60524913E+08 5.60497834E+08  237.58097      26840.745    
 3.40478285E-06 1.13663252E-08 5.71868670E+08 5.71841039E+08  244.05687      27387.151    
 3.42759164E-06 1.14424687E-08 5.83162106E+08 5.83133909E+08  250.46496      27946.777    
 3.45055323E-06 1.15191223E-08 5.95236110E+08 5.95207312E+08  257.53057      28540.308    
 3.47366865E-06 1.15962894E-08 6.07023753E+08 6.06994378E+08  264.32307      29110.867    
 3.49693891E-06 1.16739735E-08 6.19241243E+08 6.19211276E+08  271.46826      29695.252    
 3.52036506E-06 1.17521780E-08 6.31858713E+08 6.31828144E+08  278.94585      30290.153    
 3.54394814E-06 1.18309064E-08 6.44335623E+08 6.44304463E+08  286.27087      30873.547    
 3.56768921E-06 1.19101621E-08 6.57582564E+08 6.57550755E+08  294.26334      31515.005    
 3.59158932E-06 1.19899488E-08 6.70695827E+08 6.70663359E+08  302.10944      32166.167    
 3.61564954E-06 1.20702701E-08 6.84097880E+08 6.84064746E+08  310.18874      32823.849    
 3.63987094E-06 1.21511293E-08 6.98131044E+08 6.98097222E+08  318.82194      33503.415    
 3.66425460E-06 1.22325303E-08 7.11915219E+08 7.11880729E+08  327.19507      34162.129    
 3.68880161E-06 1.23144766E-08 7.26448177E+08 7.26412994E+08  336.23512      34847.309    
 3.71351306E-06 1.23969718E-08 7.41034927E+08 7.40999051E+08  345.29711      35530.163    
 3.73839005E-06 1.24800197E-08 7.55735473E+08 7.55698873E+08  354.43169      36245.814    
 3.76343369E-06 1.25636239E-08 7.71341987E+08 7.71304601E+08  364.39793      37022.239    
 3.78864510E-06 1.26477882E-08 7.86570072E+08 7.86531930E+08  373.96912      37768.115    
 3.81402541E-06 1.27325163E-08 8.02512979E+08 8.02474055E+08  384.19308      38540.048    
 3.83957574E-06 1.28178120E-08 8.18737568E+08 8.18697858E+08  394.65807      39314.580    
 3.86529723E-06 1.29036791E-08 8.34897259E+08 8.34856777E+08  405.02011      40077.151    
 3.89119103E-06 1.29901214E-08 8.52180160E+08 8.52138857E+08  416.45282      40887.352    
 3.91725829E-06 1.30771428E-08 8.69039121E+08 8.68996979E+08  427.42915      41714.546    
 3.94350018E-06 1.31647472E-08 8.86527699E+08 8.86484678E+08  438.99091      42582.704    
 3.96991787E-06 1.32529384E-08 9.04572609E+08 9.04528691E+08  451.07466      43467.296    
 3.99651253E-06 1.33417205E-08 9.22424431E+08 9.22379637E+08  462.91934      44330.780    
 4.02328535E-06 1.34310972E-08 9.41385030E+08 9.41339318E+08  475.85181      45235.807    
 4.05023752E-06 1.35210728E-08 9.60138315E+08 9.60091707E+08  488.53076      46119.195    
 4.07737024E-06 1.36116511E-08 9.79321157E+08 9.79273633E+08  501.60404      47022.985    
 4.10468473E-06 1.37028361E-08 9.99389012E+08 9.99340484E+08  515.55529      48012.120    
 4.13218219E-06 1.37946320E-08 1.01910969E+09 1.01906018E+09  529.09472      48989.418    
