 OPTXAGNF AGN Spectrum Model Parameters: BLS, Astar 0.0                          
 M_BH:  5.0000E+07 M_0            L  :  0.1000     L/Ledd 
 D   :  1.5000E+18 cm             z  :   0.000     redshift 
 Rcor:   60.00     Rg             Ro :   4.000     Rg 
 C_T :  0.2000     keV            Tau:   15.00     Optical Depth 
 gam :   1.800     (-slope)       fpl:  0.5000     Fraction 
 E              0.5DeltaE      E.FE total     E.FE Disk      E.FE Compton   E.FE NonThermal
 (keV)          (keV)          E.E/cm2/s/E    E.E/cm2/s/E    E.E/cm2/s/E    E.E/cm2/s/E    
 1.00334952E-06 3.34952256E-09  12417468.      12416632.      3.1933980      832.97644    
 1.01007101E-06 3.37196116E-09  12663423.      12662570.      3.2772932      849.67549    
 1.01683752E-06 3.39455008E-09  12919731.      12918861.      3.3662476      866.87314    
 1.02364936E-06 3.41729032E-09  13183108.      13182220.      3.4586229      884.29360    
 1.03050683E-06 3.44018290E-09  13444179.      13443274.      3.5494516      901.52136    
 1.03741024E-06 3.46322884E-09  13722172.      13721248.      3.6489447      920.60824    
 1.04435990E-06 3.48642917E-09  13995913.      13994969.      3.7458599      939.66785    
 1.05135611E-06 3.50978492E-09  14277176.      14276214.      3.8464490      959.02604    
 1.05839920E-06 3.53329712E-09  14570242.      14569259.      3.9531072      978.92631    
 1.06548946E-06 3.55696684E-09  14858783.      14857781.      4.0569343      998.26110    
 1.07262722E-06 3.58079512E-09  15163881.      15162858.      4.1694744      1018.4271    
 1.07981280E-06 3.60478303E-09  15468526.      15467483.      4.2814157      1038.5895    
 1.08704652E-06 3.62893164E-09  15777159.      15776095.      4.3951499      1059.8325    
 1.09432869E-06 3.65324201E-09  16103240.      16102153.      4.5182850      1082.5799    
 1.10165965E-06 3.67771524E-09  16422139.      16421030.      4.6369707      1104.4758    
 1.10903971E-06 3.70235243E-09  16756970.      16755838.      4.7642563      1127.1987    
 1.11646922E-06 3.72715465E-09  17095988.      17094833.      4.8935375      1149.8799    
 1.12394850E-06 3.75212303E-09  17434636.      17433458.      5.0221211      1172.2753    
 1.13147788E-06 3.77725867E-09  17797427.      17796226.      5.1642624      1196.2876    
 1.13905770E-06 3.80256270E-09  18149876.      18148650.      5.2999328      1220.7180    
 1.14668830E-06 3.82803623E-09  18517320.      18516068.      5.4438819      1246.3031    
 1.15437002E-06 3.85368042E-09  18894565.      18893287.      5.5931709      1272.2076    
 1.16210319E-06 3.87949640E-09  19268668.      19267365.      5.7400534      1297.5587    
 1.16988818E-06 3.90548532E-09  19667185.      19665855.      5.9010535      1324.2003    
 1.17772531E-06 3.93164835E-09  20059265.      20057909.      6.0576756      1350.0770    
 1.18561494E-06 3.95798663E-09  20462475.      20461092.      6.2204534      1376.8378    
 1.19355743E-06 3.98450137E-09  20882232.      20880820.      6.3928260      1406.1009    
 1.20155313E-06 4.01119372E-09  21295689.      21294247.      6.5607286      1434.8092    
 1.20960239E-06 4.03806489E-09  21733054.      21731582.      6.7428420      1464.8374    
 1.21770557E-06 4.06511607E-09  22169388.      22167887.      6.9237487      1494.3583    
 1.22586303E-06 4.09234846E-09  22611824.      22610293.      7.1077992      1523.9346    
 1.23407514E-06 4.11976329E-09  23078854.      23077292.      7.3068016      1554.6846    
 1.24234227E-06 4.14736177E-09  23535796.      23534204.      7.4987321      1585.2287    
 1.25066478E-06 4.17514513E-09  24015773.      24014147.      7.7047078      1618.7268    
 1.25904304E-06 4.20311462E-09  24501325.      24499665.      7.9136385      1652.4356    
 1.26747742E-06 4.23127147E-09  24986780.      24985086.      8.1217200      1685.7037    
 1.27596831E-06 4.25961695E-09  25506376.      25504647.      8.3514401      1720.8463    
 1.28451608E-06 4.28815232E-09  26011376.      26009612.      8.5708368      1754.5435    
 1.29312111E-06 4.31687884E-09  26538086.      26536288.      8.8037787      1789.2378    
 1.30178379E-06 4.34579781E-09  27078371.      27076537.      9.0450450      1825.5971    
 1.31050450E-06 4.37491051E-09  27614392.      27612519.      9.2825730      1862.9703    
 1.31928362E-06 4.40421823E-09  28185627.      28183715.      9.5431020      1902.6597    
 1.32812156E-06 4.43372228E-09  28747150.      28745199.      9.7962132      1941.0690    
 1.33701871E-06 4.46342399E-09  29325119.      29323128.      10.059625      1980.1356    
 1.34597546E-06 4.49332467E-09  29926270.      29924239.      10.338199      2020.1871    
 1.35499221E-06 4.52342565E-09  30518653.      30516584.      10.609718      2059.2542    
 1.36406936E-06 4.55372829E-09  31145556.      31143444.      10.904414      2101.6197    
 1.37320733E-06 4.58423392E-09  31770439.      31768283.      11.196772      2145.2777    
 1.38240650E-06 4.61494391E-09  32404620.      32402420.      11.494610      2189.2335    
 1.39166731E-06 4.64585962E-09  33073454.      33071207.      11.816222      2234.9976    
 1.40099015E-06 4.67698245E-09  33728125.      33725834.      12.126597      2279.1766    
 1.41037545E-06 4.70831376E-09  34416086.      34413749.      12.459908      2324.9988    
 1.41982361E-06 4.73985497E-09  35111429.      35109045.      12.797557      2370.8718    
 1.42933508E-06 4.77160747E-09  35807251.      35804820.      13.134284      2418.0883    
 1.43891026E-06 4.80357269E-09  36551341.      36548857.      13.505541      2470.2024    
 1.44854958E-06 4.83575204E-09  37274843.      37272309.      13.860331      2520.2300    
 1.45825348E-06 4.86814696E-09  38029772.      38027186.      14.237281      2571.8417    
 1.46802239E-06 4.90075889E-09  38803473.      38800834.      14.627189      2623.9913    
 1.47785673E-06 4.93358930E-09  39571396.      39568706.      15.011299      2675.1391    
 1.48775696E-06 4.96663964E-09  40390105.      40387360.      15.432882      2729.1415    
 1.49772351E-06 4.99991138E-09  41194203.      41191403.      15.841922      2784.1180    
 1.50775683E-06 5.03340601E-09  42022576.      42019718.      16.268181      2842.0336    
 1.51785736E-06 5.06712502E-09  42883410.      42880492.      16.718383      2901.6097    
 1.52802556E-06 5.10106992E-09  43732058.      43729081.      17.157461      2959.5291    
 1.53826187E-06 5.13524222E-09  44630527.      44627490.      17.634333      3020.0605    
 1.54856676E-06 5.16964344E-09  45525321.      45522223.      18.106801      3079.5291    
 1.55894067E-06 5.20427512E-09  46434230.      46431072.      18.588770      3139.6246    
 1.56938409E-06 5.23913879E-09  47391947.      47388722.      19.108529      3205.4152    
 1.57989746E-06 5.27423602E-09  48329795.      48326504.      19.610439      3270.9532    
 1.59048127E-06 5.30956836E-09  49315745.      49312386.      20.149800      3339.1523    
 1.60113597E-06 5.34513740E-09  50311401.      50307973.      20.695464      3407.0312    
 1.61186206E-06 5.38094472E-09  51308628.      51305132.      21.240367      3474.2017    
 1.62265999E-06 5.41699191E-09  52374061.      52370494.      21.840361      3544.8852    
 1.63353026E-06 5.45328058E-09  53410467.      53406831.      22.414094      3613.6286    
 1.64447336E-06 5.48981235E-09  54492357.      54488646.      23.024073      3688.1801    
 1.65548976E-06 5.52658885E-09  55600172.      55596383.      23.654195      3765.7102    
 1.66657996E-06 5.56361172E-09  56700194.      56696328.      24.275341      3841.6415    
 1.67774445E-06 5.60088261E-09  57873437.      57869490.      24.957531      3921.6205    
 1.68898374E-06 5.63840317E-09  59024747.      59020723.      25.618556      3999.0145    
 1.70029832E-06 5.67617509E-09  60211847.      60207743.      26.308329      4077.8347    
 1.71168869E-06 5.71420004E-09  61444367.      61440180.      27.035894      4159.6248    
 1.72315537E-06 5.75247973E-09  62659974.      62655703.      27.745926      4243.8500    
 1.73469887E-06 5.79101585E-09  63947475.      63943112.      28.517587      4333.9862    
 1.74631969E-06 5.82981012E-09  65228597.      65224145.      29.281117      4422.3072    
 1.75801837E-06 5.86886429E-09  66531073.      66526532.      30.061044      4511.0224    
 1.76979541E-06 5.90818007E-09  67902252.      67897618.      30.901022      4603.0935    
 1.78165135E-06 5.94775924E-09  69245569.      69240845.      31.712659      4692.2272    
 1.79358672E-06 5.98760354E-09  70658373.      70653554.      32.585441      4786.0924    
 1.80560203E-06 6.02771477E-09  72083844.      72078924.      33.467262      4885.5677    
 1.81769784E-06 6.06809470E-09  73512832.      73507812.      34.349035      4985.3408    
 1.82987468E-06 6.10874514E-09  75038170.      75033044.      35.318683      5090.5748    
 1.84213310E-06 6.14966790E-09  76522603.      76517375.      36.246463      5191.4928    
 1.85447363E-06 6.19086481E-09  78072830.      78067497.      37.233520      5295.5866    
 1.86689683E-06 6.23233769E-09  79658799.      79653360.      38.251835      5400.5694    
 1.87940326E-06 6.27408840E-09  81234301.      81228756.      39.256283      5505.7846    
 1.89199346E-06 6.31611880E-09  82915351.      82909687.      40.360169      5623.5506    
 1.90466801E-06 6.35843077E-09  84563562.      84557782.      41.428398      5738.4275    
 1.91742747E-06 6.40102618E-09  86264488.      86258590.      42.544582      5855.6232    
 1.93027240E-06 6.44390694E-09  88028916.      88022897.      43.720376      5975.5136    
 1.94320339E-06 6.48707497E-09  89769889.      89763752.      44.868557      6092.3469    
 1.95622099E-06 6.53053217E-09  91614569.      91608309.      46.117224      6214.3500    
 1.96932581E-06 6.57428050E-09  93448526.      93442141.      47.351111      6337.8597    
 1.98251841E-06 6.61832191E-09  95314697.      95308180.      48.613186      6468.4093    
 1.99579939E-06 6.66265834E-09  97277533.      97270878.      49.970652      6605.4144    
 2.00916934E-06 6.70729179E-09  99201331.      99194542.      51.283134      6737.7110    
 2.02262885E-06 6.75222424E-09 1.01225473E+08 1.01218545E+08  52.695434      6875.2125    
 2.03617854E-06 6.79745770E-09 1.03265969E+08 1.03258903E+08  54.120490      7011.8956    
 2.04981899E-06 6.84299417E-09 1.05313315E+08 1.05306112E+08  55.547375      7147.4864    
 2.06355082E-06 6.88883570E-09 1.07496714E+08 1.07489362E+08  57.114406      7295.1983    
 2.07737464E-06 6.93498432E-09 1.09622505E+08 1.09615002E+08  58.614695      7444.1820    
 2.09129106E-06 6.98144209E-09 1.11843447E+08 1.11835788E+08  60.211918      7599.0355    
 2.10530072E-06 7.02821109E-09 1.14113588E+08 1.14105771E+08  61.857558      7755.0970    
 2.11940422E-06 7.07529339E-09 1.16369731E+08 1.16361759E+08  63.481823      7908.2568    
 2.13360221E-06 7.12269110E-09 1.18777954E+08 1.18769819E+08  65.268056      8069.4054    
 2.14789530E-06 7.17040633E-09 1.21137118E+08 1.21128826E+08  66.994317      8225.7992    
 2.16228415E-06 7.21844121E-09 1.23573851E+08 1.23565391E+08  68.800494      8391.3427    
 2.17676939E-06 7.26679787E-09 1.26099306E+08 1.26090666E+08  70.700635      8568.7728    
 2.19135167E-06 7.31547848E-09 1.28592283E+08 1.28583468E+08  72.557322      8742.2019    
 2.20603163E-06 7.36448520E-09 1.31234820E+08 1.31225821E+08  74.577835      8923.8730    
 2.22080994E-06 7.41382021E-09 1.33859723E+08 1.33850545E+08  76.571809      9101.7655    
 2.23568724E-06 7.46348573E-09 1.36533065E+08 1.36523705E+08  78.614068      9280.7839    
 2.25066421E-06 7.51348396E-09 1.39342337E+08 1.39332789E+08  80.807811      9466.9100    
 2.26574151E-06 7.56381713E-09 1.42096960E+08 1.42087222E+08  82.930174      9655.2611    
 2.28091982E-06 7.61448748E-09 1.44996449E+08 1.44986505E+08  85.215476      9859.1068    
 2.29619980E-06 7.66549727E-09 1.47916815E+08 1.47906665E+08  87.518390      10062.180    
 2.31158215E-06 7.71684879E-09 1.50849581E+08 1.50839227E+08  89.827351      10263.582    
 2.32706754E-06 7.76854430E-09 1.53974367E+08 1.53963799E+08  92.359770      10475.231    
 2.34265667E-06 7.82058613E-09 1.57018048E+08 1.57007274E+08  94.785822      10678.782    
 2.35835023E-06 7.87297659E-09 1.60199280E+08 1.60188292E+08  97.370361      10889.895    
 2.37414893E-06 7.92571802E-09 1.63448122E+08 1.63436909E+08  100.02975      11113.376    
 2.39005346E-06 7.97881276E-09 1.66678353E+08 1.66666910E+08  102.65628      11340.257    
 2.40606454E-06 8.03226319E-09 1.70127658E+08 1.70115972E+08  105.54660      11580.339    
 2.42218287E-06 8.08607168E-09 1.73503825E+08 1.73491905E+08  108.33621      11811.781    
 2.43840918E-06 8.14024064E-09 1.76993997E+08 1.76981838E+08  111.25888      12048.191    
 2.45474420E-06 8.19477248E-09 1.80607999E+08 1.80595595E+08  114.32956      12289.460    
 2.47118864E-06 8.24966963E-09 1.84177098E+08 1.84164454E+08  117.33191      12526.903    
 2.48774324E-06 8.30493454E-09 1.87961817E+08 1.87948908E+08  120.60134      12788.364    
 2.50440875E-06 8.36056967E-09 1.91718056E+08 1.91704880E+08  123.82358      13052.513    
 2.52118589E-06 8.41657750E-09 1.95546952E+08 1.95533506E+08  127.12827      13318.560    
 2.53807543E-06 8.47296053E-09 1.99566883E+08 1.99553158E+08  130.67344      13594.177    
 2.55507811E-06 8.52972128E-09 2.03510350E+08 2.03496355E+08  134.10539      13861.010    
 2.57219470E-06 8.58686227E-09 2.07662858E+08 2.07648582E+08  137.80328      14138.200    
 2.58942595E-06 8.64438604E-09 2.11841622E+08 2.11827064E+08  141.52478      14416.694    
 2.60677263E-06 8.70229518E-09 2.16041862E+08 2.16027008E+08  145.26105      14708.072    
 2.62423551E-06 8.76059224E-09 2.20512995E+08 2.20497823E+08  149.35354      15023.133    
 2.64181539E-06 8.81927985E-09 2.24870025E+08 2.24854547E+08  153.27655      15325.275    
 2.65951303E-06 8.87836060E-09 2.29425820E+08 2.29410025E+08  157.45866      15637.545    
 2.67732922E-06 8.93783714E-09 2.34074312E+08 2.34058199E+08  161.75624      15951.686    
 2.69526477E-06 8.99771211E-09 2.38698194E+08 2.38681767E+08  166.00341      16260.598    
 2.71332047E-06 9.05798819E-09 2.43637541E+08 2.43620780E+08  170.68022      16589.654    
 2.73149713E-06 9.11866806E-09 2.48468091E+08 2.48450988E+08  175.18812      16927.633    
 2.74979555E-06 9.17975443E-09 2.53466048E+08 2.53448589E+08  179.91737      17279.155    
 2.76821656E-06 9.24125002E-09 2.58636691E+08 2.58618868E+08  184.87961      17637.949    
 2.78676096E-06 9.30315757E-09 2.63745345E+08 2.63727168E+08  189.73449      17987.733    
 2.80542960E-06 9.36547984E-09 2.69164705E+08 2.69146156E+08  195.02472      18353.849    
 2.82422330E-06 9.42821962E-09 2.74538664E+08 2.74519752E+08  200.23176      18712.150    
 2.84314290E-06 9.49137968E-09 2.80021346E+08 2.80002061E+08  205.57919      19079.130    
 2.86218924E-06 9.55496287E-09 2.85772357E+08 2.85752662E+08  211.30822      19483.518    
 2.88136318E-06 9.61897199E-09 2.91416500E+08 2.91396404E+08  216.85775      19879.547    
 2.90066556E-06 9.68340992E-09 2.97362181E+08 2.97341666E+08  222.84130      20292.115    
 2.92009725E-06 9.74827952E-09 3.03340248E+08 3.03319318E+08  228.85514      20700.992    
 2.93965911E-06 9.81358368E-09 3.09354328E+08 3.09332986E+08  234.90093      21107.474    
 2.95935202E-06 9.87932532E-09 3.15750345E+08 3.15728570E+08  241.51446      21533.158    
 2.97917685E-06 9.94550737E-09 3.21985955E+08 3.21963753E+08  247.85802      21954.032    
 2.99913449E-06 1.00121328E-08 3.28508682E+08 3.28486015E+08  254.62509      22412.821    
 3.01922583E-06 1.00792045E-08 3.35158255E+08 3.35135114E+08  261.56988      22879.726    
 3.03945176E-06 1.01467255E-08 3.41775531E+08 3.41751924E+08  268.43759      23338.242    
 3.05981319E-06 1.02146989E-08 3.48846888E+08 3.48822790E+08  276.00496      23821.921    
 3.08031101E-06 1.02831276E-08 3.55756650E+08 3.55732079E+08  283.28943      24288.201    
 3.10094616E-06 1.03520148E-08 3.62911966E+08 3.62886910E+08  290.94185      24765.020    
 3.12171953E-06 1.04213634E-08 3.70307873E+08 3.70282307E+08  298.96075      25267.078    
 3.14263207E-06 1.04911766E-08 3.77618384E+08 3.77592296E+08  306.81109      25781.682    
 3.16368471E-06 1.05614574E-08 3.85376461E+08 3.85349819E+08  315.37104      26326.885    
 3.18487837E-06 1.06322091E-08 3.93062980E+08 3.93035797E+08  323.78530      26858.873    
 3.20621402E-06 1.07034348E-08 4.00911798E+08 4.00884070E+08  332.43802      27395.647    
 3.22769259E-06 1.07751376E-08 4.09137185E+08 4.09108894E+08  341.69604      27950.123    
 3.24931505E-06 1.08473207E-08 4.17213343E+08 4.17184504E+08  350.66959      28489.076    
 3.27108236E-06 1.09199874E-08 4.25724285E+08 4.25694856E+08  360.35139      29069.194    
 3.29299549E-06 1.09931409E-08 4.34274191E+08 4.34244148E+08  370.06942      29673.028    
 3.31505541E-06 1.10667844E-08 4.42883195E+08 4.42852538E+08  379.85219      30276.819    
 3.33726312E-06 1.11409213E-08 4.52030405E+08 4.51999104E+08  390.53957      30910.432    
 3.35961959E-06 1.12155548E-08 4.60952244E+08 4.60920323E+08  400.79702      31519.776    
 3.38212584E-06 1.12906884E-08 4.70288555E+08 4.70255994E+08  411.74662      32149.399    
 3.40478285E-06 1.13663252E-08 4.79798015E+08 4.79764808E+08  422.96905      32784.108    
 3.42759164E-06 1.14424687E-08 4.89265485E+08 4.89231619E+08  434.07400      33432.506    
 3.45055323E-06 1.15191223E-08 4.99386305E+08 4.99351709E+08  446.31828      34149.596    
 3.47366865E-06 1.15962894E-08 5.09267601E+08 5.09232301E+08  458.08932      34841.503    
 3.49693891E-06 1.16739735E-08 5.19508716E+08 5.19472695E+08  470.47150      35550.498    
 3.52036506E-06 1.17521780E-08 5.30084629E+08 5.30047873E+08  483.42966      36272.483    
 3.54394814E-06 1.18309064E-08 5.40543058E+08 5.40505584E+08  496.12344      36977.890    
 3.56768921E-06 1.19101621E-08 5.51645875E+08 5.51607646E+08  509.97376      37719.150    
 3.59158932E-06 1.19899488E-08 5.62636982E+08 5.62597980E+08  523.57046      38477.875    
 3.61564954E-06 1.20702701E-08 5.73869878E+08 5.73830067E+08  537.57123      39272.980    
 3.63987094E-06 1.21511293E-08 5.85630899E+08 5.85590248E+08  552.53179      40097.857    
 3.66425460E-06 1.22325303E-08 5.97183760E+08 5.97142296E+08  567.04169      40896.597    
 3.68880161E-06 1.23144766E-08 6.09363166E+08 6.09320856E+08  582.70722      41728.183    
 3.71351306E-06 1.23969718E-08 6.21587703E+08 6.21544554E+08  598.41074      42551.434    
 3.73839005E-06 1.24800197E-08 6.33907572E+08 6.33863582E+08  614.24004      43375.730    
 3.76343369E-06 1.25636239E-08 6.46985411E+08 6.46940496E+08  631.51040      44283.520    
 3.78864510E-06 1.26477882E-08 6.59746909E+08 6.59701073E+08  648.09623      45187.492    
 3.81402541E-06 1.27325163E-08 6.73106459E+08 6.73059669E+08  665.81313      46124.178    
 3.83957574E-06 1.28178120E-08 6.86701753E+08 6.86654005E+08  683.94767      47063.945    
 3.86529723E-06 1.29036791E-08 7.00242960E+08 7.00194270E+08  701.90382      47988.604    
 3.89119103E-06 1.29901214E-08 7.14723670E+08 7.14673985E+08  721.71512      48962.926    
 3.91725829E-06 1.30771428E-08 7.28849996E+08 7.28799345E+08  740.73565      49910.750    
 3.94350018E-06 1.31647472E-08 7.43503069E+08 7.43451376E+08  760.77054      50932.169    
 3.96991787E-06 1.32529384E-08 7.58621558E+08 7.58568770E+08  781.70990      52005.661    
 3.99651253E-06 1.33417205E-08 7.73578801E+08 7.73524946E+08  802.23499      53052.651    
 4.02328535E-06 1.34310972E-08 7.89463334E+08 7.89408358E+08  824.64489      54151.230    
 4.05023752E-06 1.35210728E-08 8.05174727E+08 8.05118658E+08  846.61550      55222.633    
 4.07737024E-06 1.36116511E-08 8.21245487E+08 8.21188313E+08  869.26937      56305.459    
 4.10468473E-06 1.37028361E-08 8.38056314E+08 8.37997987E+08  893.44446      57433.468    
 4.13218219E-06 1.37946320E-08 8.54577189E+08 8.54517679E+08  916.90598      58593.716    
