 OPTXAGNF AGN Spectrum Model Parameters: NLS, Astar 0.0                          
 M_BH:  5.0000E+07 M_0            L  :  0.2000     L/Ledd 
 D   :  1.5000E+18 cm             z  :   0.000     redshift 
 Rcor:   40.00     Rg             Ro :   4.000     Rg 
 C_T :  0.2000     keV            Tau:   15.00     Optical Depth 
 gam :   2.200     (-slope)       fpl:  0.2000     Fraction 
 E              0.5DeltaE      E.FE total     E.FE Disk      E.FE Compton   E.FE NonThermal
 (keV)          (keV)          E.E/cm2/s/E    E.E/cm2/s/E    E.E/cm2/s/E    E.E/cm2/s/E    
 1.00334952E-06 3.34952256E-09  14897715.      14897415.     0.37357143      299.23336    
 1.01007101E-06 3.37196116E-09  15192867.      15192561.     0.38338611      305.79538    
 1.01683752E-06 3.39455008E-09  15500449.      15500136.     0.39379267      312.60576    
 1.02364936E-06 3.41729032E-09  15816517.      15816197.     0.40459946      319.51277    
 1.03050683E-06 3.44018290E-09  16129815.      16129489.     0.41522531      326.24738    
 1.03741024E-06 3.46322884E-09  16463429.      16463096.     0.42686484      333.35574    
 1.04435990E-06 3.48642917E-09  16791937.      16791596.     0.43820277      340.26078    
 1.05135611E-06 3.50978492E-09  17129476.      17129128.     0.44997054      347.55836    
 1.05839920E-06 3.53329712E-09  17481185.      17480829.     0.46244835      355.42057    
 1.06548946E-06 3.55696684E-09  17827460.      17827097.     0.47459495      363.04471    
 1.07262722E-06 3.58079512E-09  18193615.      18193244.     0.48776091      371.04362    
 1.07981280E-06 3.60478303E-09  18559224.      18558845.     0.50085683      378.89804    
 1.08704652E-06 3.62893164E-09  18929620.      18929233.     0.51416251      386.75545    
 1.09432869E-06 3.65324201E-09  19320965.      19320570.     0.52856804      395.00418    
 1.10165965E-06 3.67771524E-09  19703686.      19703282.     0.54245303      403.31540    
 1.10903971E-06 3.70235243E-09  20105537.      20105124.     0.55734416      412.28316    
 1.11646922E-06 3.72715465E-09  20512413.      20511991.     0.57246879      421.25315    
 1.12394850E-06 3.75212303E-09  20918844.      20918414.     0.58751180      430.08272    
 1.13147788E-06 3.77725867E-09  21354267.      21353826.     0.60414100      439.45474    
 1.13905770E-06 3.80256270E-09  21777266.      21776817.     0.62001314      448.40202    
 1.14668830E-06 3.82803623E-09  22218270.      22217811.     0.63685386      457.69040    
 1.15437002E-06 3.85368042E-09  22671043.      22670575.     0.65431934      467.59694    
 1.16210319E-06 3.87949640E-09  23120043.      23119564.     0.67150329      477.57224    
 1.16988818E-06 3.90548532E-09  23598359.      23597870.     0.69033894      488.13493    
 1.17772531E-06 3.93164835E-09  24068944.      24068444.     0.70866239      498.34064    
 1.18561494E-06 3.95798663E-09  24552892.      24552382.     0.72770604      508.71780    
 1.19355743E-06 3.98450137E-09  25056709.      25056189.     0.74787228      519.38007    
 1.20155313E-06 4.01119372E-09  25552957.      25552427.     0.76751554      529.83795    
 1.20960239E-06 4.03806489E-09  26077918.      26077376.     0.78882144      541.36462    
 1.21770557E-06 4.06511607E-09  26601640.      26601086.     0.80998617      553.01779    
 1.22586303E-06 4.09234846E-09  27132688.      27132123.     0.83151872      564.68457    
 1.23407514E-06 4.11976329E-09  27693271.      27692694.     0.85480065      576.86598    
 1.24234227E-06 4.14736177E-09  28241737.      28241147.     0.87725517      588.59194    
 1.25066478E-06 4.17514513E-09  28817863.      28817262.     0.90135298      600.76968    
 1.25904304E-06 4.20311462E-09  29400684.      29400070.     0.92579652      613.08962    
 1.26747742E-06 4.23127147E-09  29983386.      29982759.     0.95014074      625.89141    
 1.27596831E-06 4.25961695E-09  30607093.      30606453.     0.97701667      639.81672    
 1.28451608E-06 4.28815232E-09  31213267.      31212613.      1.0026848      653.09288    
 1.29312111E-06 4.31687884E-09  31845515.      31844848.      1.0299377      666.79863    
 1.30178379E-06 4.34579781E-09  32494065.      32493384.      1.0581646      680.66277    
 1.31050450E-06 4.37491051E-09  33137487.      33136792.      1.0859541      694.23798    
 1.31928362E-06 4.40421823E-09  33823206.      33822496.      1.1164347      708.74656    
 1.32812156E-06 4.43372228E-09  34497257.      34496532.      1.1460475      723.66857    
 1.33701871E-06 4.46342399E-09  35191059.      35190319.      1.1768655      739.08471    
 1.34597546E-06 4.49332467E-09  35912707.      35911951.      1.2094575      754.92244    
 1.35499221E-06 4.52342565E-09  36623820.      36623048.      1.2412241      770.29116    
 1.36406936E-06 4.55372829E-09  37376393.      37375606.      1.2757024      786.37001    
 1.37320733E-06 4.58423392E-09  38126536.      38125732.      1.3099072      802.16583    
 1.38240650E-06 4.61494391E-09  38887845.      38887025.      1.3447532      818.28636    
 1.39166731E-06 4.64585962E-09  39690780.      39689942.      1.3823808      836.18873    
 1.40099015E-06 4.67698245E-09  40476698.      40475843.      1.4186937      853.58976    
 1.41037545E-06 4.70831376E-09  41302605.      41301732.      1.4576903      871.69441    
 1.41982361E-06 4.73985497E-09  42137376.      42136485.      1.4971944      889.72443    
 1.42933508E-06 4.77160747E-09  42972718.      42971809.      1.5365906      907.53933    
 1.43891026E-06 4.80357269E-09  43866041.      43865113.      1.5800271      926.33067    
 1.44854958E-06 4.83575204E-09  44734627.      44733680.      1.6215369      944.87323    
 1.45825348E-06 4.86814696E-09  45640967.      45640000.      1.6656394      965.04389    
 1.46802239E-06 4.90075889E-09  46569856.      46568868.      1.7112582      985.63747    
 1.47785673E-06 4.93358930E-09  47491800.      47490792.      1.7561986      1005.7817    
 1.48775696E-06 4.96663964E-09  48474756.      48473727.      1.8055235      1027.0162    
 1.49772351E-06 4.99991138E-09  49440151.      49439101.      1.8533810      1047.5611    
 1.50775683E-06 5.03340601E-09  50434705.      50433634.      1.9032531      1068.4724    
 1.51785736E-06 5.06712502E-09  51468257.      51467164.      1.9559268      1090.6829    
 1.52802556E-06 5.10106992E-09  52487164.      52486049.      2.0072989      1113.3366    
 1.53826187E-06 5.13524222E-09  53565930.      53564790.      2.0630932      1137.2568    
 1.54856676E-06 5.16964344E-09  54640274.      54639111.      2.1183723      1160.7039    
 1.55894067E-06 5.20427512E-09  55731574.      55730387.      2.1747631      1184.2325    
 1.56938409E-06 5.23913879E-09  56881512.      56880301.      2.2355756      1208.6894    
 1.57989746E-06 5.27423602E-09  58007567.      58006333.      2.2942997      1232.3774    
 1.59048127E-06 5.30956836E-09  59191420.      59190160.      2.3574060      1257.9090    
 1.60113597E-06 5.34513740E-09  60386932.      60385645.      2.4212497      1284.5598    
 1.61186206E-06 5.38094472E-09  61584326.      61583012.      2.4850045      1311.0143    
 1.62265999E-06 5.41699191E-09  62863677.      62862335.      2.5552055      1338.9649    
 1.63353026E-06 5.45328058E-09  64108140.      64106772.      2.6223338      1365.7345    
 1.64447336E-06 5.48981235E-09  65407251.      65405855.      2.6937032      1393.3465    
 1.65548976E-06 5.52658885E-09  66737509.      66736085.      2.7674296      1421.3433    
 1.66657996E-06 5.56361172E-09  68058397.      68056944.      2.8401057      1449.9385    
 1.67774445E-06 5.60088261E-09  69467275.      69465790.      2.9199249      1481.4191    
 1.68898374E-06 5.63840317E-09  70849788.      70848273.      2.9972674      1511.9069    
 1.70029832E-06 5.67617509E-09  72275307.      72273761.      3.0779739      1542.9862    
 1.71168869E-06 5.71420004E-09  73755406.      73753828.      3.1631025      1574.8159    
 1.72315537E-06 5.75247973E-09  75215164.      75213555.      3.2461796      1605.8059    
 1.73469887E-06 5.79101585E-09  76761321.      76759680.      3.3364682      1638.3586    
 1.74631969E-06 5.82981012E-09  78299806.      78298131.      3.4258054      1671.9057    
 1.75801837E-06 5.86886429E-09  79863950.      79862240.      3.5170614      1706.7660    
 1.76979541E-06 5.90818007E-09  81510663.      81508916.      3.6153442      1743.1374    
 1.78165135E-06 5.94775924E-09  83123879.      83122097.      3.7103107      1778.2275    
 1.79358672E-06 5.98760354E-09  84820608.      84818789.      3.8124322      1814.6946    
 1.80560203E-06 6.02771477E-09  86532546.      86530691.      3.9156115      1850.9714    
 1.81769784E-06 6.06809470E-09  88248701.      88246810.      4.0187851      1887.1480    
 1.82987468E-06 6.10874514E-09  90080668.      90078736.      4.1322417      1927.3034    
 1.84213310E-06 6.14966790E-09  91863454.      91861483.      4.2407990      1967.0280    
 1.85447363E-06 6.19086481E-09  93725321.      93723309.      4.3562929      2008.0890    
 1.86689683E-06 6.23233769E-09  95630146.      95628092.      4.4754445      2049.5086    
 1.87940326E-06 6.27408840E-09  97522374.      97520279.      4.5929735      2090.1314    
 1.89199346E-06 6.31611880E-09  99541468.      99539331.      4.7221387      2132.8702    
 1.90466801E-06 6.35843077E-09 1.01521075E+08 1.01518895E+08  4.8471314      2174.7214    
 1.91742747E-06 6.40102618E-09 1.03564045E+08 1.03561820E+08  4.9777358      2219.6131    
 1.93027240E-06 6.44390694E-09 1.05683350E+08 1.05681078E+08  5.1153157      2266.9351    
 1.94320339E-06 6.48707497E-09 1.07774442E+08 1.07772124E+08  5.2496646      2312.9328    
 1.95622099E-06 6.53053217E-09 1.09990208E+08 1.09987842E+08  5.3957724      2361.1055    
 1.96932581E-06 6.57428050E-09 1.12193065E+08 1.12190651E+08  5.5401506      2408.3112    
 1.98251841E-06 6.61832191E-09 1.14434632E+08 1.14432170E+08  5.6878275      2455.7741    
 1.99579939E-06 6.66265834E-09 1.16792411E+08 1.16789899E+08  5.8466674      2505.6310    
 2.00916934E-06 6.70729179E-09 1.19103239E+08 1.19100676E+08  6.0002432      2556.7299    
 2.02262885E-06 6.75222424E-09 1.21534708E+08 1.21532091E+08  6.1655000      2610.9900    
 2.03617854E-06 6.79745770E-09 1.23985828E+08 1.23983157E+08  6.3322496      2664.8778    
 2.04981899E-06 6.84299417E-09 1.26445167E+08 1.26442442E+08  6.4992134      2718.2707    
 2.06355082E-06 6.88883570E-09 1.29068087E+08 1.29065306E+08  6.6825776      2774.4370    
 2.07737464E-06 6.93498432E-09 1.31621709E+08 1.31618874E+08  6.8581316      2828.4244    
 2.09129106E-06 6.98144209E-09 1.34289734E+08 1.34286842E+08  7.0450291      2884.9279    
 2.10530072E-06 7.02821109E-09 1.37016911E+08 1.37013959E+08  7.2375929      2945.6607    
 2.11940422E-06 7.07529339E-09 1.39727236E+08 1.39724223E+08  7.4276553      3005.9574    
 2.13360221E-06 7.12269110E-09 1.42620436E+08 1.42617359E+08  7.6366723      3069.6080    
 2.14789530E-06 7.17040633E-09 1.45454619E+08 1.45451480E+08  7.8386711      3131.0196    
 2.16228415E-06 7.21844121E-09 1.48382060E+08 1.48378859E+08  8.0500223      3193.6949    
 2.17676939E-06 7.26679787E-09 1.51416179E+08 1.51412913E+08  8.2723699      3257.7142    
 2.19135167E-06 7.31547848E-09 1.54411216E+08 1.54407886E+08  8.4896323      3321.5609    
 2.20603163E-06 7.36448520E-09 1.57586116E+08 1.57582715E+08  8.7260671      3392.4007    
 2.22080994E-06 7.41382021E-09 1.60739788E+08 1.60736317E+08  8.9593961      3462.4915    
 2.23568724E-06 7.46348573E-09 1.63951697E+08 1.63948154E+08  9.1983761      3533.0203    
 2.25066421E-06 7.51348396E-09 1.67327083E+08 1.67323467E+08  9.4550841      3606.1509    
 2.26574151E-06 7.56381713E-09 1.70636702E+08 1.70633015E+08  9.7034389      3676.9201    
 2.28091982E-06 7.61448748E-09 1.74120539E+08 1.74116779E+08  9.9708625      3750.4059    
 2.29619980E-06 7.66549727E-09 1.77629468E+08 1.77625632E+08  10.240347      3825.7668    
 2.31158215E-06 7.71684879E-09 1.81153291E+08 1.81149376E+08  10.510540      3904.2940    
 2.32706754E-06 7.76854430E-09 1.84908079E+08 1.84904081E+08  10.806884      3987.8869    
 2.34265667E-06 7.82058613E-09 1.88565275E+08 1.88561196E+08  11.090781      4068.0210    
 2.35835023E-06 7.87297659E-09 1.92387914E+08 1.92383752E+08  11.393225      4150.8024    
 2.37414893E-06 7.92571802E-09 1.96291851E+08 1.96287605E+08  11.704431      4234.1519    
 2.39005346E-06 7.97881276E-09 2.00173358E+08 2.00169030E+08  12.011789      4316.1113    
 2.40606454E-06 8.03226319E-09 2.04318402E+08 2.04313985E+08  12.350022      4405.5091    
 2.42218287E-06 8.08607168E-09 2.08375430E+08 2.08370921E+08  12.676467      4496.1488    
 2.43840918E-06 8.14024064E-09 2.12569588E+08 2.12564985E+08  13.018485      4589.3331    
 2.45474420E-06 8.19477248E-09 2.16912705E+08 2.16908007E+08  13.377826      4684.5281    
 2.47118864E-06 8.24966963E-09 2.21201757E+08 2.21196966E+08  13.729170      4777.2985    
 2.48774324E-06 8.30493454E-09 2.25750201E+08 2.25745313E+08  14.111772      4874.3504    
 2.50440875E-06 8.36056967E-09 2.30264335E+08 2.30259350E+08  14.488852      4969.7243    
 2.52118589E-06 8.41657750E-09 2.34865859E+08 2.34860775E+08  14.875582      5069.3614    
 2.53807543E-06 8.47296053E-09 2.39697229E+08 2.39692037E+08  15.290456      5177.6085    
 2.55507811E-06 8.52972128E-09 2.44436551E+08 2.44431252E+08  15.692081      5282.6551    
 2.57219470E-06 8.58686227E-09 2.49427386E+08 2.49421978E+08  16.124831      5392.0178    
 2.58942595E-06 8.64438604E-09 2.54449778E+08 2.54444261E+08  16.560344      5500.5037    
 2.60677263E-06 8.70229518E-09 2.59497951E+08 2.59492326E+08  16.997586      5608.2657    
 2.62423551E-06 8.76059224E-09 2.64872087E+08 2.64866348E+08  17.476521      5721.7332    
 2.64181539E-06 8.81927985E-09 2.70108865E+08 2.70103011E+08  17.935620      5835.9360    
 2.65951303E-06 8.87836060E-09 2.75584817E+08 2.75578840E+08  18.425044      5958.6059    
 2.67732922E-06 8.93783714E-09 2.81172297E+08 2.81166196E+08  18.927985      6082.4868    
 2.69526477E-06 8.99771211E-09 2.86730104E+08 2.86723880E+08  19.425024      6204.0987    
 2.71332047E-06 9.05798819E-09 2.92667563E+08 2.92661211E+08  19.972350      6332.3045    
 2.73149713E-06 9.11866806E-09 2.98473998E+08 2.98467521E+08  20.499907      6456.0284    
 2.74979555E-06 9.17975443E-09 3.04481875E+08 3.04475271E+08  21.053373      6583.1195    
 2.76821656E-06 9.24125002E-09 3.10697577E+08 3.10690836E+08  21.634109      6719.4215    
 2.78676096E-06 9.30315757E-09 3.16838608E+08 3.16831729E+08  22.202279      6856.9050    
 2.80542960E-06 9.36547984E-09 3.23353609E+08 3.23346585E+08  22.821406      7001.4177    
 2.82422330E-06 9.42821962E-09 3.29813903E+08 3.29806737E+08  23.430795      7142.5769    
 2.84314290E-06 9.49137968E-09 3.36405012E+08 3.36397704E+08  24.056618      7284.8784    
 2.86218924E-06 9.55496287E-09 3.43319077E+08 3.43311620E+08  24.727106      7431.9774    
 2.88136318E-06 9.61897199E-09 3.50104414E+08 3.50096813E+08  25.376584      7575.8620    
 2.90066556E-06 9.68340992E-09 3.57252732E+08 3.57244972E+08  26.076864      7733.2512    
 2.92009725E-06 9.74827952E-09 3.64439988E+08 3.64432067E+08  26.780690      7894.4112    
 2.93965911E-06 9.81358368E-09 3.71670530E+08 3.71662448E+08  27.488258      8054.4845    
 2.95935202E-06 9.87932532E-09 3.79360887E+08 3.79352636E+08  28.262278      8222.5745    
 2.97917685E-06 9.94550737E-09 3.86858016E+08 3.86849603E+08  29.004700      8384.1974    
 2.99913449E-06 1.00121328E-08 3.94700766E+08 3.94692185E+08  29.796693      8551.1054    
 3.01922583E-06 1.00792045E-08 4.02696186E+08 4.02687435E+08  30.609492      8720.8184    
 3.03945176E-06 1.01467255E-08 4.10652641E+08 4.10643713E+08  31.413267      8896.8582    
 3.05981319E-06 1.02146989E-08 4.19155850E+08 4.19146730E+08  32.298941      9087.8628    
 3.08031101E-06 1.02831276E-08 4.27464378E+08 4.27455073E+08  33.151501      9271.4742    
 3.10094616E-06 1.03520148E-08 4.36068538E+08 4.36059045E+08  34.047131      9459.4291    
 3.12171953E-06 1.04213634E-08 4.44962358E+08 4.44952672E+08  34.985660      9650.9797    
 3.14263207E-06 1.04911766E-08 4.53753207E+08 4.53743333E+08  35.904460      9838.0891    
 3.16368471E-06 1.05614574E-08 4.63083021E+08 4.63072948E+08  36.906324      10036.147    
 3.18487837E-06 1.06322091E-08 4.72326573E+08 4.72316293E+08  37.891135      10242.441    
 3.20621402E-06 1.07034348E-08 4.81765514E+08 4.81755022E+08  38.903861      10453.935    
 3.22769259E-06 1.07751376E-08 4.91657960E+08 4.91647247E+08  39.987443      10672.781    
 3.24931505E-06 1.08473207E-08 5.01370543E+08 5.01359617E+08  41.037725      10884.652    
 3.27108236E-06 1.09199874E-08 5.11606745E+08 5.11595598E+08  42.170916      11105.093    
 3.29299549E-06 1.09931409E-08 5.21889753E+08 5.21878386E+08  43.308350      11323.534    
 3.31505541E-06 1.10667844E-08 5.32243835E+08 5.32232246E+08  44.453362      11544.555    
 3.33726312E-06 1.11409213E-08 5.43246226E+08 5.43234389E+08  45.704270      11791.124    
 3.35961959E-06 1.12155548E-08 5.53976984E+08 5.53964906E+08  46.904850      12031.016    
 3.38212584E-06 1.12906884E-08 5.65206981E+08 5.65194654E+08  48.186457      12279.329    
 3.40478285E-06 1.13663252E-08 5.76645484E+08 5.76632906E+08  49.500004      12528.685    
 3.42759164E-06 1.14424687E-08 5.88033226E+08 5.88020401E+08  50.799798      12773.965    
 3.45055323E-06 1.15191223E-08 6.00208054E+08 6.00194970E+08  52.232970      13032.228    
 3.47366865E-06 1.15962894E-08 6.12094144E+08 6.12080802E+08  53.610741      13288.124    
 3.49693891E-06 1.16739735E-08 6.24413687E+08 6.24400068E+08  55.060058      13564.091    
 3.52036506E-06 1.17521780E-08 6.37136560E+08 6.37122654E+08  56.576805      13848.927    
 3.54394814E-06 1.18309064E-08 6.49717700E+08 6.49703516E+08  58.062603      14126.668    
 3.56768921E-06 1.19101621E-08 6.63075277E+08 6.63060799E+08  59.683796      14417.881    
 3.59158932E-06 1.19899488E-08 6.76298039E+08 6.76283275E+08  61.275299      14702.202    
 3.61564954E-06 1.20702701E-08 6.89812007E+08 6.89796955E+08  62.914108      14989.304    
 3.63987094E-06 1.21511293E-08 7.03962370E+08 7.03947010E+08  64.665281      15295.455    
 3.66425460E-06 1.22325303E-08 7.17861685E+08 7.17846011E+08  66.363698      15607.332    
 3.68880161E-06 1.23144766E-08 7.32516046E+08 7.32500042E+08  68.197407      15935.463    
 3.71351306E-06 1.23969718E-08 7.47224648E+08 7.47208318E+08  70.035565      16259.960    
 3.73839005E-06 1.24800197E-08 7.62047965E+08 7.62031310E+08  71.888450      16583.037    
 3.76343369E-06 1.25636239E-08 7.77784794E+08 7.77767798E+08  73.910049      16921.106    
 3.78864510E-06 1.26477882E-08 7.93140042E+08 7.93122718E+08  75.851507      17247.720    
 3.81402541E-06 1.27325163E-08 8.09216097E+08 8.09198422E+08  77.925388      17596.937    
 3.83957574E-06 1.28178120E-08 8.25576210E+08 8.25558165E+08  80.048167      17965.300    
 3.86529723E-06 1.29036791E-08 8.41870891E+08 8.41852480E+08  82.150062      18329.388    
 3.89119103E-06 1.29901214E-08 8.59298163E+08 8.59279364E+08  84.469155      18714.183    
 3.91725829E-06 1.30771428E-08 8.76297911E+08 8.76278741E+08  86.695670      19084.127    
 3.94350018E-06 1.31647472E-08 8.93932520E+08 8.93912968E+08  89.040947      19463.223    
 3.96991787E-06 1.32529384E-08 9.12128112E+08 9.12108170E+08  91.492121      19850.188    
 3.99651253E-06 1.33417205E-08 9.30129026E+08 9.30108688E+08  93.894795      20243.376    
 4.02328535E-06 1.34310972E-08 9.49248001E+08 9.49227230E+08  96.518148      20674.949    
 4.05023752E-06 1.35210728E-08 9.68157940E+08 9.68136743E+08  99.090071      21097.082    
 4.07737024E-06 1.36116511E-08 9.87501017E+08 9.87479392E+08  101.74199      21523.807    
 4.10468473E-06 1.37028361E-08 1.00773645E+09 1.00771438E+09  104.57203      21964.090    
 4.13218219E-06 1.37946320E-08 1.02762180E+09 1.02759930E+09  107.31852      22391.412    
