 OPTXAGNF AGN Spectrum Model Parameters: BLS, Astar 0.0                          
 M_BH:  5.0000E+08 M_0            L  :  2.0000E-02 L/Ledd 
 D   :  1.5000E+18 cm             z  :   0.000     redshift 
 Rcor:   60.00     Rg             Ro :   4.000     Rg 
 C_T :  0.2000     keV            Tau:   15.00     Optical Depth 
 gam :   1.800     (-slope)       fpl:  0.5000     Fraction 
 E              0.5DeltaE      E.FE total     E.FE Disk      E.FE Compton   E.FE NonThermal
 (keV)          (keV)          E.E/cm2/s/E    E.E/cm2/s/E    E.E/cm2/s/E    E.E/cm2/s/E    
 1.00334952E-06 3.34952256E-09 4.63422909E+08 4.63392410E+08  396.17342      30102.676    
 1.01007101E-06 3.37196116E-09 4.72579138E+08 4.72548017E+08  406.58003      30714.387    
 1.01683752E-06 3.39455008E-09 4.82119077E+08 4.82087306E+08  417.61408      31353.654    
 1.02364936E-06 3.41729032E-09 4.91921077E+08 4.91888647E+08  429.07240      32001.442    
 1.03050683E-06 3.44018290E-09 5.01638051E+08 5.01604976E+08  440.33889      32635.322    
 1.03741024E-06 3.46322884E-09 5.11981754E+08 5.11948001E+08  452.67996      33300.848    
 1.04435990E-06 3.48642917E-09 5.22168399E+08 5.22133986E+08  464.70128      33948.326    
 1.05135611E-06 3.50978492E-09 5.32633880E+08 5.32598783E+08  477.17826      34618.973    
 1.05839920E-06 3.53329712E-09 5.43536493E+08 5.43500651E+08  490.40789      35351.324    
 1.06548946E-06 3.55696684E-09 5.54272103E+08 5.54235531E+08  503.28641      36069.074    
 1.07262722E-06 3.58079512E-09 5.65620702E+08 5.65583366E+08  517.24548      36819.200    
 1.07981280E-06 3.60478303E-09 5.76952904E+08 5.76914815E+08  531.13029      37557.485    
 1.08704652E-06 3.62893164E-09 5.88433072E+08 5.88394230E+08  545.23743      38296.558    
 1.09432869E-06 3.65324201E-09 6.00558919E+08 6.00519293E+08  560.51041      39065.379    
 1.10165965E-06 3.67771524E-09 6.12419672E+08 6.12379266E+08  575.23158      39830.510    
 1.10903971E-06 3.70235243E-09 6.24870059E+08 6.24828799E+08  591.01926      40669.060    
 1.11646922E-06 3.72715465E-09 6.37475671E+08 6.37433552E+08  607.05440      41511.972    
 1.12394850E-06 3.75212303E-09 6.50068161E+08 6.50025195E+08  623.00302      42343.263    
 1.13147788E-06 3.77725867E-09 6.63553556E+08 6.63509693E+08  640.63294      43221.762    
 1.13905770E-06 3.80256270E-09 6.76657133E+08 6.76612411E+08  657.46037      44064.160    
 1.14668830E-06 3.82803623E-09 6.90315394E+08 6.90269787E+08  675.31443      44930.942    
 1.15437002E-06 3.85368042E-09 7.04336380E+08 7.04289843E+08  693.83068      45842.213    
 1.16210319E-06 3.87949640E-09 7.18241930E+08 7.18194440E+08  712.04849      46778.009    
 1.16988818E-06 3.90548532E-09 7.33049920E+08 7.33001419E+08  732.01697      47769.301    
 1.17772531E-06 3.93164835E-09 7.47620722E+08 7.47571240E+08  751.44252      48729.806    
 1.18561494E-06 3.95798663E-09 7.62603216E+08 7.62552739E+08  771.63140      49705.793    
 1.19355743E-06 3.98450137E-09 7.78197309E+08 7.78145809E+08  793.01007      50707.078    
 1.20155313E-06 4.01119372E-09 7.93559388E+08 7.93506890E+08  813.83442      51683.808    
 1.20960239E-06 4.03806489E-09 8.09804883E+08 8.09751301E+08  836.42094      52744.950    
 1.21770557E-06 4.06511607E-09 8.26012998E+08 8.25958301E+08  858.85779      53837.758    
 1.22586303E-06 4.09234846E-09 8.42447108E+08 8.42391290E+08  881.68447      54935.849    
 1.23407514E-06 4.11976329E-09 8.59789507E+08 8.59732521E+08  906.36518      56079.845    
 1.24234227E-06 4.14736177E-09 8.76760392E+08 8.76702278E+08  930.16894      57184.085    
 1.25066478E-06 4.17514513E-09 8.94581872E+08 8.94522588E+08  955.71428      58328.660    
 1.25904304E-06 4.20311462E-09 9.12609745E+08 9.12549287E+08  981.62599      59476.136    
 1.26747742E-06 4.23127147E-09 9.30634937E+08 9.30573271E+08  1007.4324      60659.125    
 1.27596831E-06 4.25961695E-09 9.49920155E+08 9.49857157E+08  1035.9219      61962.699    
 1.28451608E-06 4.28815232E-09 9.68667904E+08 9.68603627E+08  1063.1313      63213.028    
 1.29312111E-06 4.31687884E-09 9.88217111E+08 9.88151517E+08  1092.0202      64502.173    
 1.30178379E-06 4.34579781E-09 1.00826755E+09 1.00820062E+09  1121.9412      65805.853    
 1.31050450E-06 4.37491051E-09 1.02816167E+09 1.02809343E+09  1151.3987      67084.174    
 1.31928362E-06 4.40421823E-09 1.04935461E+09 1.04928499E+09  1183.7082      68434.035    
 1.32812156E-06 4.43372228E-09 1.07019062E+09 1.07011960E+09  1215.0978      69812.467    
 1.33701871E-06 4.46342399E-09 1.09163371E+09 1.09156121E+09  1247.7646      71259.634    
 1.34597546E-06 4.49332467E-09 1.11393185E+09 1.11385781E+09  1282.3112      72748.843    
 1.35499221E-06 4.52342565E-09 1.13590807E+09 1.13583256E+09  1315.9832      74196.297    
 1.36406936E-06 4.55372829E-09 1.15915672E+09 1.15907966E+09  1352.5287      75708.037    
 1.37320733E-06 4.58423392E-09 1.18233193E+09 1.18225334E+09  1388.7843      77194.725    
 1.38240650E-06 4.61494391E-09 1.20585076E+09 1.20577064E+09  1425.7193      78697.696    
 1.39166731E-06 4.64585962E-09 1.23064651E+09 1.23056469E+09  1465.6018      80346.583    
 1.40099015E-06 4.67698245E-09 1.25492215E+09 1.25483867E+09  1504.0912      81984.502    
 1.41037545E-06 4.70831376E-09 1.28042432E+09 1.28033909E+09  1545.4241      83687.673    
 1.41982361E-06 4.73985497E-09 1.30619928E+09 1.30611231E+09  1587.2948      85384.468    
 1.42933508E-06 4.77160747E-09 1.33199325E+09 1.33190456E+09  1629.0513      87062.255    
 1.43891026E-06 4.80357269E-09 1.35956408E+09 1.35947357E+09  1675.0886      88828.809    
 1.44854958E-06 4.83575204E-09 1.38637891E+09 1.38628664E+09  1719.0844      90549.933    
 1.45825348E-06 4.86814696E-09 1.41435121E+09 1.41425703E+09  1765.8273      92415.957    
 1.46802239E-06 4.90075889E-09 1.44301515E+09 1.44291898E+09  1814.1768      94353.851    
 1.47785673E-06 4.93358930E-09 1.47146827E+09 1.47137016E+09  1861.8075      96251.165    
 1.48775696E-06 4.96663964E-09 1.50178976E+09 1.50168960E+09  1914.0837      98248.299    
 1.49772351E-06 4.99991138E-09 1.53157559E+09 1.53147344E+09  1964.8049      100182.97    
 1.50775683E-06 5.03340601E-09 1.56225521E+09 1.56215104E+09  2017.6606      102151.48    
 1.51785736E-06 5.06712502E-09 1.59412910E+09 1.59402283E+09  2073.4846      104200.82    
 1.52802556E-06 5.10106992E-09 1.62555716E+09 1.62544873E+09  2127.9294      106308.79    
 1.53826187E-06 5.13524222E-09 1.65881709E+09 1.65870634E+09  2187.0595      108559.47    
 1.54856676E-06 5.16964344E-09 1.69194366E+09 1.69183064E+09  2245.6436      110767.10    
 1.55894067E-06 5.20427512E-09 1.72559056E+09 1.72547527E+09  2305.4054      112982.63    
 1.56938409E-06 5.23913879E-09 1.76103103E+09 1.76091337E+09  2369.8518      115283.60    
 1.57989746E-06 5.27423602E-09 1.79574399E+09 1.79562404E+09  2432.0854      117511.10    
 1.59048127E-06 5.30956836E-09 1.83222454E+09 1.83210218E+09  2498.9616      119861.72    
 1.60113597E-06 5.34513740E-09 1.86906330E+09 1.86893839E+09  2566.6190      122350.64    
 1.61186206E-06 5.38094472E-09 1.90596201E+09 1.90583453E+09  2634.1820      124842.18    
 1.62265999E-06 5.41699191E-09 1.94536484E+09 1.94523466E+09  2708.5739      127471.94    
 1.63353026E-06 5.45328058E-09 1.98370510E+09 1.98357233E+09  2779.7106      129993.25    
 1.64447336E-06 5.48981235E-09 2.02371566E+09 2.02358021E+09  2855.3401      132592.54    
 1.65548976E-06 5.52658885E-09 2.06467883E+09 2.06454068E+09  2933.4662      135216.35    
 1.66657996E-06 5.56361172E-09 2.10535895E+09 2.10521809E+09  3010.4798      137849.47    
 1.67774445E-06 5.60088261E-09 2.14872538E+09 2.14858149E+09  3095.0600      140796.49    
 1.68898374E-06 5.63840317E-09 2.19129043E+09 2.19114359E+09  3177.0163      143667.67    
 1.70029832E-06 5.67617509E-09 2.23516967E+09 2.23501981E+09  3262.5362      146593.97    
 1.71168869E-06 5.71420004E-09 2.28071523E+09 2.28056229E+09  3352.7401      149589.99    
 1.72315537E-06 5.75247973E-09 2.32564399E+09 2.32548804E+09  3440.7708      152508.72    
 1.73469887E-06 5.79101585E-09 2.37320828E+09 2.37304919E+09  3536.4403      155554.92    
 1.74631969E-06 5.82981012E-09 2.42054179E+09 2.42037951E+09  3631.1017      158648.25    
 1.75801837E-06 5.86886429E-09 2.46866046E+09 2.46849482E+09  3727.7954      161914.20    
 1.76979541E-06 5.90818007E-09 2.51929655E+09 2.51912738E+09  3831.9319      165337.68    
 1.78165135E-06 5.94775924E-09 2.56891616E+09 2.56874359E+09  3932.5556      168642.51    
 1.79358672E-06 5.98760354E-09 2.62108144E+09 2.62090532E+09  4040.7576      172075.48    
 1.80560203E-06 6.02771477E-09 2.67371287E+09 2.67353323E+09  4150.0798      175491.11    
 1.81769784E-06 6.06809470E-09 2.72647663E+09 2.72629350E+09  4259.3958      178876.80    
 1.82987468E-06 6.10874514E-09 2.78276698E+09 2.78258002E+09  4379.6029      182577.56    
 1.84213310E-06 6.14966790E-09 2.83756539E+09 2.83737459E+09  4494.6206      186303.96    
 1.85447363E-06 6.19086481E-09 2.89477276E+09 2.89457797E+09  4616.9849      190169.93    
 1.86689683E-06 6.23233769E-09 2.95328983E+09 2.95309102E+09  4743.2228      194069.54    
 1.87940326E-06 6.27408840E-09 3.01142853E+09 3.01122577E+09  4867.7420      197895.28    
 1.89199346E-06 6.31611880E-09 3.07342660E+09 3.07321968E+09  5004.5847      201918.28    
 1.90466801E-06 6.35843077E-09 3.13422909E+09 3.13401812E+09  5137.0080      205827.84    
 1.91742747E-06 6.40102618E-09 3.19696129E+09 3.19674605E+09  5275.3742      209972.51    
 1.93027240E-06 6.44390694E-09 3.26201613E+09 3.26179630E+09  5421.1275      214409.68    
 1.94320339E-06 6.48707497E-09 3.32621934E+09 3.32599503E+09  5563.4587      218741.43    
 1.95622099E-06 6.53053217E-09 3.39421196E+09 3.39398297E+09  5718.2424      223276.49    
 1.96932581E-06 6.57428050E-09 3.46181749E+09 3.46158390E+09  5871.1942      227721.53    
 1.98251841E-06 6.61832191E-09 3.53060322E+09 3.53036500E+09  6027.6389      232190.85    
 1.99579939E-06 6.66265834E-09 3.60291910E+09 3.60267606E+09  6195.9045      236844.23    
 2.00916934E-06 6.70729179E-09 3.67381668E+09 3.67356876E+09  6358.5951      241562.34    
 2.02262885E-06 6.75222424E-09 3.74837816E+09 3.74812498E+09  6533.6551      246653.50    
 2.03617854E-06 6.79745770E-09 3.82354068E+09 3.82328224E+09  6710.2952      251727.36    
 2.04981899E-06 6.84299417E-09 3.89895880E+09 3.89869516E+09  6887.1618      256755.17    
 2.06355082E-06 6.88883570E-09 3.97933901E+09 3.97906989E+09  7081.3942      262042.64    
 2.07737464E-06 6.93498432E-09 4.05762603E+09 4.05735164E+09  7267.3560      267126.39    
 2.09129106E-06 6.98144209E-09 4.13938467E+09 4.13910480E+09  7465.3287      272401.99    
 2.10530072E-06 7.02821109E-09 4.22294057E+09 4.22265490E+09  7669.3004      278000.84    
 2.11940422E-06 7.07529339E-09 4.30599377E+09 4.30570224E+09  7870.6233      283668.37    
 2.13360221E-06 7.12269110E-09 4.39458808E+09 4.39429033E+09  8092.0149      289660.62    
 2.14789530E-06 7.17040633E-09 4.48140347E+09 4.48109972E+09  8305.9751      295443.14    
 2.16228415E-06 7.21844121E-09 4.57104783E+09 4.57073796E+09  8529.8369      301344.29    
 2.17676939E-06 7.26679787E-09 4.66392517E+09 4.66360903E+09  8765.3406      307371.59    
 2.19135167E-06 7.31547848E-09 4.75562900E+09 4.75530669E+09  8995.4599      313310.92    
 2.20603163E-06 7.36448520E-09 4.85277751E+09 4.85244841E+09  9245.8769      319853.09    
 2.22080994E-06 7.41382021E-09 4.94929232E+09 4.94895637E+09  9493.0051      326452.29    
 2.23568724E-06 7.46348573E-09 5.04757570E+09 5.04723286E+09  9746.1154      333092.76    
 2.25066421E-06 7.51348396E-09 5.15080454E+09 5.15045455E+09  10017.993      339977.63    
 2.26574151E-06 7.56381713E-09 5.25205640E+09 5.25169948E+09  10281.027      346640.92    
 2.28091982E-06 7.61448748E-09 5.35857691E+09 5.35821278E+09  10564.247      353559.40    
 2.29619980E-06 7.66549727E-09 5.46586330E+09 5.46549192E+09  10849.649      360532.08    
 2.31158215E-06 7.71684879E-09 5.57360985E+09 5.57323089E+09  11135.799      367818.70    
 2.32706754E-06 7.76854430E-09 5.68833248E+09 5.68794534E+09  11449.632      375688.33    
 2.34265667E-06 7.82058613E-09 5.80012188E+09 5.79972690E+09  11750.287      383232.79    
 2.35835023E-06 7.87297659E-09 5.91691013E+09 5.91650704E+09  12070.576      391026.25    
 2.37414893E-06 7.92571802E-09 6.03615851E+09 6.03574723E+09  12400.137      398873.17    
 2.39005346E-06 7.97881276E-09 6.15474284E+09 6.15432352E+09  12725.625      406587.01    
 2.40606454E-06 8.03226319E-09 6.28127643E+09 6.28084853E+09  13083.792      414822.16    
 2.42218287E-06 8.08607168E-09 6.40517069E+09 6.40473399E+09  13429.482      423275.46    
 2.43840918E-06 8.14024064E-09 6.53320653E+09 6.53276069E+09  13791.654      432047.84    
 2.45474420E-06 8.19477248E-09 6.66573694E+09 6.66528176E+09  14172.161      441009.49    
 2.47118864E-06 8.24966963E-09 6.79665365E+09 6.79618936E+09  14544.202      449742.90    
 2.48774324E-06 8.30493454E-09 6.93538584E+09 6.93491201E+09  14949.325      458879.36    
 2.50440875E-06 8.36056967E-09 7.07309855E+09 7.07261537E+09  15348.603      467829.36    
 2.52118589E-06 8.41657750E-09 7.21345347E+09 7.21296071E+09  15758.093      477000.84    
 2.53807543E-06 8.47296053E-09 7.36072973E+09 7.36022640E+09  16197.368      487125.36    
 2.55507811E-06 8.52972128E-09 7.50525473E+09 7.50474110E+09  16622.619      497013.56    
 2.57219470E-06 8.58686227E-09 7.65734975E+09 7.65682536E+09  17080.809      507308.38    
 2.58942595E-06 8.64438604E-09 7.81040633E+09 7.80987127E+09  17541.922      517520.51    
 2.60677263E-06 8.70229518E-09 7.96425389E+09 7.96370822E+09  18004.864      527664.36    
 2.62423551E-06 8.76059224E-09 8.12789848E+09 8.12734167E+09  18511.924      538295.13    
 2.64181539E-06 8.81927985E-09 8.28743811E+09 8.28687029E+09  18997.993      548822.65    
 2.65951303E-06 8.87836060E-09 8.45416962E+09 8.45358981E+09  19516.150      560295.35    
 2.67732922E-06 8.93783714E-09 8.62426108E+09 8.62366908E+09  20048.608      571955.89    
 2.69526477E-06 8.99771211E-09 8.79348225E+09 8.79287828E+09  20574.821      583402.30    
 2.71332047E-06 9.05798819E-09 8.97409692E+09 8.97348030E+09  21154.242      595470.41    
 2.73149713E-06 9.11866806E-09 9.15080432E+09 9.15017549E+09  21712.743      607115.68    
 2.74979555E-06 9.17975443E-09 9.33356506E+09 9.33292375E+09  22298.656      619013.62    
 2.76821656E-06 9.24125002E-09 9.52256568E+09 9.52191118E+09  22913.422      631582.05    
 2.78676096E-06 9.30315757E-09 9.70935331E+09 9.70868535E+09  23514.889      644448.62    
 2.80542960E-06 9.36547984E-09 9.90734983E+09 9.90666761E+09  24170.269      658050.55    
 2.82422330E-06 9.42821962E-09 1.01037301E+10 1.01030340E+10  24815.344      671335.80    
 2.84314290E-06 9.49137968E-09 1.03040456E+10 1.03033354E+10  25477.804      684728.58    
 2.86218924E-06 9.55496287E-09 1.05140343E+10 1.05133095E+10  26187.516      698573.91    
 2.88136318E-06 9.61897199E-09 1.07202003E+10 1.07194614E+10  26874.998      712030.11    
 2.90066556E-06 9.68340992E-09 1.09372326E+10 1.09364784E+10  27616.223      726543.77    
 2.92009725E-06 9.74827952E-09 1.11554507E+10 1.11546807E+10  28361.196      741637.71    
 2.93965911E-06 9.81358368E-09 1.13749885E+10 1.13742027E+10  29110.125      756701.17    
 2.95935202E-06 9.87932532E-09 1.16082701E+10 1.16074677E+10  29929.349      772521.25    
 2.97917685E-06 9.94550737E-09 1.18358139E+10 1.18349954E+10  30715.142      787730.33    
 2.99913449E-06 1.00121328E-08 1.20736922E+10 1.20728572E+10  31553.372      803438.10    
 3.01922583E-06 1.00792045E-08 1.23161470E+10 1.23152953E+10  32413.606      819294.66    
 3.03945176E-06 1.01467255E-08 1.25574722E+10 1.25566034E+10  33264.292      835525.74    
 3.05981319E-06 1.02146989E-08 1.28151117E+10 1.28142241E+10  34201.603      853424.93    
 3.08031101E-06 1.02831276E-08 1.30669831E+10 1.30660773E+10  35103.884      870701.36    
 3.10094616E-06 1.03520148E-08 1.33276879E+10 1.33267635E+10  36051.719      888387.58    
 3.12171953E-06 1.04213634E-08 1.35970408E+10 1.35960973E+10  37044.922      906413.04    
 3.14263207E-06 1.04911766E-08 1.38633653E+10 1.38624033E+10  38017.254      924018.26    
 3.16368471E-06 1.05614574E-08 1.41457481E+10 1.41447665E+10  39077.435      942525.42    
 3.18487837E-06 1.06322091E-08 1.44255999E+10 1.44245983E+10  40119.575      961522.31    
 3.20621402E-06 1.07034348E-08 1.47112964E+10 1.47102739E+10  41191.234      981362.60    
 3.22769259E-06 1.07751376E-08 1.50104958E+10 1.50094515E+10  42337.822      1001955.0    
 3.24931505E-06 1.08473207E-08 1.53043931E+10 1.53033277E+10  43449.191      1021887.8    
 3.27108236E-06 1.09199874E-08 1.56138697E+10 1.56127825E+10  44648.231      1042629.8    
 3.29299549E-06 1.09931409E-08 1.59247717E+10 1.59236626E+10  45851.752      1063182.2    
 3.31505541E-06 1.10667844E-08 1.62378259E+10 1.62366951E+10  47063.284      1083769.9    
 3.33726312E-06 1.11409213E-08 1.65701377E+10 1.65689828E+10  48386.787      1106491.9    
 3.35961959E-06 1.12155548E-08 1.68944428E+10 1.68932641E+10  49657.068      1129050.4    
 3.38212584E-06 1.12906884E-08 1.72335826E+10 1.72323791E+10  51013.019      1152411.5    
 3.40478285E-06 1.13663252E-08 1.75789377E+10 1.75777094E+10  52402.736      1175870.4    
 3.42759164E-06 1.14424687E-08 1.79228408E+10 1.79215881E+10  53777.908      1198943.3    
 3.45055323E-06 1.15191223E-08 1.82900753E+10 1.82887967E+10  55294.091      1223242.8    
 3.47366865E-06 1.15962894E-08 1.86488172E+10 1.86475135E+10  56751.695      1246950.3    
 3.49693891E-06 1.16739735E-08 1.90204283E+10 1.90190976E+10  58284.936      1272479.7    
 3.52036506E-06 1.17521780E-08 1.94040060E+10 1.94026468E+10  59889.455      1299274.1    
 3.54394814E-06 1.18309064E-08 1.97834530E+10 1.97820661E+10  61461.250      1325396.8    
 3.56768921E-06 1.19101621E-08 2.01858782E+10 2.01844622E+10  63176.174      1352792.2    
 3.59158932E-06 1.19899488E-08 2.05843770E+10 2.05829326E+10  64859.701      1379535.3    
 3.61564954E-06 1.20702701E-08 2.09915296E+10 2.09900565E+10  66593.231      1406540.1    
 3.63987094E-06 1.21511293E-08 2.14175029E+10 2.14159997E+10  68445.529      1434765.7    
 3.66425460E-06 1.22325303E-08 2.18361391E+10 2.18346051E+10  70242.052      1463758.7    
 3.68880161E-06 1.23144766E-08 2.22770858E+10 2.22755190E+10  72181.576      1494621.9    
 3.71351306E-06 1.23969718E-08 2.27196893E+10 2.27180900E+10  74125.791      1525140.6    
 3.73839005E-06 1.24800197E-08 2.31657419E+10 2.31641102E+10  76085.567      1555523.8    
 3.76343369E-06 1.25636239E-08 2.36387368E+10 2.36370713E+10  78223.650      1587323.6    
 3.78864510E-06 1.26477882E-08 2.41005767E+10 2.40988784E+10  80277.022      1617979.5    
 3.81402541E-06 1.27325163E-08 2.45836831E+10 2.45819506E+10  82470.341      1650103.6    
 3.83957574E-06 1.28178120E-08 2.50752060E+10 2.50734368E+10  84715.325      1684478.1    
 3.86529723E-06 1.29036791E-08 2.55648891E+10 2.55630834E+10  86938.230      1718711.9    
 3.89119103E-06 1.29901214E-08 2.60878971E+10 2.60860528E+10  89390.657      1754902.4    
 3.91725829E-06 1.30771428E-08 2.65984340E+10 2.65965526E+10  91745.236      1789687.3    
 3.94350018E-06 1.31647472E-08 2.71276817E+10 2.71257622E+10  94225.307      1825336.2    
 3.96991787E-06 1.32529384E-08 2.76734538E+10 2.76714954E+10  96817.264      1861589.1    
 3.99651253E-06 1.33417205E-08 2.82136117E+10 2.82116146E+10  99357.963      1897805.4    
 4.02328535E-06 1.34310972E-08 2.87866078E+10 2.87845676E+10  102131.82      1938077.9    
 4.05023752E-06 1.35210728E-08 2.93535690E+10 2.93514864E+10  104851.33      1977765.2    
 4.07737024E-06 1.36116511E-08 2.99333075E+10 2.99311820E+10  107655.35      2017885.1    
 4.10468473E-06 1.37028361E-08 3.05392354E+10 3.05370654E+10  110647.54      2059285.6    
 4.13218219E-06 1.37946320E-08 3.11350283E+10 3.11328152E+10  113551.45      2099458.7    
