 OPTXAGNF AGN Spectrum Model Parameters: NLS, Astar 0.0                          
 M_BH:  5.0000E+08 M_0            L  :  5.0000E-02 L/Ledd 
 D   :  1.5000E+18 cm             z  :   0.000     redshift 
 Rcor:   40.00     Rg             Ro :   4.000     Rg 
 C_T :  0.2000     keV            Tau:   15.00     Optical Depth 
 gam :   2.200     (-slope)       fpl:  0.2000     Fraction 
 E              0.5DeltaE      E.FE total     E.FE Disk      E.FE Compton   E.FE NonThermal
 (keV)          (keV)          E.E/cm2/s/E    E.E/cm2/s/E    E.E/cm2/s/E    E.E/cm2/s/E    
 1.00334952E-06 3.34952256E-09 5.89287856E+08 5.89244601E+08  187.57555      43067.195    
 1.01007101E-06 3.37196116E-09 6.00940465E+08 6.00896339E+08  192.50317      43933.410    
 1.01683752E-06 3.39455008E-09 6.13082096E+08 6.13037072E+08  197.72791      44825.619    
 1.02364936E-06 3.41729032E-09 6.25557702E+08 6.25511769E+08  203.15356      45729.428    
 1.03050683E-06 3.44018290E-09 6.37924747E+08 6.37877923E+08  208.48838      46615.084    
 1.03741024E-06 3.46322884E-09 6.51090745E+08 6.51042974E+08  214.33208      47556.390    
 1.04435990E-06 3.48642917E-09 6.64056397E+08 6.64007647E+08  220.02436      48529.830    
 1.05135611E-06 3.50978492E-09 6.77377418E+08 6.77327658E+08  225.93242      49533.980    
 1.05839920E-06 3.53329712E-09 6.91255645E+08 6.91204846E+08  232.19692      50566.430    
 1.06548946E-06 3.55696684E-09 7.04920729E+08 7.04868922E+08  238.29514      51569.241    
 1.07262722E-06 3.58079512E-09 7.19367346E+08 7.19314485E+08  244.90508      52615.480    
 1.07981280E-06 3.60478303E-09 7.33792886E+08 7.33738988E+08  251.47985      53646.271    
 1.08704652E-06 3.62893164E-09 7.48406951E+08 7.48351997E+08  258.15992      54695.738    
 1.09432869E-06 3.65324201E-09 7.63844404E+08 7.63788278E+08  265.39210      55860.507    
 1.10165965E-06 3.67771524E-09 7.78943535E+08 7.78886266E+08  272.36296      56995.954    
 1.10903971E-06 3.70235243E-09 7.94794470E+08 7.94736015E+08  279.83889      58174.706    
 1.11646922E-06 3.72715465E-09 8.10843203E+08 8.10783565E+08  287.43202      59351.202    
 1.12394850E-06 3.75212303E-09 8.26874970E+08 8.26814162E+08  294.98418      60512.630    
 1.13147788E-06 3.77725867E-09 8.44045544E+08 8.43983503E+08  303.33257      61737.191    
 1.13905770E-06 3.80256270E-09 8.60728868E+08 8.60665611E+08  311.30093      62945.700    
 1.14668830E-06 3.82803623E-09 8.78119638E+08 8.78055061E+08  319.75548      64257.319    
 1.15437002E-06 3.85368042E-09 8.95972922E+08 8.95906992E+08  328.52364      65601.018    
 1.16210319E-06 3.87949640E-09 9.13678617E+08 9.13611364E+08  337.15047      66915.590    
 1.16988818E-06 3.90548532E-09 9.32535464E+08 9.32466820E+08  346.60640      68297.760    
 1.17772531E-06 3.93164835E-09 9.51089442E+08 9.51019447E+08  355.80521      69639.348    
 1.18561494E-06 3.95798663E-09 9.70168446E+08 9.70097079E+08  365.36553      71001.997    
 1.19355743E-06 3.98450137E-09 9.90027667E+08 9.89954844E+08  375.48934      72448.126    
 1.20155313E-06 4.01119372E-09 1.00959061E+09 1.00951629E+09  385.35063      73924.877    
 1.20960239E-06 4.03806489E-09 1.03028058E+09 1.03020470E+09  396.04649      75482.562    
 1.21770557E-06 4.06511607E-09 1.05092252E+09 1.05084510E+09  406.67147      77013.483    
 1.22586303E-06 4.09234846E-09 1.07185255E+09 1.07177359E+09  417.48107      78547.173    
 1.23407514E-06 4.11976329E-09 1.09394154E+09 1.09386097E+09  429.16877      80142.401    
 1.24234227E-06 4.14736177E-09 1.11555604E+09 1.11547392E+09  440.44114      81688.136    
 1.25066478E-06 4.17514513E-09 1.13825597E+09 1.13817217E+09  452.53834      83347.798    
 1.25904304E-06 4.20311462E-09 1.16121911E+09 1.16113356E+09  464.80907      85086.333    
 1.26747742E-06 4.23127147E-09 1.18417840E+09 1.18409111E+09  477.02993      86811.159    
 1.27596831E-06 4.25961695E-09 1.20874580E+09 1.20865668E+09  490.52155      88634.376    
 1.28451608E-06 4.28815232E-09 1.23262672E+09 1.23253584E+09  503.40690      90381.433    
 1.29312111E-06 4.31687884E-09 1.25753044E+09 1.25743774E+09  517.08770      92180.746    
 1.30178379E-06 4.34579781E-09 1.28307375E+09 1.28297922E+09  531.25737      94007.255    
 1.31050450E-06 4.37491051E-09 1.30841714E+09 1.30832072E+09  545.20748      95869.660    
 1.31928362E-06 4.40421823E-09 1.33541862E+09 1.33532014E+09  560.50835      97919.015    
 1.32812156E-06 4.43372228E-09 1.36196387E+09 1.36186338E+09  575.37359      99910.410    
 1.33701871E-06 4.46342399E-09 1.38928381E+09 1.38918128E+09  590.84375      101936.17    
 1.34597546E-06 4.49332467E-09 1.41769524E+09 1.41759062E+09  607.20426      104013.57    
 1.35499221E-06 4.52342565E-09 1.44569513E+09 1.44558847E+09  623.15052      106036.10    
 1.36406936E-06 4.55372829E-09 1.47531962E+09 1.47521082E+09  640.45778      108155.47    
 1.37320733E-06 4.58423392E-09 1.50484998E+09 1.50473898E+09  657.62778      110341.62    
 1.38240650E-06 4.61494391E-09 1.53481877E+09 1.53470548E+09  675.11955      112613.69    
 1.39166731E-06 4.64585962E-09 1.56641803E+09 1.56630235E+09  694.00742      114987.58    
 1.40099015E-06 4.67698245E-09 1.59735236E+09 1.59723437E+09  712.23542      117277.75    
 1.41037545E-06 4.70831376E-09 1.62985295E+09 1.62973256E+09  731.81030      119654.22    
 1.41982361E-06 4.73985497E-09 1.66270153E+09 1.66257875E+09  751.63991      122022.90    
 1.42933508E-06 4.77160747E-09 1.69557381E+09 1.69544866E+09  771.41540      124379.41    
 1.43891026E-06 4.80357269E-09 1.73071585E+09 1.73058806E+09  793.21857      126994.69    
 1.44854958E-06 4.83575204E-09 1.76489146E+09 1.76476106E+09  814.05476      129587.55    
 1.45825348E-06 4.86814696E-09 1.80054527E+09 1.80041217E+09  836.19219      132263.88    
 1.46802239E-06 4.90075889E-09 1.83708223E+09 1.83694640E+09  859.09058      134968.29    
 1.47785673E-06 4.93358930E-09 1.87334912E+09 1.87321062E+09  881.64850      137619.57    
 1.48775696E-06 4.96663964E-09 1.91200305E+09 1.91186174E+09  906.40688      140404.45    
 1.49772351E-06 4.99991138E-09 1.94997181E+09 1.94982774E+09  930.42873      143133.78    
 1.50775683E-06 5.03340601E-09 1.98908229E+09 1.98893528E+09  955.46165      146055.72    
 1.51785736E-06 5.06712502E-09 2.02971864E+09 2.02956852E+09  981.90057      149145.52    
 1.52802556E-06 5.10106992E-09 2.06978423E+09 2.06963107E+09  1007.6862      152147.63    
 1.53826187E-06 5.13524222E-09 2.11219062E+09 2.11203430E+09  1035.6912      155287.13    
 1.54856676E-06 5.16964344E-09 2.15442585E+09 2.15426641E+09  1063.4376      158370.23    
 1.55894067E-06 5.20427512E-09 2.19732542E+09 2.19716286E+09  1091.7419      161464.91    
 1.56938409E-06 5.23913879E-09 2.24251730E+09 2.24235147E+09  1122.2652      164712.68    
 1.57989746E-06 5.27423602E-09 2.28677841E+09 2.28660921E+09  1151.7404      168044.82    
 1.59048127E-06 5.30956836E-09 2.33329874E+09 2.33312598E+09  1183.4147      171581.49    
 1.60113597E-06 5.34513740E-09 2.38027611E+09 2.38009979E+09  1215.4591      175100.90    
 1.61186206E-06 5.38094472E-09 2.42732911E+09 2.42714928E+09  1247.4588      178582.48    
 1.62265999E-06 5.41699191E-09 2.47758359E+09 2.47740006E+09  1282.6934      182249.07    
 1.63353026E-06 5.45328058E-09 2.52647825E+09 2.52629116E+09  1316.3860      185772.55    
 1.64447336E-06 5.48981235E-09 2.57750818E+09 2.57731737E+09  1352.2069      189452.86    
 1.65548976E-06 5.52658885E-09 2.62975586E+09 2.62956106E+09  1389.2105      193411.34    
 1.66657996E-06 5.56361172E-09 2.68164036E+09 2.68144159E+09  1425.6871      197346.01    
 1.67774445E-06 5.60088261E-09 2.73695994E+09 2.73675698E+09  1465.7481      201494.48    
 1.68898374E-06 5.63840317E-09 2.79125331E+09 2.79104630E+09  1504.5662      205506.03    
 1.70029832E-06 5.67617509E-09 2.84722675E+09 2.84701561E+09  1545.0724      209592.34    
 1.71168869E-06 5.71420004E-09 2.90533104E+09 2.90511568E+09  1587.7976      213772.57    
 1.72315537E-06 5.75247973E-09 2.96264502E+09 2.96242546E+09  1629.4934      217935.54    
 1.73469887E-06 5.79101585E-09 3.02333039E+09 3.02310617E+09  1674.8078      222544.05    
 1.74631969E-06 5.82981012E-09 3.08371922E+09 3.08349038E+09  1719.6447      227122.39    
 1.75801837E-06 5.86886429E-09 3.14511123E+09 3.14487774E+09  1765.4444      231720.92    
 1.76979541E-06 5.90818007E-09 3.20972376E+09 3.20948545E+09  1814.7701      236496.15    
 1.78165135E-06 5.94775924E-09 3.27303401E+09 3.27279104E+09  1862.4317      241114.92    
 1.79358672E-06 5.98760354E-09 3.33960114E+09 3.33935332E+09  1913.6834      245905.66    
 1.80560203E-06 6.02771477E-09 3.40676380E+09 3.40651102E+09  1965.4659      250819.49    
 1.81769784E-06 6.06809470E-09 3.47409452E+09 3.47383658E+09  2017.2455      255932.48    
 1.82987468E-06 6.10874514E-09 3.54593844E+09 3.54567498E+09  2074.1847      261390.99    
 1.84213310E-06 6.14966790E-09 3.61587059E+09 3.61560184E+09  2128.6656      266620.91    
 1.85447363E-06 6.19086481E-09 3.68888532E+09 3.68861111E+09  2186.6269      272017.87    
 1.86689683E-06 6.23233769E-09 3.76357554E+09 3.76329583E+09  2246.4235      277461.18    
 1.87940326E-06 6.27408840E-09 3.83777949E+09 3.83749437E+09  2305.4059      282810.45    
 1.89199346E-06 6.31611880E-09 3.91692426E+09 3.91663327E+09  2370.2267      288625.63    
 1.90466801E-06 6.35843077E-09 3.99453652E+09 3.99423954E+09  2432.9538      294541.07    
 1.91742747E-06 6.40102618E-09 4.07461816E+09 4.07431504E+09  2498.4966      300616.34    
 1.93027240E-06 6.44390694E-09 4.15767279E+09 4.15736338E+09  2567.5392      306833.26    
 1.94320339E-06 6.48707497E-09 4.23963456E+09 4.23931904E+09  2634.9606      312887.77    
 1.95622099E-06 6.53053217E-09 4.32644868E+09 4.32612675E+09  2708.2818      319214.80    
 1.96932581E-06 6.57428050E-09 4.41276505E+09 4.41243683E+09  2780.7351      325442.28    
 1.98251841E-06 6.61832191E-09 4.50059146E+09 4.50025668E+09  2854.8433      331924.67    
 1.99579939E-06 6.66265834E-09 4.59293934E+09 4.59259741E+09  2934.5523      338989.57    
 2.00916934E-06 6.70729179E-09 4.68346743E+09 4.68311858E+09  3011.6199      345845.14    
 2.02262885E-06 6.75222424E-09 4.77868811E+09 4.77833204E+09  3094.5481      352974.82    
 2.03617854E-06 6.79745770E-09 4.87467689E+09 4.87431365E+09  3178.2251      360060.36    
 2.04981899E-06 6.84299417E-09 4.97099071E+09 4.97062036E+09  3262.0095      367087.08    
 2.06355082E-06 6.88883570E-09 5.07366232E+09 5.07328447E+09  3354.0220      374491.90    
 2.07737464E-06 6.93498432E-09 5.17364879E+09 5.17326342E+09  3442.1159      381929.74    
 2.09129106E-06 6.98144209E-09 5.27808311E+09 5.27768965E+09  3535.9007      389924.03    
 2.10530072E-06 7.02821109E-09 5.38481879E+09 5.38441714E+09  3632.5281      398015.03    
 2.11940422E-06 7.07529339E-09 5.49090684E+09 5.49049717E+09  3727.9005      405951.50    
 2.13360221E-06 7.12269110E-09 5.60409696E+09 5.60367882E+09  3832.7820      414309.38    
 2.14789530E-06 7.17040633E-09 5.71500335E+09 5.71457702E+09  3934.1425      422390.61    
 2.16228415E-06 7.21844121E-09 5.82953441E+09 5.82909971E+09  4040.1946      430669.61    
 2.17676939E-06 7.26679787E-09 5.94820934E+09 5.94776564E+09  4151.7633      439552.63    
 2.19135167E-06 7.31547848E-09 6.06537621E+09 6.06492343E+09  4260.7807      448524.10    
 2.20603163E-06 7.36448520E-09 6.18952328E+09 6.18906095E+09  4379.4160      457944.96    
 2.22080994E-06 7.41382021E-09 6.31285418E+09 6.31238252E+09  4496.4931      467164.87    
 2.23568724E-06 7.46348573E-09 6.43845027E+09 6.43796921E+09  4616.4049      476442.93    
 2.25066421E-06 7.51348396E-09 6.57038804E+09 6.56989725E+09  4745.2098      486048.94    
 2.26574151E-06 7.56381713E-09 6.69978578E+09 6.69928548E+09  4869.8242      495426.78    
 2.28091982E-06 7.61448748E-09 6.83594081E+09 6.83543014E+09  5004.0041      505668.90    
 2.29619980E-06 7.66549727E-09 6.97307549E+09 6.97255415E+09  5139.2177      516195.07    
 2.31158215E-06 7.71684879E-09 7.11079604E+09 7.11026413E+09  5274.7863      526631.36    
 2.32706754E-06 7.76854430E-09 7.25746631E+09 7.25692328E+09  5423.4731      537608.23    
 2.34265667E-06 7.82058613E-09 7.40036772E+09 7.39981399E+09  5565.9155      548155.24    
 2.35835023E-06 7.87297659E-09 7.54968159E+09 7.54911684E+09  5717.6618      559037.23    
 2.37414893E-06 7.92571802E-09 7.70214993E+09 7.70157396E+09  5873.8022      570099.59    
 2.39005346E-06 7.97881276E-09 7.85376163E+09 7.85317403E+09  6028.0129      581574.01    
 2.40606454E-06 8.03226319E-09 8.01557614E+09 8.01497591E+09  6197.7099      594025.13    
 2.42218287E-06 8.08607168E-09 8.17399643E+09 8.17338405E+09  6361.4942      606017.86    
 2.43840918E-06 8.14024064E-09 8.33773007E+09 8.33710527E+09  6533.0894      618271.50    
 2.45474420E-06 8.19477248E-09 8.50723171E+09 8.50659422E+09  6713.3736      630780.74    
 2.47118864E-06 8.24966963E-09 8.67465549E+09 8.67400561E+09  6889.6463      642990.41    
 2.48774324E-06 8.30493454E-09 8.85211361E+09 8.85145063E+09  7081.5969      655892.80    
 2.50440875E-06 8.36056967E-09 9.02825796E+09 9.02758135E+09  7270.7774      669339.44    
 2.52118589E-06 8.41657750E-09 9.20779107E+09 9.20710048E+09  7464.7980      683122.99    
 2.53807543E-06 8.47296053E-09 9.39621136E+09 9.39550627E+09  7672.9345      697414.76    
 2.55507811E-06 8.52972128E-09 9.58109046E+09 9.58037134E+09  7874.4249      711239.86    
 2.57219470E-06 8.58686227E-09 9.77569175E+09 9.77495805E+09  8091.5264      725611.08    
 2.58942595E-06 8.64438604E-09 9.97152331E+09 9.97077513E+09  8310.0134      739876.47    
 2.60677263E-06 8.70229518E-09 1.01683650E+10 1.01676022E+10  8529.3672      754273.06    
 2.62423551E-06 8.76059224E-09 1.03777954E+10 1.03770163E+10  8769.6310      770341.52    
 2.64181539E-06 8.81927985E-09 1.05819421E+10 1.05811471E+10  8999.9463      785994.25    
 2.65951303E-06 8.87836060E-09 1.07953274E+10 1.07945159E+10  9245.4700      802181.56    
 2.67732922E-06 8.93783714E-09 1.10130264E+10 1.10121984E+10  9497.7720      818465.75    
 2.69526477E-06 8.99771211E-09 1.12295987E+10 1.12287545E+10  9747.1144      834470.25    
 2.71332047E-06 9.05798819E-09 1.14608167E+10 1.14599554E+10  10021.676      851306.87    
 2.73149713E-06 9.11866806E-09 1.16870026E+10 1.16861244E+10  10286.322      867995.35    
 2.74979555E-06 9.17975443E-09 1.19209675E+10 1.19200710E+10  10563.961      885954.99    
 2.76821656E-06 9.24125002E-09 1.21629520E+10 1.21620366E+10  10855.276      904556.11    
 2.78676096E-06 9.30315757E-09 1.24020802E+10 1.24011464E+10  11140.288      922677.94    
 2.80542960E-06 9.36547984E-09 1.26556221E+10 1.26546689E+10  11450.855      941661.52    
 2.82422330E-06 9.42821962E-09 1.29070762E+10 1.29061042E+10  11756.537      960228.78    
 2.84314290E-06 9.49137968E-09 1.31635850E+10 1.31625940E+10  12070.460      978945.70    
 2.86218924E-06 9.55496287E-09 1.34325361E+10 1.34315248E+10  12406.781      998897.65    
 2.88136318E-06 9.61897199E-09 1.36965583E+10 1.36955263E+10  12732.565      1019225.1    
 2.90066556E-06 9.68340992E-09 1.39745586E+10 1.39735049E+10  13083.824      1040613.7    
 2.92009725E-06 9.74827952E-09 1.42540756E+10 1.42530004E+10  13436.860      1061804.3    
 2.93965911E-06 9.81358368E-09 1.45352807E+10 1.45341841E+10  13791.772      1082864.9    
 2.95935202E-06 9.87932532E-09 1.48341742E+10 1.48330551E+10  14180.006      1104939.3    
 2.97917685E-06 9.94550737E-09 1.51256681E+10 1.51245273E+10  14552.393      1126246.0    
 2.99913449E-06 1.00121328E-08 1.54304618E+10 1.54292979E+10  14949.637      1148961.0    
 3.01922583E-06 1.00792045E-08 1.57411412E+10 1.57399529E+10  15357.313      1172997.4    
 3.03945176E-06 1.01467255E-08 1.60503523E+10 1.60491398E+10  15760.463      1196751.0    
 3.05981319E-06 1.02146989E-08 1.63805704E+10 1.63793324E+10  16204.678      1221832.9    
 3.08031101E-06 1.02831276E-08 1.67033446E+10 1.67020820E+10  16632.288      1245990.4    
 3.10094616E-06 1.03520148E-08 1.70374886E+10 1.70362008E+10  17081.492      1270702.1    
 3.12171953E-06 1.04213634E-08 1.73827665E+10 1.73814530E+10  17552.205      1295956.8    
 3.14263207E-06 1.04911766E-08 1.77241283E+10 1.77227887E+10  18013.025      1321555.8    
 3.16368471E-06 1.05614574E-08 1.80861784E+10 1.80848102E+10  18515.492      1349671.2    
 3.18487837E-06 1.06322091E-08 1.84449515E+10 1.84435552E+10  19009.407      1377236.2    
 3.20621402E-06 1.07034348E-08 1.88112441E+10 1.88098195E+10  19517.316      1405050.3    
 3.22769259E-06 1.07751376E-08 1.91949353E+10 1.91934814E+10  20060.750      1433797.6    
 3.24931505E-06 1.08473207E-08 1.95717734E+10 1.95702912E+10  20587.487      1461675.4    
 3.27108236E-06 1.09199874E-08 1.99686904E+10 1.99671785E+10  21155.790      1490749.7    
 3.29299549E-06 1.09931409E-08 2.03674324E+10 2.03658898E+10  21726.218      1520904.7    
 3.31505541E-06 1.10667844E-08 2.07689344E+10 2.07673600E+10  22300.444      1552085.9    
 3.33726312E-06 1.11409213E-08 2.11952670E+10 2.11936591E+10  22927.759      1584940.2    
 3.35961959E-06 1.12155548E-08 2.16112499E+10 2.16096099E+10  23529.841      1616505.7    
 3.38212584E-06 1.12906884E-08 2.20463592E+10 2.20446858E+10  24172.542      1649139.8    
 3.40478285E-06 1.13663252E-08 2.24894740E+10 2.24877672E+10  24831.254      1681913.7    
 3.42759164E-06 1.14424687E-08 2.29306944E+10 2.29289546E+10  25483.070      1714304.6    
 3.45055323E-06 1.15191223E-08 2.34020201E+10 2.34002437E+10  26201.746      1750192.8    
 3.47366865E-06 1.15962894E-08 2.38623624E+10 2.38605495E+10  26892.649      1786036.0    
 3.49693891E-06 1.16739735E-08 2.43393000E+10 2.43374496E+10  27619.416      1822777.6    
 3.52036506E-06 1.17521780E-08 2.48316724E+10 2.48297838E+10  28379.981      1860201.8    
 3.54394814E-06 1.18309064E-08 2.53186869E+10 2.53167610E+10  29125.032      1896742.7    
 3.56768921E-06 1.19101621E-08 2.58353640E+10 2.58333990E+10  29937.949      1934990.3    
 3.59158932E-06 1.19899488E-08 2.63469473E+10 2.63449439E+10  30735.982      1972652.4    
 3.61564954E-06 1.20702701E-08 2.68696895E+10 2.68676452E+10  31557.726      2012678.8    
 3.63987094E-06 1.21511293E-08 2.74167334E+10 2.74146455E+10  32435.789      2055441.5    
 3.66425460E-06 1.22325303E-08 2.79542670E+10 2.79521369E+10  33287.406      2096815.5    
 3.68880161E-06 1.23144766E-08 2.85206142E+10 2.85184400E+10  34206.835      2139921.7    
 3.71351306E-06 1.23969718E-08 2.90890794E+10 2.90868617E+10  35128.490      2182580.8    
 3.73839005E-06 1.24800197E-08 2.96619753E+10 2.96597142E+10  36057.526      2225074.3    
 3.76343369E-06 1.25636239E-08 3.02696879E+10 3.02673809E+10  37071.119      2269901.5    
 3.78864510E-06 1.26477882E-08 3.08629481E+10 3.08605943E+10  38044.543      2315746.5    
 3.81402541E-06 1.27325163E-08 3.14836875E+10 3.14812842E+10  39084.334      2364273.3    
 3.83957574E-06 1.28178120E-08 3.21152853E+10 3.21128322E+10  40148.630      2412975.7    
 3.86529723E-06 1.29036791E-08 3.27444690E+10 3.27419669E+10  41202.456      2460870.9    
 3.89119103E-06 1.29901214E-08 3.34167478E+10 3.34141941E+10  42365.133      2511389.0    
 3.91725829E-06 1.30771428E-08 3.40728558E+10 3.40702523E+10  43481.410      2560049.6    
 3.94350018E-06 1.31647472E-08 3.47531482E+10 3.47504930E+10  44657.203      2610533.0    
 3.96991787E-06 1.32529384E-08 3.54548054E+10 3.54520944E+10  45886.062      2665120.9    
 3.99651253E-06 1.33417205E-08 3.61491564E+10 3.61463900E+10  47090.613      2719327.1    
 4.02328535E-06 1.34310972E-08 3.68859945E+10 3.68831698E+10  48405.750      2776278.3    
 4.05023752E-06 1.35210728E-08 3.76149814E+10 3.76120999E+10  49695.110      2831783.5    
 4.07737024E-06 1.36116511E-08 3.83604780E+10 3.83575391E+10  51024.557      2887884.5    
 4.10468473E-06 1.37028361E-08 3.91398684E+10 3.91368703E+10  52443.254      2945707.9    
 4.13218219E-06 1.37946320E-08 3.99060872E+10 3.99030304E+10  53820.082      3003012.7    
