 OPTXAGNF AGN Spectrum Model Parameters: BLS, Astar 0.0                          
 M_BH:  5.0000E+08 M_0            L  :  0.5000     L/Ledd 
 D   :  1.5000E+18 cm             z  :   0.000     redshift 
 Rcor:   60.00     Rg             Ro :   4.000     Rg 
 C_T :  0.2000     keV            Tau:   15.00     Optical Depth 
 gam :   1.800     (-slope)       fpl:  0.5000     Fraction 
 E              0.5DeltaE      E.FE total     E.FE Disk      E.FE Compton   E.FE NonThermal
 (keV)          (keV)          E.E/cm2/s/E    E.E/cm2/s/E    E.E/cm2/s/E    E.E/cm2/s/E    
 1.00334952E-06 3.34952256E-09 1.04331534E+09 1.04323432E+09  407.06832      80610.575    
 1.01007101E-06 3.37196116E-09 1.06397461E+09 1.06389199E+09  417.76239      82199.821    
 1.01683752E-06 3.39455008E-09 1.08550300E+09 1.08541873E+09  429.10131      83835.283    
 1.02364936E-06 3.41729032E-09 1.10762492E+09 1.10753898E+09  440.87630      85504.533    
 1.03050683E-06 3.44018290E-09 1.12955341E+09 1.12946572E+09  452.45414      87230.685    
 1.03741024E-06 3.46322884E-09 1.15290245E+09 1.15281288E+09  465.13641      89101.366    
 1.04435990E-06 3.48642917E-09 1.17589460E+09 1.17580321E+09  477.49006      90914.730    
 1.05135611E-06 3.50978492E-09 1.19951831E+09 1.19942507E+09  490.31203      92756.018    
 1.05839920E-06 3.53329712E-09 1.22413275E+09 1.22403760E+09  503.90758      94647.557    
 1.06548946E-06 3.55696684E-09 1.24836751E+09 1.24827050E+09  517.14228      96487.523    
 1.07262722E-06 3.58079512E-09 1.27399215E+09 1.27389319E+09  531.48756      98425.725    
 1.07981280E-06 3.60478303E-09 1.29957892E+09 1.29947792E+09  545.75654      100452.84    
 1.08704652E-06 3.62893164E-09 1.32550054E+09 1.32539746E+09  560.25403      102522.74    
 1.09432869E-06 3.65324201E-09 1.35288665E+09 1.35278139E+09  575.94982      104684.37    
 1.10165965E-06 3.67771524E-09 1.37967013E+09 1.37956277E+09  591.07845      106767.96    
 1.10903971E-06 3.70235243E-09 1.40779091E+09 1.40768137E+09  607.30327      108928.19    
 1.11646922E-06 3.72715465E-09 1.43626315E+09 1.43615144E+09  623.78246      111085.01    
 1.12394850E-06 3.75212303E-09 1.46470454E+09 1.46459066E+09  640.17273      113245.70    
 1.13147788E-06 3.77725867E-09 1.49517251E+09 1.49505618E+09  658.29112      115668.96    
 1.13905770E-06 3.80256270E-09 1.52477248E+09 1.52465378E+09  675.58470      118028.34    
 1.14668830E-06 3.82803623E-09 1.55563100E+09 1.55550984E+09  693.93351      120461.15    
 1.15437002E-06 3.85368042E-09 1.58731226E+09 1.58718862E+09  712.96297      122923.85    
 1.16210319E-06 3.87949640E-09 1.61872999E+09 1.61860393E+09  731.68569      125336.12    
 1.16988818E-06 3.90548532E-09 1.65219669E+09 1.65206807E+09  752.20789      127867.72    
 1.17772531E-06 3.93164835E-09 1.68512343E+09 1.68499227E+09  772.17205      130386.28    
 1.18561494E-06 3.95798663E-09 1.71898442E+09 1.71885055E+09  792.92082      133078.97    
 1.19355743E-06 3.98450137E-09 1.75423414E+09 1.75409743E+09  814.89260      135892.78    
 1.20155313E-06 4.01119372E-09 1.78895520E+09 1.78881574E+09  836.29460      138624.40    
 1.20960239E-06 4.03806489E-09 1.82568281E+09 1.82554047E+09  859.50796      141478.35    
 1.21770557E-06 4.06511607E-09 1.86232405E+09 1.86217889E+09  882.56750      144286.05    
 1.22586303E-06 4.09234846E-09 1.89947754E+09 1.89932954E+09  906.02776      147099.52    
 1.23407514E-06 4.11976329E-09 1.93869497E+09 1.93854393E+09  931.39383      150108.34    
 1.24234227E-06 4.14736177E-09 1.97706627E+09 1.97691214E+09  955.85850      153169.07    
 1.25066478E-06 4.17514513E-09 2.01737047E+09 2.01721310E+09  982.11340      156384.07    
 1.25904304E-06 4.20311462E-09 2.05814265E+09 2.05798205E+09  1008.7449      159589.30    
 1.26747742E-06 4.23127147E-09 2.09890685E+09 2.09874306E+09  1035.2682      162754.56    
 1.27596831E-06 4.25961695E-09 2.14253598E+09 2.14236882E+09  1064.5496      166093.32    
 1.28451608E-06 4.28815232E-09 2.18494060E+09 2.18477020E+09  1092.5152      169304.75    
 1.29312111E-06 4.31687884E-09 2.22916719E+09 2.22899336E+09  1122.2072      172708.92    
 1.30178379E-06 4.34579781E-09 2.27453304E+09 2.27435554E+09  1152.9603      176341.60    
 1.31050450E-06 4.37491051E-09 2.31954113E+09 2.31936002E+09  1183.2369      179922.71    
 1.31928362E-06 4.40421823E-09 2.36750402E+09 2.36731911E+09  1216.4453      183693.93    
 1.32812156E-06 4.43372228E-09 2.41465231E+09 2.41446371E+09  1248.7081      187347.63    
 1.33701871E-06 4.46342399E-09 2.46318057E+09 2.46298823E+09  1282.2839      191062.79    
 1.34597546E-06 4.49332467E-09 2.51365405E+09 2.51345786E+09  1317.7922      194879.53    
 1.35499221E-06 4.52342565E-09 2.56339237E+09 2.56319229E+09  1352.4014      198728.86    
 1.36406936E-06 4.55372829E-09 2.61602700E+09 2.61582265E+09  1389.9646      202952.96    
 1.37320733E-06 4.58423392E-09 2.66849226E+09 2.66828371E+09  1427.2299      207123.12    
 1.38240650E-06 4.61494391E-09 2.72173789E+09 2.72152513E+09  1465.1936      211304.03    
 1.39166731E-06 4.64585962E-09 2.77789079E+09 2.77767363E+09  1506.1876      215652.70    
 1.40099015E-06 4.67698245E-09 2.83285592E+09 2.83263451E+09  1545.7493      219855.90    
 1.41037545E-06 4.70831376E-09 2.89061396E+09 2.89038815E+09  1588.2344      224222.79    
 1.41982361E-06 4.73985497E-09 2.94899167E+09 2.94876127E+09  1631.2724      228770.89    
 1.42933508E-06 4.77160747E-09 3.00741006E+09 3.00717492E+09  1674.1930      233456.71    
 1.43891026E-06 4.80357269E-09 3.06987741E+09 3.06963726E+09  1721.5146      238427.78    
 1.44854958E-06 4.83575204E-09 3.13061809E+09 3.13037314E+09  1766.7375      243187.32    
 1.45825348E-06 4.86814696E-09 3.19399534E+09 3.19374543E+09  1814.7847      248094.21    
 1.46802239E-06 4.90075889E-09 3.25894743E+09 3.25869251E+09  1864.4837      253051.65    
 1.47785673E-06 4.93358930E-09 3.32341540E+09 3.32315556E+09  1913.4436      257928.88    
 1.48775696E-06 4.96663964E-09 3.39214360E+09 3.39187832E+09  1967.1797      263310.52    
 1.49772351E-06 4.99991138E-09 3.45964668E+09 3.45937592E+09  2019.3172      268734.06    
 1.50775683E-06 5.03340601E-09 3.52918609E+09 3.52890976E+09  2073.6493      274257.72    
 1.51785736E-06 5.06712502E-09 3.60144840E+09 3.60116635E+09  2131.0331      279919.90    
 1.52802556E-06 5.10106992E-09 3.67268912E+09 3.67240150E+09  2186.9991      285430.07    
 1.53826187E-06 5.13524222E-09 3.74810873E+09 3.74781530E+09  2247.7823      291182.56    
 1.54856676E-06 5.16964344E-09 3.82322051E+09 3.82292133E+09  2308.0042      296870.50    
 1.55894067E-06 5.20427512E-09 3.89951689E+09 3.89921165E+09  2369.4369      302874.54    
 1.56938409E-06 5.23913879E-09 3.97990684E+09 3.97959506E+09  2435.6863      309342.99    
 1.57989746E-06 5.27423602E-09 4.05863085E+09 4.05831276E+09  2499.6607      315582.42    
 1.59048127E-06 5.30956836E-09 4.14138929E+09 4.14106466E+09  2568.4085      322064.74    
 1.60113597E-06 5.34513740E-09 4.22496215E+09 4.22463099E+09  2637.9596      328518.57    
 1.61186206E-06 5.38094472E-09 4.30866730E+09 4.30832968E+09  2707.4138      334908.33    
 1.62265999E-06 5.41699191E-09 4.39809251E+09 4.39774804E+09  2783.8896      341685.10    
 1.63353026E-06 5.45328058E-09 4.48508457E+09 4.48473313E+09  2857.0184      348581.63    
 1.64447336E-06 5.48981235E-09 4.57589109E+09 4.57553228E+09  2934.7668      355873.38    
 1.65548976E-06 5.52658885E-09 4.66887178E+09 4.66850552E+09  3015.0825      363243.25    
 1.66657996E-06 5.56361172E-09 4.76119973E+09 4.76082617E+09  3094.2543      370466.67    
 1.67774445E-06 5.60088261E-09 4.85966767E+09 4.85928643E+09  3181.2065      378065.59    
 1.68898374E-06 5.63840317E-09 4.95629727E+09 4.95590857E+09  3265.4610      385427.01    
 1.70029832E-06 5.67617509E-09 5.05592845E+09 5.05553208E+09  3353.3796      393011.64    
 1.71168869E-06 5.71420004E-09 5.15936877E+09 5.15896408E+09  3446.1150      401247.51    
 1.72315537E-06 5.75247973E-09 5.26139160E+09 5.26097864E+09  3536.6157      409422.14    
 1.73469887E-06 5.79101585E-09 5.36944254E+09 5.36902091E+09  3634.9713      417987.59    
 1.74631969E-06 5.82981012E-09 5.47695933E+09 5.47652922E+09  3732.2906      426386.52    
 1.75801837E-06 5.86886429E-09 5.58626728E+09 5.58582862E+09  3831.6997      434823.63    
 1.76979541E-06 5.90818007E-09 5.70133554E+09 5.70088803E+09  3938.7626      443572.33    
 1.78165135E-06 5.94775924E-09 5.81406905E+09 5.81361281E+09  4042.2132      452204.89    
 1.79358672E-06 5.98760354E-09 5.93262899E+09 5.93216318E+09  4153.4570      461662.15    
 1.80560203E-06 6.02771477E-09 6.05225117E+09 6.05177566E+09  4265.8529      471251.30    
 1.81769784E-06 6.06809470E-09 6.17216909E+09 6.17168397E+09  4378.2426      480741.84    
 1.82987468E-06 6.10874514E-09 6.30016443E+09 6.29966919E+09  4501.8323      490739.25    
 1.84213310E-06 6.14966790E-09 6.42473174E+09 6.42422678E+09  4620.0858      500339.27    
 1.85447363E-06 6.19086481E-09 6.55481507E+09 6.55430009E+09  4745.8943      510234.78    
 1.86689683E-06 6.23233769E-09 6.68789547E+09 6.68737013E+09  4875.6865      520468.57    
 1.87940326E-06 6.27408840E-09 6.82009999E+09 6.81956395E+09  5003.7115      531033.37    
 1.89199346E-06 6.31611880E-09 6.96115170E+09 6.96060420E+09  5144.4101      542353.85    
 1.90466801E-06 6.35843077E-09 7.09945197E+09 7.09889340E+09  5280.5640      553280.10    
 1.91742747E-06 6.40102618E-09 7.24217155E+09 7.24160171E+09  5422.8299      564423.10    
 1.93027240E-06 6.44390694E-09 7.39021434E+09 7.38963295E+09  5572.6931      575817.20    
 1.94320339E-06 6.48707497E-09 7.53629248E+09 7.53569983E+09  5719.0372      586938.73    
 1.95622099E-06 6.53053217E-09 7.69106359E+09 7.69045884E+09  5878.1881      598871.13    
 1.96932581E-06 6.57428050E-09 7.84493744E+09 7.84432018E+09  6035.4553      611227.89    
 1.98251841E-06 6.61832191E-09 8.00151186E+09 8.00088190E+09  6196.3151      623765.89    
 1.99579939E-06 6.66265834E-09 8.16618802E+09 8.16554487E+09  6369.3326      636783.87    
 2.00916934E-06 6.70729179E-09 8.32759402E+09 8.32693812E+09  6536.6166      649368.41    
 2.02262885E-06 6.75222424E-09 8.49741002E+09 8.49674087E+09  6716.6227      662436.79    
 2.03617854E-06 6.79745770E-09 8.66859768E+09 8.66791533E+09  6898.2543      675457.82    
 2.04981899E-06 6.84299417E-09 8.84036121E+09 8.83966538E+09  7080.1191      688751.48    
 2.06355082E-06 6.88883570E-09 9.02352662E+09 9.02281581E+09  7279.8454      703525.13    
 2.07737464E-06 6.93498432E-09 9.20186589E+09 9.20114065E+09  7471.0654      717774.86    
 2.09129106E-06 6.98144209E-09 9.38817915E+09 9.38743898E+09  7674.6395      732494.94    
 2.10530072E-06 7.02821109E-09 9.57861602E+09 9.57786081E+09  7884.3843      747329.23    
 2.11940422E-06 7.07529339E-09 9.76788176E+09 9.76711177E+09  8091.4048      761898.01    
 2.13360221E-06 7.12269110E-09 9.96989056E+09 9.96910500E+09  8319.0680      777240.55    
 2.14789530E-06 7.17040633E-09 1.01677914E+10 1.01669902E+10  8539.0877      792678.46    
 2.16228415E-06 7.21844121E-09 1.03721928E+10 1.03713749E+10  8769.2925      809164.42    
 2.17676939E-06 7.26679787E-09 1.05840280E+10 1.05831928E+10  9011.4729      826109.67    
 2.19135167E-06 7.31547848E-09 1.07931442E+10 1.07922923E+10  9248.1150      842606.37    
 2.20603163E-06 7.36448520E-09 1.10147910E+10 1.10139216E+10  9505.6363      859868.85    
 2.22080994E-06 7.41382021E-09 1.12349624E+10 1.12340759E+10  9759.7752      876784.68    
 2.23568724E-06 7.46348573E-09 1.14591935E+10 1.14582897E+10  10020.068      893828.95    
 2.25066421E-06 7.51348396E-09 1.16948134E+10 1.16938908E+10  10299.667      912313.43    
 2.26574151E-06 7.56381713E-09 1.19258579E+10 1.19249163E+10  10570.168      930969.11    
 2.28091982E-06 7.61448748E-09 1.21690379E+10 1.21680766E+10  10861.436      950418.97    
 2.29619980E-06 7.66549727E-09 1.24139684E+10 1.24129875E+10  11154.948      969725.26    
 2.31158215E-06 7.71684879E-09 1.26599401E+10 1.26589397E+10  11449.230      988880.69    
 2.32706754E-06 7.76854430E-09 1.29219960E+10 1.29209753E+10  11771.992      1008987.2    
 2.34265667E-06 7.82058613E-09 1.31772618E+10 1.31762213E+10  12081.197      1028418.1    
 2.35835023E-06 7.87297659E-09 1.34440507E+10 1.34429888E+10  12410.600      1049455.8    
 2.37414893E-06 7.92571802E-09 1.37165040E+10 1.37154197E+10  12749.544      1071493.2    
 2.39005346E-06 7.97881276E-09 1.39874007E+10 1.39862945E+10  13084.298      1093118.0    
 2.40606454E-06 8.03226319E-09 1.42766456E+10 1.42755162E+10  13452.672      1115925.7    
 2.42218287E-06 8.08607168E-09 1.45597684E+10 1.45586166E+10  13808.210      1137937.4    
 2.43840918E-06 8.14024064E-09 1.48524407E+10 1.48512661E+10  14180.706      1160413.1    
 2.45474420E-06 8.19477248E-09 1.51554845E+10 1.51542864E+10  14572.065      1183511.2    
 2.47118864E-06 8.24966963E-09 1.54547726E+10 1.54535504E+10  14954.716      1207256.3    
 2.48774324E-06 8.30493454E-09 1.57721173E+10 1.57708690E+10  15371.403      1232927.6    
 2.50440875E-06 8.36056967E-09 1.60870796E+10 1.60858057E+10  15782.077      1258044.8    
 2.52118589E-06 8.41657750E-09 1.64081285E+10 1.64068289E+10  16203.259      1283342.7    
 2.53807543E-06 8.47296053E-09 1.67451741E+10 1.67438479E+10  16655.087      1309530.5    
 2.55507811E-06 8.52972128E-09 1.70758218E+10 1.70744698E+10  17092.487      1334910.4    
 2.57219470E-06 8.58686227E-09 1.74239734E+10 1.74225943E+10  17563.778      1361520.5    
 2.58942595E-06 8.64438604E-09 1.77743275E+10 1.77729200E+10  18038.078      1389498.1    
 2.60677263E-06 8.70229518E-09 1.81264829E+10 1.81250464E+10  18514.261      1417917.8    
 2.62423551E-06 8.76059224E-09 1.85013173E+10 1.84998505E+10  19035.840      1447847.4    
 2.64181539E-06 8.81927985E-09 1.88666043E+10 1.88651082E+10  19535.821      1476585.6    
 2.65951303E-06 8.87836060E-09 1.92485328E+10 1.92470065E+10  20068.820      1506266.8    
 2.67732922E-06 8.93783714E-09 1.96382241E+10 1.96366673E+10  20616.536      1536125.9    
 2.69526477E-06 8.99771211E-09 2.00258602E+10 2.00242732E+10  21157.827      1565888.8    
 2.71332047E-06 9.05798819E-09 2.04399053E+10 2.04382844E+10  21753.870      1599088.6    
 2.73149713E-06 9.11866806E-09 2.08448477E+10 2.08431936E+10  22328.388      1631753.5    
 2.74979555E-06 9.17975443E-09 2.12638050E+10 2.12621169E+10  22931.115      1665171.3    
 2.76821656E-06 9.24125002E-09 2.16972182E+10 2.16954954E+10  23563.534      1699267.8    
 2.78676096E-06 9.30315757E-09 2.21254489E+10 2.21236922E+10  24182.270      1732536.7    
 2.80542960E-06 9.36547984E-09 2.25796850E+10 2.25778928E+10  24856.487      1767322.5    
 2.82422330E-06 9.42821962E-09 2.30301274E+10 2.30282998E+10  25520.101      1802113.5    
 2.84314290E-06 9.49137968E-09 2.34896744E+10 2.34878092E+10  26201.607      1839007.9    
 2.86218924E-06 9.55496287E-09 2.39716772E+10 2.39697723E+10  26931.742      1877969.1    
 2.88136318E-06 9.61897199E-09 2.44447433E+10 2.44428000E+10  27639.001      1915639.6    
 2.90066556E-06 9.68340992E-09 2.49430443E+10 2.49410610E+10  28401.571      1954845.2    
 2.92009725E-06 9.74827952E-09 2.54440601E+10 2.54420373E+10  29168.001      1993715.6    
 2.93965911E-06 9.81358368E-09 2.59480955E+10 2.59460331E+10  29938.503      2032372.1    
 2.95935202E-06 9.87932532E-09 2.64840901E+10 2.64819854E+10  30781.354      2073875.7    
 2.97917685E-06 9.94550737E-09 2.70066729E+10 2.70045253E+10  31589.801      2116039.5    
 2.99913449E-06 1.00121328E-08 2.75532796E+10 2.75510870E+10  32452.218      2160193.6    
 3.01922583E-06 1.00792045E-08 2.81105026E+10 2.81082647E+10  33337.283      2204571.5    
 3.03945176E-06 1.01467255E-08 2.86650314E+10 2.86627490E+10  34212.524      2248180.9    
 3.05981319E-06 1.02146989E-08 2.92575482E+10 2.92552189E+10  35176.926      2294126.7    
 3.08031101E-06 1.02831276E-08 2.98365557E+10 2.98341811E+10  36105.277      2338530.8    
 3.10094616E-06 1.03520148E-08 3.04361102E+10 3.04336880E+10  37080.516      2385128.6    
 3.12171953E-06 1.04213634E-08 3.10557950E+10 3.10533215E+10  38102.457      2435375.8    
 3.14263207E-06 1.04911766E-08 3.16683443E+10 3.16658204E+10  39102.917      2484754.4    
 3.16368471E-06 1.05614574E-08 3.23183306E+10 3.23157538E+10  40193.805      2536552.5    
 3.18487837E-06 1.06322091E-08 3.29623403E+10 3.29597119E+10  41266.126      2587135.2    
 3.20621402E-06 1.07034348E-08 3.36199313E+10 3.36172507E+10  42368.834      2638170.8    
 3.22769259E-06 1.07751376E-08 3.43090188E+10 3.43062843E+10  43548.678      2690943.7    
 3.24931505E-06 1.08473207E-08 3.49856389E+10 3.49828503E+10  44692.269      2743868.8    
 3.27108236E-06 1.09199874E-08 3.56986234E+10 3.56957756E+10  45926.113      2801840.1    
 3.29299549E-06 1.09931409E-08 3.64148721E+10 3.64119654E+10  47164.574      2859578.4    
 3.31505541E-06 1.10667844E-08 3.71360721E+10 3.71331067E+10  48411.284      2916996.1    
 3.33726312E-06 1.11409213E-08 3.79022771E+10 3.78992502E+10  49773.269      2977184.6    
 3.35961959E-06 1.12155548E-08 3.86496509E+10 3.86465647E+10  51080.465      3035137.2    
 3.38212584E-06 1.12906884E-08 3.94316844E+10 3.94285369E+10  52475.863      3095039.6    
 3.40478285E-06 1.13663252E-08 4.02282043E+10 4.02249926E+10  53906.027      3157790.6    
 3.42759164E-06 1.14424687E-08 4.10212267E+10 4.10179491E+10  55321.219      3222305.1    
 3.45055323E-06 1.15191223E-08 4.18688691E+10 4.18655214E+10  56881.594      3290755.3    
 3.47366865E-06 1.15962894E-08 4.26965018E+10 4.26930869E+10  58381.663      3356555.0    
 3.49693891E-06 1.16739735E-08 4.35542212E+10 4.35507372E+10  59959.609      3423949.5    
 3.52036506E-06 1.17521780E-08 4.44399329E+10 4.44363787E+10  61610.949      3492557.1    
 3.54394814E-06 1.18309064E-08 4.53158394E+10 4.53122165E+10  63228.599      3559735.5    
 3.56768921E-06 1.19101621E-08 4.62456129E+10 4.62419145E+10  64993.624      3633420.0    
 3.59158932E-06 1.19899488E-08 4.71660636E+10 4.71622884E+10  66726.328      3708464.9    
 3.61564954E-06 1.20702701E-08 4.81067314E+10 4.81028785E+10  68510.521      3784309.3    
 3.63987094E-06 1.21511293E-08 4.90915412E+10 4.90876081E+10  70417.015      3862678.6    
 3.66425460E-06 1.22325303E-08 5.00589726E+10 5.00549617E+10  72266.083      3938641.7    
 3.68880161E-06 1.23144766E-08 5.10787680E+10 5.10746760E+10  74262.406      4017658.2    
 3.71351306E-06 1.23969718E-08 5.21023483E+10 5.20981756E+10  76263.568      4096351.0    
 3.73839005E-06 1.24800197E-08 5.31339134E+10 5.31296566E+10  78280.757      4178529.8    
 3.76343369E-06 1.25636239E-08 5.42288143E+10 5.42244658E+10  80481.571      4267963.8    
 3.78864510E-06 1.26477882E-08 5.52973023E+10 5.52928657E+10  82595.157      4353974.9    
 3.81402541E-06 1.27325163E-08 5.64157651E+10 5.64112372E+10  84852.868      4442992.4    
 3.83957574E-06 1.28178120E-08 5.75539353E+10 5.75493158E+10  87163.793      4532309.3    
 3.86529723E-06 1.29036791E-08 5.86876072E+10 5.86828975E+10  89451.986      4620245.7    
 3.89119103E-06 1.29901214E-08 5.98997655E+10 5.98949600E+10  91976.565      4713564.7    
 3.91725829E-06 1.30771428E-08 6.10823486E+10 6.10774456E+10  94400.381      4808550.2    
 3.94350018E-06 1.31647472E-08 6.23089417E+10 6.23039361E+10  96953.448      4908592.1    
 3.96991787E-06 1.32529384E-08 6.35744171E+10 6.35693069E+10  99621.759      5010597.5    
 3.99651253E-06 1.33417205E-08 6.48264490E+10 6.48212366E+10  102237.28      5110166.7    
 4.02328535E-06 1.34310972E-08 6.61559317E+10 6.61506121E+10  105092.97      5214529.1    
 4.05023752E-06 1.35210728E-08 6.74709776E+10 6.74655533E+10  107892.68      5316394.2    
 4.07737024E-06 1.36116511E-08 6.88160535E+10 6.88105223E+10  110779.45      5420425.6    
 4.10468473E-06 1.37028361E-08 7.02229435E+10 7.02172956E+10  113860.04      5534023.0    
 4.13218219E-06 1.37946320E-08 7.16056470E+10 7.15998835E+10  116849.72      5646691.5    
