 OPTXAGNF AGN Spectrum Model Parameters: BLS, Astar 0.0                          
 M_BH:  5.0000E+08 M_0            L  :  5.0000E-02 L/Ledd 
 D   :  1.5000E+18 cm             z  :   0.000     redshift 
 Rcor:   60.00     Rg             Ro :   4.000     Rg 
 C_T :  0.2000     keV            Tau:   15.00     Optical Depth 
 gam :   1.800     (-slope)       fpl:  0.5000     Fraction 
 E              0.5DeltaE      E.FE total     E.FE Disk      E.FE Compton   E.FE NonThermal
 (keV)          (keV)          E.E/cm2/s/E    E.E/cm2/s/E    E.E/cm2/s/E    E.E/cm2/s/E    
 1.00334952E-06 3.34952256E-09 5.84192748E+08 5.84152500E+08  398.66697      39849.853    
 1.01007101E-06 3.37196116E-09 5.95744610E+08 5.95703539E+08  409.13954      40662.187    
 1.01683752E-06 3.39455008E-09 6.07781273E+08 6.07739346E+08  420.24356      41506.796    
 1.02364936E-06 3.41729032E-09 6.20149025E+08 6.20106231E+08  431.77457      42362.640    
 1.03050683E-06 3.44018290E-09 6.32409154E+08 6.32365511E+08  443.11252      43200.202    
 1.03741024E-06 3.46322884E-09 6.45461317E+08 6.45416782E+08  455.53192      44079.435    
 1.04435990E-06 3.48642917E-09 6.58314811E+08 6.58269407E+08  467.62954      44936.211    
 1.05135611E-06 3.50978492E-09 6.71520612E+08 6.71474299E+08  480.18573      45832.607    
 1.05839920E-06 3.53329712E-09 6.85278850E+08 6.85231553E+08  493.49939      46803.540    
 1.06548946E-06 3.55696684E-09 6.98825794E+08 6.98777535E+08  506.45970      47751.938    
 1.07262722E-06 3.58079512E-09 7.13147515E+08 7.13098251E+08  520.50748      48742.973    
 1.07981280E-06 3.60478303E-09 7.27448342E+08 7.27398089E+08  534.48052      49718.449    
 1.08704652E-06 3.62893164E-09 7.41936046E+08 7.41884803E+08  548.67733      50694.989    
 1.09432869E-06 3.65324201E-09 7.57239950E+08 7.57187672E+08  564.04745      51713.622    
 1.10165965E-06 3.67771524E-09 7.72208489E+08 7.72155174E+08  578.86223      52736.472    
 1.10903971E-06 3.70235243E-09 7.87922379E+08 7.87867938E+08  594.75035      53846.775    
 1.11646922E-06 3.72715465E-09 8.03832364E+08 8.03776792E+08  610.88754      54960.476    
 1.12394850E-06 3.75212303E-09 8.19725528E+08 8.19668842E+08  626.93765      56058.914    
 1.13147788E-06 3.77725867E-09 8.36747656E+08 8.36689791E+08  644.67985      57219.506    
 1.13905770E-06 3.80256270E-09 8.53286714E+08 8.53227720E+08  661.61443      58332.622    
 1.14668830E-06 3.82803623E-09 8.70527036E+08 8.70466876E+08  679.58223      59481.064    
 1.15437002E-06 3.85368042E-09 8.88225911E+08 8.88164515E+08  698.21647      60697.884    
 1.16210319E-06 3.87949640E-09 9.05778526E+08 9.05715872E+08  716.55037      61938.104    
 1.16988818E-06 3.90548532E-09 9.24472345E+08 9.24408361E+08  736.64619      63247.754    
 1.17772531E-06 3.93164835E-09 9.42865913E+08 9.42800640E+08  756.19560      64516.918    
 1.18561494E-06 3.95798663E-09 9.61779968E+08 9.61713385E+08  776.51325      65806.494    
 1.19355743E-06 3.98450137E-09 9.81467447E+08 9.81399520E+08  798.02837      67129.391    
 1.20155313E-06 4.01119372E-09 1.00086114E+09 1.00079190E+09  818.98559      68422.678    
 1.20960239E-06 4.03806489E-09 1.02137218E+09 1.02130150E+09  841.71634      69839.881    
 1.21770557E-06 4.06511607E-09 1.04183566E+09 1.04176350E+09  864.29647      71288.595    
 1.22586303E-06 4.09234846E-09 1.06258473E+09 1.06251111E+09  887.26894      72739.572    
 1.23407514E-06 4.11976329E-09 1.08448275E+09 1.08440758E+09  912.10740      74250.995    
 1.24234227E-06 4.14736177E-09 1.10591037E+09 1.10583373E+09  936.06326      75710.147    
 1.25066478E-06 4.17514513E-09 1.12841398E+09 1.12833579E+09  961.77195      77222.411    
 1.25904304E-06 4.20311462E-09 1.15117846E+09 1.15109873E+09  987.84938      78741.618    
 1.26747742E-06 4.23127147E-09 1.17393919E+09 1.17385786E+09  1013.8208      80322.743    
 1.27596831E-06 4.25961695E-09 1.19829419E+09 1.19821110E+09  1042.4927      82049.988    
 1.28451608E-06 4.28815232E-09 1.22196864E+09 1.22188387E+09  1069.8762      83702.210    
 1.29312111E-06 4.31687884E-09 1.24665704E+09 1.24657054E+09  1098.9501      85405.559    
 1.30178379E-06 4.34579781E-09 1.27197951E+09 1.27189125E+09  1129.0628      87128.079    
 1.31050450E-06 4.37491051E-09 1.29710370E+09 1.29701372E+09  1158.7090      88817.286    
 1.31928362E-06 4.40421823E-09 1.32387157E+09 1.32377978E+09  1191.2255      90606.761    
 1.32812156E-06 4.43372228E-09 1.35018727E+09 1.35009360E+09  1222.8164      92448.804    
 1.33701871E-06 4.46342399E-09 1.37727100E+09 1.37717538E+09  1255.6926      94364.223    
 1.34597546E-06 4.49332467E-09 1.40543679E+09 1.40533917E+09  1290.4609      96331.848    
 1.35499221E-06 4.52342565E-09 1.43319459E+09 1.43309502E+09  1324.3489      98244.584    
 1.36406936E-06 4.55372829E-09 1.46256294E+09 1.46246133E+09  1361.1290      100241.96    
 1.37320733E-06 4.58423392E-09 1.49183787E+09 1.49173426E+09  1397.6174      102206.43    
 1.38240650E-06 4.61494391E-09 1.52154739E+09 1.52144175E+09  1434.7896      104202.34    
 1.39166731E-06 4.64585962E-09 1.55287339E+09 1.55276551E+09  1474.9285      106404.56    
 1.40099015E-06 4.67698245E-09 1.58354026E+09 1.58343017E+09  1513.6651      108569.72    
 1.41037545E-06 4.70831376E-09 1.61575984E+09 1.61564746E+09  1555.2638      110820.12    
 1.41982361E-06 4.73985497E-09 1.64832440E+09 1.64820974E+09  1597.4038      113062.19    
 1.42933508E-06 4.77160747E-09 1.68091246E+09 1.68079554E+09  1639.4288      115279.32    
 1.43891026E-06 4.80357269E-09 1.71575050E+09 1.71563121E+09  1685.7625      117613.29    
 1.44854958E-06 4.83575204E-09 1.74963046E+09 1.74950883E+09  1730.0415      119904.98    
 1.45825348E-06 4.86814696E-09 1.78497595E+09 1.78485178E+09  1777.0854      122392.69    
 1.46802239E-06 4.90075889E-09 1.82119700E+09 1.82107022E+09  1825.7464      124953.30    
 1.47785673E-06 4.93358930E-09 1.85715032E+09 1.85702098E+09  1873.6839      127460.59    
 1.48775696E-06 4.96663964E-09 1.89547004E+09 1.89533801E+09  1926.2972      130099.28    
 1.49772351E-06 4.99991138E-09 1.93311048E+09 1.93297584E+09  1977.3455      132655.87    
 1.50775683E-06 5.03340601E-09 1.97188263E+09 1.97174535E+09  2030.5421      135257.06    
 1.51785736E-06 5.06712502E-09 2.01216743E+09 2.01202735E+09  2086.7265      137992.42    
 1.52802556E-06 5.10106992E-09 2.05188655E+09 2.05174361E+09  2141.5226      140795.68    
 1.53826187E-06 5.13524222E-09 2.09392628E+09 2.09378031E+09  2201.0347      143769.50    
 1.54856676E-06 5.16964344E-09 2.13579632E+09 2.13564737E+09  2259.9972      146686.76    
 1.55894067E-06 5.20427512E-09 2.17832496E+09 2.17817302E+09  2320.1451      149614.49    
 1.56938409E-06 5.23913879E-09 2.22312606E+09 2.22297102E+09  2385.0082      152654.72    
 1.57989746E-06 5.27423602E-09 2.26700425E+09 2.26684620E+09  2447.6442      155600.83    
 1.59048127E-06 5.30956836E-09 2.31312213E+09 2.31296087E+09  2514.9531      158742.47    
 1.60113597E-06 5.34513740E-09 2.35969327E+09 2.35952864E+09  2583.0483      162045.08    
 1.61186206E-06 5.38094472E-09 2.40633942E+09 2.40617143E+09  2651.0486      165337.71    
 1.62265999E-06 5.41699191E-09 2.45615937E+09 2.45598783E+09  2725.9226      168812.31    
 1.63353026E-06 5.45328058E-09 2.50463126E+09 2.50445631E+09  2797.5200      172144.32    
 1.64447336E-06 5.48981235E-09 2.55521990E+09 2.55504144E+09  2873.6397      175579.03    
 1.65548976E-06 5.52658885E-09 2.60701553E+09 2.60683352E+09  2952.2725      179053.95    
 1.66657996E-06 5.56361172E-09 2.65845119E+09 2.65826559E+09  3029.7854      182574.74    
 1.67774445E-06 5.60088261E-09 2.71329240E+09 2.71310281E+09  3114.9146      186479.24    
 1.68898374E-06 5.63840317E-09 2.76711631E+09 2.76692284E+09  3197.4029      190273.59    
 1.70029832E-06 5.67617509E-09 2.82260576E+09 2.82240833E+09  3283.4781      194140.59    
 1.71168869E-06 5.71420004E-09 2.88020763E+09 2.88000616E+09  3374.2681      198099.42    
 1.72315537E-06 5.75247973E-09 2.93702595E+09 2.93682053E+09  3462.8707      201956.70    
 1.73469887E-06 5.79101585E-09 2.99718624E+09 2.99697669E+09  3559.1623      205991.23    
 1.74631969E-06 5.82981012E-09 3.05705268E+09 3.05683890E+09  3654.4394      210121.58    
 1.75801837E-06 5.86886429E-09 3.11791381E+09 3.11769561E+09  3751.7621      214453.92    
 1.76979541E-06 5.90818007E-09 3.18196764E+09 3.18174481E+09  3856.5768      218977.53    
 1.78165135E-06 5.94775924E-09 3.24473045E+09 3.24450315E+09  3957.8555      223345.14    
 1.79358672E-06 5.98760354E-09 3.31072197E+09 3.31049002E+09  4066.7625      227881.49    
 1.80560203E-06 6.02771477E-09 3.37730374E+09 3.37706717E+09  4176.7972      232395.14    
 1.81769784E-06 6.06809470E-09 3.44405188E+09 3.44381072E+09  4286.8257      236875.46    
 1.82987468E-06 6.10874514E-09 3.51527432E+09 3.51502809E+09  4407.8173      241818.70    
 1.84213310E-06 6.14966790E-09 3.58460175E+09 3.58435046E+09  4523.5853      246762.68    
 1.85447363E-06 6.19086481E-09 3.65698510E+09 3.65672858E+09  4646.7485      251871.44    
 1.86689683E-06 6.23233769E-09 3.73102946E+09 3.73076766E+09  4773.8109      257024.61    
 1.87940326E-06 6.27408840E-09 3.80459175E+09 3.80432477E+09  4899.1434      262080.73    
 1.89199346E-06 6.31611880E-09 3.88305195E+09 3.88277951E+09  5036.8810      267396.52    
 1.90466801E-06 6.35843077E-09 3.95999263E+09 3.95971489E+09  5170.1701      272570.49    
 1.91742747E-06 6.40102618E-09 4.03938156E+09 4.03909814E+09  5309.4415      278109.76    
 1.93027240E-06 6.44390694E-09 4.12171798E+09 4.12142853E+09  5456.1490      283994.05    
 1.94320339E-06 6.48707497E-09 4.20297100E+09 4.20267568E+09  5599.4118      289719.04    
 1.95622099E-06 6.53053217E-09 4.28903440E+09 4.28873293E+09  5755.2099      295711.73    
 1.96932581E-06 6.57428050E-09 4.37460434E+09 4.37429685E+09  5909.1640      301586.13    
 1.98251841E-06 6.61832191E-09 4.46167104E+09 4.46135748E+09  6066.6342      307492.69    
 1.99579939E-06 6.66265834E-09 4.55321980E+09 4.55289991E+09  6236.0041      313658.72    
 2.00916934E-06 6.70729179E-09 4.64296487E+09 4.64263850E+09  6399.7620      319965.66    
 2.02262885E-06 6.75222424E-09 4.73736210E+09 4.73702881E+09  6575.9716      326708.53    
 2.03617854E-06 6.79745770E-09 4.83252081E+09 4.83218064E+09  6753.7720      333413.90    
 2.04981899E-06 6.84299417E-09 4.92800174E+09 4.92765475E+09  6931.8006      340058.88    
 2.06355082E-06 6.88883570E-09 5.02978546E+09 5.02943128E+09  7127.3108      347045.69    
 2.07737464E-06 6.93498432E-09 5.12890695E+09 5.12854588E+09  7314.4953      353764.69    
 2.09129106E-06 6.98144209E-09 5.23243757E+09 5.23206929E+09  7513.7710      360766.21    
 2.10530072E-06 7.02821109E-09 5.33825003E+09 5.33787407E+09  7719.0860      368247.15    
 2.11940422E-06 7.07529339E-09 5.44342065E+09 5.44303698E+09  7921.7345      375744.87    
 2.13360221E-06 7.12269110E-09 5.55563191E+09 5.55524010E+09  8144.5860      383663.17    
 2.14789530E-06 7.17040633E-09 5.66557920E+09 5.66517953E+09  8359.9565      391305.72    
 2.16228415E-06 7.21844121E-09 5.77911978E+09 5.77871209E+09  8585.2950      399104.62    
 2.17676939E-06 7.26679787E-09 5.89676796E+09 5.89635207E+09  8822.3536      407069.69    
 2.19135167E-06 7.31547848E-09 6.01292097E+09 6.01249695E+09  9053.9918      414969.13    
 2.20603163E-06 7.36448520E-09 6.13599421E+09 6.13556120E+09  9306.0640      423701.19    
 2.22080994E-06 7.41382021E-09 6.25825853E+09 6.25781655E+09  9554.8254      432423.03    
 2.23568724E-06 7.46348573E-09 6.38276845E+09 6.38231745E+09  9809.6093      441199.47    
 2.25066421E-06 7.51348396E-09 6.51356522E+09 6.51310483E+09  10083.287      450297.75    
 2.26574151E-06 7.56381713E-09 6.64184385E+09 6.64137439E+09  10348.061      459104.74    
 2.28091982E-06 7.61448748E-09 6.77682082E+09 6.77634194E+09  10633.158      468247.74    
 2.29619980E-06 7.66549727E-09 6.91276884E+09 6.91228037E+09  10920.451      477546.51    
 2.31158215E-06 7.71684879E-09 7.04929817E+09 7.04879971E+09  11208.497      487250.16    
 2.32706754E-06 7.76854430E-09 7.19469998E+09 7.19419081E+09  11524.414      497649.70    
 2.34265667E-06 7.82058613E-09 7.33636552E+09 7.33584608E+09  11827.063      507621.59    
 2.35835023E-06 7.87297659E-09 7.48438808E+09 7.48385801E+09  12149.479      517921.46    
 2.37414893E-06 7.92571802E-09 7.63553772E+09 7.63499694E+09  12481.230      528291.95    
 2.39005346E-06 7.97881276E-09 7.78583754E+09 7.78528624E+09  12808.881      538489.38    
 2.40606454E-06 8.03226319E-09 7.94625178E+09 7.94568912E+09  13169.432      549495.46    
 2.42218287E-06 8.08607168E-09 8.10330185E+09 8.10272761E+09  13517.422      560722.95    
 2.43840918E-06 8.14024064E-09 8.26561942E+09 8.26503322E+09  13882.006      572317.20    
 2.45474420E-06 8.19477248E-09 8.43365510E+09 8.43305668E+09  14265.048      584160.84    
 2.47118864E-06 8.24966963E-09 8.59963089E+09 8.59902055E+09  14639.568      595704.50    
 2.48774324E-06 8.30493454E-09 8.77555409E+09 8.77493127E+09  15047.395      607778.83    
 2.50440875E-06 8.36056967E-09 8.95017413E+09 8.94953906E+09  15449.336      619627.62    
 2.52118589E-06 8.41657750E-09 9.12815370E+09 9.12750595E+09  15861.560      631891.77    
 2.53807543E-06 8.47296053E-09 9.31494425E+09 9.31428263E+09  16303.771      645316.75    
 2.55507811E-06 8.52972128E-09 9.49822434E+09 9.49754923E+09  16731.863      658387.12    
 2.57219470E-06 8.58686227E-09 9.69114255E+09 9.69045337E+09  17193.119      671993.02    
 2.58942595E-06 8.64438604E-09 9.88528038E+09 9.88457724E+09  17657.318      685490.48    
 2.60677263E-06 8.70229518E-09 1.00804194E+10 1.00797024E+10  18123.358      698898.54    
 2.62423551E-06 8.76059224E-09 1.02880373E+10 1.02873057E+10  18633.818      712974.64    
 2.64181539E-06 8.81927985E-09 1.04904175E+10 1.04896713E+10  19123.144      727030.85    
 2.65951303E-06 8.87836060E-09 1.07019571E+10 1.07011952E+10  19644.777      742263.05    
 2.67732922E-06 8.93783714E-09 1.09177732E+10 1.09169953E+10  20180.810      757674.81    
 2.69526477E-06 8.99771211E-09 1.11324723E+10 1.11316788E+10  20710.555      772805.23    
 2.71332047E-06 9.05798819E-09 1.13616904E+10 1.13608804E+10  21293.872      788754.21    
 2.73149713E-06 9.11866806E-09 1.15859197E+10 1.15850937E+10  21856.127      804147.25    
 2.74979555E-06 9.17975443E-09 1.18178596E+10 1.18170173E+10  22445.982      819891.10    
 2.76821656E-06 9.24125002E-09 1.20577503E+10 1.20568905E+10  23064.888      836671.58    
 2.78676096E-06 9.30315757E-09 1.22948100E+10 1.22939326E+10  23670.405      853764.20    
 2.80542960E-06 9.36547984E-09 1.25461589E+10 1.25452628E+10  24330.205      871741.25    
 2.82422330E-06 9.42821962E-09 1.27954381E+10 1.27945238E+10  24979.630      889302.00    
 2.84314290E-06 9.49137968E-09 1.30497282E+10 1.30487956E+10  25646.560      907004.82    
 2.86218924E-06 9.55496287E-09 1.33163524E+10 1.33154008E+10  26361.067      925303.64    
 2.88136318E-06 9.61897199E-09 1.35780894E+10 1.35771193E+10  27053.192      943104.20    
 2.90066556E-06 9.68340992E-09 1.38536842E+10 1.38526939E+10  27799.431      962501.62    
 2.92009725E-06 9.74827952E-09 1.41307835E+10 1.41297724E+10  28549.444      982537.12    
 2.93965911E-06 9.81358368E-09 1.44095562E+10 1.44085245E+10  29303.441      1002449.5    
 2.95935202E-06 9.87932532E-09 1.47058643E+10 1.47048108E+10  30128.220      1023358.2    
 2.97917685E-06 9.94550737E-09 1.49948368E+10 1.49937624E+10  30919.338      1043463.4    
 2.99913449E-06 1.00121328E-08 1.52969933E+10 1.52958973E+10  31763.255      1064225.5    
 3.01922583E-06 1.00792045E-08 1.56049835E+10 1.56038657E+10  32629.329      1085229.9    
 3.03945176E-06 1.01467255E-08 1.59115192E+10 1.59103787E+10  33485.791      1106933.1    
 3.05981319E-06 1.02146989E-08 1.62388808E+10 1.62377157E+10  34429.478      1130655.9    
 3.08031101E-06 1.02831276E-08 1.65588629E+10 1.65576741E+10  35337.894      1153494.4    
 3.10094616E-06 1.03520148E-08 1.68901165E+10 1.68889034E+10  36292.179      1176873.0    
 3.12171953E-06 1.04213634E-08 1.72324077E+10 1.72311697E+10  37292.150      1200698.6    
 3.14263207E-06 1.04911766E-08 1.75708156E+10 1.75695533E+10  38271.106      1223972.0    
 3.16368471E-06 1.05614574E-08 1.79297317E+10 1.79284439E+10  39338.522      1248520.8    
 3.18487837E-06 1.06322091E-08 1.82854005E+10 1.82840862E+10  40387.773      1273916.7    
 3.20621402E-06 1.07034348E-08 1.86485245E+10 1.86471828E+10  41466.750      1300184.3    
 3.22769259E-06 1.07751376E-08 1.90288965E+10 1.90275265E+10  42621.179      1327402.9    
 3.24931505E-06 1.08473207E-08 1.94024749E+10 1.94010774E+10  43740.145      1353754.0    
 3.27108236E-06 1.09199874E-08 1.97959581E+10 1.97945320E+10  44947.395      1381171.1    
 3.29299549E-06 1.09931409E-08 2.01912494E+10 2.01897949E+10  46159.160      1408339.3    
 3.31505541E-06 1.10667844E-08 2.05892759E+10 2.05877929E+10  47378.991      1435696.4    
 3.33726312E-06 1.11409213E-08 2.10119196E+10 2.10104048E+10  48711.581      1466055.4    
 3.35961959E-06 1.12155548E-08 2.14243039E+10 2.14227580E+10  49990.575      1495884.0    
 3.38212584E-06 1.12906884E-08 2.18556490E+10 2.18540709E+10  51355.843      1526764.8    
 3.40478285E-06 1.13663252E-08 2.22949305E+10 2.22933199E+10  52755.116      1557775.3    
 3.42759164E-06 1.14424687E-08 2.27323338E+10 2.27306914E+10  54139.741      1588278.6    
 3.45055323E-06 1.15191223E-08 2.31995802E+10 2.31979041E+10  55666.373      1620397.1    
 3.47366865E-06 1.15962894E-08 2.36559377E+10 2.36542285E+10  57134.014      1651987.3    
 3.49693891E-06 1.16739735E-08 2.41287484E+10 2.41270037E+10  58677.826      1686029.5    
 3.52036506E-06 1.17521780E-08 2.46168611E+10 2.46150794E+10  60293.422      1721449.2    
 3.54394814E-06 1.18309064E-08 2.50996623E+10 2.50978445E+10  61876.063      1755985.8    
 3.56768921E-06 1.19101621E-08 2.56118694E+10 2.56100136E+10  63602.847      1792198.7    
 3.59158932E-06 1.19899488E-08 2.61190266E+10 2.61171338E+10  65298.014      1827553.9    
 3.61564954E-06 1.20702701E-08 2.66372441E+10 2.66353138E+10  67043.539      1863254.8    
 3.63987094E-06 1.21511293E-08 2.71795524E+10 2.71775825E+10  68908.676      1900957.0    
 3.66425460E-06 1.22325303E-08 2.77124349E+10 2.77104246E+10  70717.646      1939519.3    
 3.68880161E-06 1.23144766E-08 2.82738822E+10 2.82718292E+10  72670.631      1980318.7    
 3.71351306E-06 1.23969718E-08 2.88374292E+10 2.88353339E+10  74628.346      2020665.6    
 3.73839005E-06 1.24800197E-08 2.94053686E+10 2.94032311E+10  76601.732      2060835.4    
 3.76343369E-06 1.25636239E-08 3.00078229E+10 3.00056413E+10  78754.698      2102871.1    
 3.78864510E-06 1.26477882E-08 3.05959474E+10 3.05937232E+10  80822.352      2143442.6    
 3.81402541E-06 1.27325163E-08 3.12113132E+10 3.12090438E+10  83030.953      2186401.5    
 3.83957574E-06 1.28178120E-08 3.18374459E+10 3.18351286E+10  85291.591      2232027.8    
 3.86529723E-06 1.29036791E-08 3.24611858E+10 3.24588210E+10  87529.995      2277291.3    
 3.89119103E-06 1.29901214E-08 3.31276479E+10 3.31252328E+10  89999.564      2325132.0    
 3.91725829E-06 1.30771428E-08 3.37780791E+10 3.37756156E+10  92370.589      2371123.6    
 3.94350018E-06 1.31647472E-08 3.44524849E+10 3.44499718E+10  94868.008      2418254.1    
 3.96991787E-06 1.32529384E-08 3.51480673E+10 3.51455036E+10  97478.118      2466254.6    
 3.99651253E-06 1.33417205E-08 3.58364076E+10 3.58337929E+10  100036.60      2514604.0    
 4.02328535E-06 1.34310972E-08 3.65668696E+10 3.65641987E+10  102829.93      2568124.8    
 4.05023752E-06 1.35210728E-08 3.72895489E+10 3.72868227E+10  105568.52      2620598.8    
 4.07737024E-06 1.36116511E-08 3.80285950E+10 3.80258130E+10  108392.23      2673643.8    
 4.10468473E-06 1.37028361E-08 3.88012416E+10 3.87984018E+10  111405.47      2728376.3    
 4.13218219E-06 1.37946320E-08 3.95608294E+10 3.95579336E+10  114329.80      2781494.6    
