 OPTXAGNF AGN Spectrum Model Parameters: NLS, Astar 0.0                          
 M_BH:  5.0000E+08 M_0            L  :  2.0000E-02 L/Ledd 
 D   :  1.5000E+18 cm             z  :   0.000     redshift 
 Rcor:   40.00     Rg             Ro :   4.000     Rg 
 C_T :  0.2000     keV            Tau:   15.00     Optical Depth 
 gam :   2.200     (-slope)       fpl:  0.2000     Fraction 
 E              0.5DeltaE      E.FE total     E.FE Disk      E.FE Compton   E.FE NonThermal
 (keV)          (keV)          E.E/cm2/s/E    E.E/cm2/s/E    E.E/cm2/s/E    E.E/cm2/s/E    
 1.00334952E-06 3.34952256E-09 4.67466279E+08 4.67432086E+08  186.17228      34006.779    
 1.01007101E-06 3.37196116E-09 4.76702399E+08 4.76667516E+08  191.06287      34692.017    
 1.01683752E-06 3.39455008E-09 4.86325568E+08 4.86289973E+08  196.24833      35397.875    
 1.02364936E-06 3.41729032E-09 4.96213083E+08 4.96176768E+08  201.63320      36112.928    
 1.03050683E-06 3.44018290E-09 5.06014830E+08 5.05977809E+08  206.92791      36813.505    
 1.03741024E-06 3.46322884E-09 5.16448778E+08 5.16411011E+08  212.72765      37554.536    
 1.04435990E-06 3.48642917E-09 5.26724340E+08 5.26685805E+08  218.37712      38317.062    
 1.05135611E-06 3.50978492E-09 5.37281175E+08 5.37241841E+08  224.24074      39110.420    
 1.05839920E-06 3.53329712E-09 5.48278916E+08 5.48238758E+08  230.45810      39927.269    
 1.06548946E-06 3.55696684E-09 5.59108189E+08 5.59067232E+08  236.51044      40720.560    
 1.07262722E-06 3.58079512E-09 5.70555798E+08 5.70514006E+08  243.07063      41548.320    
 1.07981280E-06 3.60478303E-09 5.81986865E+08 5.81944251E+08  249.59591      42363.790    
 1.08704652E-06 3.62893164E-09 5.93567199E+08 5.93523753E+08  256.22569      43189.889    
 1.09432869E-06 3.65324201E-09 6.05798898E+08 6.05754533E+08  263.40340      44101.639    
 1.10165965E-06 3.67771524E-09 6.17763180E+08 6.17717910E+08  270.32177      44999.590    
 1.10903971E-06 3.70235243E-09 6.30322199E+08 6.30275989E+08  277.74139      45932.164    
 1.11646922E-06 3.72715465E-09 6.43037790E+08 6.42990642E+08  285.27732      46862.925    
 1.12394850E-06 3.75212303E-09 6.55740144E+08 6.55692070E+08  292.77258      47781.690    
 1.13147788E-06 3.77725867E-09 6.69343191E+08 6.69294139E+08  301.05804      48750.580    
 1.13905770E-06 3.80256270E-09 6.82561107E+08 6.82511099E+08  308.96635      49699.361    
 1.14668830E-06 3.82803623E-09 6.96338599E+08 6.96287553E+08  317.35717      50727.957    
 1.15437002E-06 3.85368042E-09 7.10481968E+08 7.10429851E+08  326.05921      51791.022    
 1.16210319E-06 3.87949640E-09 7.24508847E+08 7.24455681E+08  334.62099      52830.925    
 1.16988818E-06 3.90548532E-09 7.39446033E+08 7.39391764E+08  344.00559      53924.492    
 1.17772531E-06 3.93164835E-09 7.54143960E+08 7.54088621E+08  353.13501      54985.795    
 1.18561494E-06 3.95798663E-09 7.69257172E+08 7.69200746E+08  362.62320      56063.796    
 1.19355743E-06 3.98450137E-09 7.84987344E+08 7.84929774E+08  372.67060      57196.419    
 1.20155313E-06 4.01119372E-09 8.00483531E+08 8.00424791E+08  382.45747      58357.415    
 1.20960239E-06 4.03806489E-09 8.16870825E+08 8.16810842E+08  393.07256      59589.812    
 1.21770557E-06 4.06511607E-09 8.33220359E+08 8.33159154E+08  403.61732      60800.920    
 1.22586303E-06 4.09234846E-09 8.49797855E+08 8.49735427E+08  414.34530      62014.191    
 1.23407514E-06 4.11976329E-09 8.67291564E+08 8.67227862E+08  425.94470      63276.317    
 1.24234227E-06 4.14736177E-09 8.84410518E+08 8.84345583E+08  437.13192      64498.019    
 1.25066478E-06 4.17514513E-09 9.02387520E+08 9.02321275E+08  449.13770      65796.272    
 1.25904304E-06 4.20311462E-09 9.20572784E+08 9.20505156E+08  461.31569      67166.025    
 1.26747742E-06 4.23127147E-09 9.38755302E+08 9.38686298E+08  473.44419      68530.448    
 1.27596831E-06 4.25961695E-09 9.58208790E+08 9.58138330E+08  486.83378      69972.992    
 1.28451608E-06 4.28815232E-09 9.77120114E+08 9.77048260E+08  499.62171      71354.996    
 1.29312111E-06 4.31687884E-09 9.96839889E+08 9.96766597E+08  513.19904      72778.473    
 1.30178379E-06 4.34579781E-09 1.01706527E+09 1.01699052E+09  527.26150      74220.183    
 1.31050450E-06 4.37491051E-09 1.03713300E+09 1.03705679E+09  541.10609      75676.428    
 1.31928362E-06 4.40421823E-09 1.05851098E+09 1.05843313E+09  556.29114      77293.512    
 1.32812156E-06 4.43372228E-09 1.07952885E+09 1.07944941E+09  571.04387      78868.828    
 1.33701871E-06 4.46342399E-09 1.10115904E+09 1.10107798E+09  586.39691      80471.392    
 1.34597546E-06 4.49332467E-09 1.12365173E+09 1.12356901E+09  602.63352      82114.950    
 1.35499221E-06 4.52342565E-09 1.14581970E+09 1.14573537E+09  618.45902      83714.851    
 1.36406936E-06 4.55372829E-09 1.16927120E+09 1.16918518E+09  635.63516      85385.399    
 1.37320733E-06 4.58423392E-09 1.19264868E+09 1.19256093E+09  652.67507      87095.294    
 1.38240650E-06 4.61494391E-09 1.21637285E+09 1.21628329E+09  670.03429      88890.100    
 1.39166731E-06 4.64585962E-09 1.24138501E+09 1.24129355E+09  688.77896      90768.261    
 1.40099015E-06 4.67698245E-09 1.26587247E+09 1.26577919E+09  706.86879      92579.867    
 1.41037545E-06 4.70831376E-09 1.29159716E+09 1.29150197E+09  726.29521      94459.982    
 1.41982361E-06 4.73985497E-09 1.31759701E+09 1.31749993E+09  745.97442      96333.851    
 1.42933508E-06 4.77160747E-09 1.34361604E+09 1.34351709E+09  765.59991      98188.255    
 1.43891026E-06 4.80357269E-09 1.37142753E+09 1.37132651E+09  787.23759      100235.00    
 1.44854958E-06 4.83575204E-09 1.39847649E+09 1.39837339E+09  807.91568      102285.67    
 1.45825348E-06 4.86814696E-09 1.42669291E+09 1.42658768E+09  829.88505      104402.94    
 1.46802239E-06 4.90075889E-09 1.45560697E+09 1.45549957E+09  852.60956      106542.46    
 1.47785673E-06 4.93358930E-09 1.48430836E+09 1.48419885E+09  874.99619      108639.69    
 1.48775696E-06 4.96663964E-09 1.51489442E+09 1.51478268E+09  899.56645      110843.03    
 1.49772351E-06 4.99991138E-09 1.54494016E+09 1.54482624E+09  923.40581      112990.43    
 1.50775683E-06 5.03340601E-09 1.57588759E+09 1.57577136E+09  948.24850      115279.76    
 1.51785736E-06 5.06712502E-09 1.60803978E+09 1.60792108E+09  974.48642      117720.70    
 1.52802556E-06 5.10106992E-09 1.63974212E+09 1.63962103E+09  1000.0761      120095.43    
 1.53826187E-06 5.13524222E-09 1.67329227E+09 1.67316866E+09  1027.8681      122579.25    
 1.54856676E-06 5.16964344E-09 1.70670789E+09 1.70658182E+09  1055.4034      125018.18    
 1.55894067E-06 5.20427512E-09 1.74064839E+09 1.74051984E+09  1083.4923      127466.24    
 1.56938409E-06 5.23913879E-09 1.77639812E+09 1.77626699E+09  1113.7833      130024.50    
 1.57989746E-06 5.27423602E-09 1.81141413E+09 1.81128035E+09  1143.0342      132633.60    
 1.59048127E-06 5.30956836E-09 1.84821320E+09 1.84807660E+09  1174.4673      135426.62    
 1.60113597E-06 5.34513740E-09 1.88537346E+09 1.88523404E+09  1206.2677      138210.77    
 1.61186206E-06 5.38094472E-09 1.92259415E+09 1.92245194E+09  1238.0237      140964.77    
 1.62265999E-06 5.41699191E-09 1.96234081E+09 1.96219567E+09  1272.9898      143865.70    
 1.63353026E-06 5.45328058E-09 2.00101563E+09 2.00086767E+09  1306.4256      146652.81    
 1.64447336E-06 5.48981235E-09 2.04137535E+09 2.04122445E+09  1341.9735      149551.87    
 1.65548976E-06 5.52658885E-09 2.08269616E+09 2.08254213E+09  1378.6949      152649.46    
 1.66657996E-06 5.56361172E-09 2.12373145E+09 2.12357428E+09  1414.8934      155759.02    
 1.67774445E-06 5.60088261E-09 2.16747635E+09 2.16731585E+09  1454.6487      159041.12    
 1.68898374E-06 5.63840317E-09 2.21041284E+09 2.21024913E+09  1493.1707      162214.36    
 1.70029832E-06 5.67617509E-09 2.25467498E+09 2.25450800E+09  1533.3678      165446.89    
 1.71168869E-06 5.71420004E-09 2.30061799E+09 2.30044766E+09  1575.7668      168753.96    
 1.72315537E-06 5.75247973E-09 2.34593884E+09 2.34576520E+09  1617.1442      172026.14    
 1.73469887E-06 5.79101585E-09 2.39391844E+09 2.39374114E+09  1662.1124      175636.36    
 1.74631969E-06 5.82981012E-09 2.44166520E+09 2.44148424E+09  1706.6068      179258.02    
 1.75801837E-06 5.86886429E-09 2.49020382E+09 2.49001917E+09  1752.0566      182895.60    
 1.76979541E-06 5.90818007E-09 2.54128179E+09 2.54109331E+09  1801.0051      186673.47    
 1.78165135E-06 5.94775924E-09 2.59133440E+09 2.59114223E+09  1848.3023      190326.90    
 1.79358672E-06 5.98760354E-09 2.64395490E+09 2.64375888E+09  1899.1621      194116.88    
 1.80560203E-06 6.02771477E-09 2.69704570E+09 2.69684578E+09  1950.5484      197969.11    
 1.81769784E-06 6.06809470E-09 2.75027018E+09 2.75006619E+09  2001.9319      201983.58    
 1.82987468E-06 6.10874514E-09 2.80705198E+09 2.80684362E+09  2058.4352      206302.11    
 1.84213310E-06 6.14966790E-09 2.86232862E+09 2.86211607E+09  2112.4990      210438.91    
 1.85447363E-06 6.19086481E-09 2.92003524E+09 2.91981836E+09  2170.0165      214708.30    
 1.86689683E-06 6.23233769E-09 2.97906297E+09 2.97884173E+09  2229.3549      219014.40    
 1.87940326E-06 6.27408840E-09 3.03770904E+09 3.03748351E+09  2287.8855      223244.76    
 1.89199346E-06 6.31611880E-09 3.10024826E+09 3.10001811E+09  2352.2093      227794.21    
 1.90466801E-06 6.35843077E-09 3.16158169E+09 3.16134683E+09  2414.4556      232450.94    
 1.91742747E-06 6.40102618E-09 3.22486158E+09 3.22462185E+09  2479.4958      237256.71    
 1.93027240E-06 6.44390694E-09 3.29048418E+09 3.29023946E+09  2548.0087      242174.90    
 1.94320339E-06 6.48707497E-09 3.35524770E+09 3.35499812E+09  2614.9129      246963.89    
 1.95622099E-06 6.53053217E-09 3.42383370E+09 3.42357905E+09  2687.6711      251969.28    
 1.96932581E-06 6.57428050E-09 3.49202924E+09 3.49176959E+09  2759.5682      256887.11    
 1.98251841E-06 6.61832191E-09 3.56141538E+09 3.56115059E+09  2833.1074      261955.87    
 1.99579939E-06 6.66265834E-09 3.63436280E+09 3.63409236E+09  2912.2038      267526.69    
 2.00916934E-06 6.70729179E-09 3.70587933E+09 3.70560339E+09  2988.6795      272949.22    
 2.02262885E-06 6.75222424E-09 3.78109156E+09 3.78080990E+09  3070.9701      278589.37    
 2.03617854E-06 6.79745770E-09 3.85691005E+09 3.85662271E+09  3154.0038      284194.30    
 2.04981899E-06 6.84299417E-09 3.93298638E+09 3.93269339E+09  3237.1439      289752.28    
 2.06355082E-06 6.88883570E-09 4.01406810E+09 4.01376918E+09  3328.4482      295592.66    
 2.07737464E-06 6.93498432E-09 4.09303855E+09 4.09273373E+09  3415.8643      301408.07    
 2.09129106E-06 6.98144209E-09 4.17551120E+09 4.17519997E+09  3508.9272      307719.34    
 2.10530072E-06 7.02821109E-09 4.25979657E+09 4.25947884E+09  3604.8104      314119.74    
 2.11940422E-06 7.07529339E-09 4.34357465E+09 4.34325055E+09  3699.4484      320397.15    
 2.13360221E-06 7.12269110E-09 4.43294218E+09 4.43261137E+09  3803.5214      327009.24    
 2.14789530E-06 7.17040633E-09 4.52051526E+09 4.52017796E+09  3904.1008      333401.29    
 2.16228415E-06 7.21844121E-09 4.61094201E+09 4.61059808E+09  4009.3353      339920.76    
 2.17676939E-06 7.26679787E-09 4.70463024E+09 4.70427925E+09  4120.0433      346870.30    
 2.19135167E-06 7.31547848E-09 4.79713495E+09 4.79677676E+09  4228.2198      353960.60    
 2.20603163E-06 7.36448520E-09 4.89513160E+09 4.89476584E+09  4345.9394      361413.31    
 2.22080994E-06 7.41382021E-09 4.99248880E+09 4.99211563E+09  4462.1127      368706.15    
 2.23568724E-06 7.46348573E-09 5.09162999E+09 5.09124937E+09  4581.0987      376044.95    
 2.25066421E-06 7.51348396E-09 5.19575982E+09 5.19537147E+09  4708.9082      383644.16    
 2.26574151E-06 7.56381713E-09 5.29789542E+09 5.29749956E+09  4832.5599      391029.03    
 2.28091982E-06 7.61448748E-09 5.40534601E+09 5.40494199E+09  4965.7023      399048.61    
 2.29619980E-06 7.66549727E-09 5.51356941E+09 5.51315695E+09  5099.8705      407360.58    
 2.31158215E-06 7.71684879E-09 5.62225659E+09 5.62183574E+09  5234.3907      415615.14    
 2.32706754E-06 7.76854430E-09 5.73798057E+09 5.73755089E+09  5381.9264      424298.96    
 2.34265667E-06 7.82058613E-09 5.85074571E+09 5.85030755E+09  5523.2665      432640.97    
 2.35835023E-06 7.87297659E-09 5.96855333E+09 5.96810641E+09  5673.8377      441248.90    
 2.37414893E-06 7.92571802E-09 6.08884259E+09 6.08838679E+09  5828.7686      449967.35    
 2.39005346E-06 7.97881276E-09 6.20846241E+09 6.20799748E+09  5981.7848      458948.12    
 2.40606454E-06 8.03226319E-09 6.33610117E+09 6.33562625E+09  6150.1659      468776.49    
 2.42218287E-06 8.08607168E-09 6.46107700E+09 6.46059243E+09  6312.6805      478261.99    
 2.43840918E-06 8.14024064E-09 6.59023044E+09 6.58973600E+09  6482.9447      487954.48    
 2.45474420E-06 8.19477248E-09 6.72391767E+09 6.72341316E+09  6661.8297      497849.80    
 2.47118864E-06 8.24966963E-09 6.85597710E+09 6.85546276E+09  6836.7345      507506.73    
 2.48774324E-06 8.30493454E-09 6.99592032E+09 6.99539562E+09  7027.1941      517676.76    
 2.50440875E-06 8.36056967E-09 7.13483570E+09 7.13430029E+09  7214.9053      528194.88    
 2.52118589E-06 8.41657750E-09 7.27641649E+09 7.27587001E+09  7407.4185      539080.76    
 2.53807543E-06 8.47296053E-09 7.42497847E+09 7.42442047E+09  7613.9365      550386.31    
 2.55507811E-06 8.52972128E-09 7.57076504E+09 7.57019591E+09  7813.8605      561320.74    
 2.57219470E-06 8.58686227E-09 7.72418771E+09 7.72360699E+09  8029.2728      572688.75    
 2.58942595E-06 8.64438604E-09 7.87858033E+09 7.87798811E+09  8246.0594      583972.35    
 2.60677263E-06 8.70229518E-09 8.03377094E+09 8.03316718E+09  8463.7060      595300.26    
 2.62423551E-06 8.76059224E-09 8.19884483E+09 8.19822826E+09  8702.0978      607876.25    
 2.64181539E-06 8.81927985E-09 8.35977785E+09 8.35914866E+09  8930.6192      620254.26    
 2.65951303E-06 8.87836060E-09 8.52796497E+09 8.52732274E+09  9174.2291      633058.25    
 2.67732922E-06 8.93783714E-09 8.69954124E+09 8.69888587E+09  9424.5637      645938.86    
 2.69526477E-06 8.99771211E-09 8.87023962E+09 8.86957135E+09  9671.9619      658596.81    
 2.71332047E-06 9.05798819E-09 9.05243096E+09 9.05174910E+09  9944.3797      671915.62    
 2.73149713E-06 9.11866806E-09 9.23068113E+09 9.22998591E+09  10206.961      685010.83    
 2.74979555E-06 9.17975443E-09 9.41503819E+09 9.41432862E+09  10482.432      699095.40    
 2.76821656E-06 9.24125002E-09 9.60568955E+09 9.60496497E+09  10771.470      713808.88    
 2.78676096E-06 9.30315757E-09 9.79410792E+09 9.79336872E+09  11054.256      728141.16    
 2.80542960E-06 9.36547984E-09 9.99383293E+09 9.99307841E+09  11362.393      743157.65    
 2.82422330E-06 9.42821962E-09 1.01919276E+10 1.01911581E+10  11665.685      757842.94    
 2.84314290E-06 9.49137968E-09 1.03939918E+10 1.03932072E+10  11977.152      772646.63    
 2.86218924E-06 9.55496287E-09 1.06058140E+10 1.06050134E+10  12310.838      788265.48    
 2.88136318E-06 9.61897199E-09 1.08137809E+10 1.08129640E+10  12634.072      804247.65    
 2.90066556E-06 9.68340992E-09 1.10327088E+10 1.10318746E+10  12982.578      821165.81    
 2.92009725E-06 9.74827952E-09 1.12528321E+10 1.12519809E+10  13332.848      837926.19    
 2.93965911E-06 9.81358368E-09 1.14742865E+10 1.14734183E+10  13684.977      854582.68    
 2.95935202E-06 9.87932532E-09 1.17096048E+10 1.17087187E+10  14070.164      872044.28    
 2.97917685E-06 9.94550737E-09 1.19391351E+10 1.19382318E+10  14439.630      888877.78    
 2.99913449E-06 1.00121328E-08 1.21790906E+10 1.21781691E+10  14833.755      906640.54    
 3.01922583E-06 1.00792045E-08 1.24236635E+10 1.24227227E+10  15238.228      925577.26    
 3.03945176E-06 1.01467255E-08 1.26670964E+10 1.26661364E+10  15638.211      944362.95    
 3.05981319E-06 1.02146989E-08 1.29269854E+10 1.29260051E+10  16078.932      964203.23    
 3.08031101E-06 1.02831276E-08 1.31810558E+10 1.31800560E+10  16503.180      983308.60    
 3.10094616E-06 1.03520148E-08 1.34440368E+10 1.34430170E+10  16948.850      1002853.7    
 3.12171953E-06 1.04213634E-08 1.37157413E+10 1.37147011E+10  17415.857      1022780.4    
 3.14263207E-06 1.04911766E-08 1.39843916E+10 1.39833310E+10  17873.049      1042791.1    
 3.16368471E-06 1.05614574E-08 1.42692416E+10 1.42681582E+10  18371.555      1064973.3    
 3.18487837E-06 1.06322091E-08 1.45515376E+10 1.45504319E+10  18861.577      1086773.9    
 3.20621402E-06 1.07034348E-08 1.48397286E+10 1.48386005E+10  19365.482      1108771.4    
 3.22769259E-06 1.07751376E-08 1.51415404E+10 1.51403889E+10  19904.626      1131509.9    
 3.24931505E-06 1.08473207E-08 1.54380037E+10 1.54368298E+10  20427.207      1153556.8    
 3.27108236E-06 1.09199874E-08 1.57501825E+10 1.57489851E+10  20991.020      1176466.0    
 3.29299549E-06 1.09931409E-08 1.60637999E+10 1.60625783E+10  21556.941      1200047.7    
 3.31505541E-06 1.10667844E-08 1.63795893E+10 1.63783425E+10  22126.630      1224672.1    
 3.33726312E-06 1.11409213E-08 1.67148036E+10 1.67135302E+10  22748.981      1250659.3    
 3.35961959E-06 1.12155548E-08 1.70419405E+10 1.70406415E+10  23346.301      1275622.0    
 3.38212584E-06 1.12906884E-08 1.73840415E+10 1.73827161E+10  23983.914      1301432.9    
 3.40478285E-06 1.13663252E-08 1.77324122E+10 1.77310602E+10  24637.408      1327354.1    
 3.42759164E-06 1.14424687E-08 1.80793182E+10 1.80779401E+10  25284.062      1352883.9    
 3.45055323E-06 1.15191223E-08 1.84497606E+10 1.84483536E+10  25997.037      1380965.2    
 3.47366865E-06 1.15962894E-08 1.88116370E+10 1.88102011E+10  26682.463      1409254.1    
 3.49693891E-06 1.16739735E-08 1.91864939E+10 1.91850282E+10  27403.462      1438312.0    
 3.52036506E-06 1.17521780E-08 1.95734211E+10 1.95719251E+10  28157.987      1467911.5    
 3.54394814E-06 1.18309064E-08 1.99561815E+10 1.99546558E+10  28897.122      1496808.2    
 3.56768921E-06 1.19101621E-08 2.03621209E+10 2.03605641E+10  29703.576      1527060.1    
 3.59158932E-06 1.19899488E-08 2.07640996E+10 2.07625124E+10  30495.265      1556756.8    
 3.61564954E-06 1.20702701E-08 2.11748091E+10 2.11731897E+10  31310.472      1588075.7    
 3.63987094E-06 1.21511293E-08 2.16045047E+10 2.16028507E+10  32181.543      1621807.3    
 3.66425460E-06 1.22325303E-08 2.20267973E+10 2.20251098E+10  33026.382      1654525.4    
 3.68880161E-06 1.23144766E-08 2.24715948E+10 2.24698722E+10  33938.482      1688618.3    
 3.71351306E-06 1.23969718E-08 2.29180634E+10 2.29163062E+10  34852.791      1722355.2    
 3.73839005E-06 1.24800197E-08 2.33680113E+10 2.33662196E+10  35774.419      1755959.3    
 3.76343369E-06 1.25636239E-08 2.38451372E+10 2.38433091E+10  36779.918      1791310.9    
 3.78864510E-06 1.26477882E-08 2.43110121E+10 2.43091472E+10  37745.573      1827157.1    
 3.81402541E-06 1.27325163E-08 2.47983403E+10 2.47964361E+10  38777.056      1865456.4    
 3.83957574E-06 1.28178120E-08 2.52941564E+10 2.52922126E+10  39832.843      1903972.8    
 3.86529723E-06 1.29036791E-08 2.57881160E+10 2.57861333E+10  40878.246      1941846.8    
 3.89119103E-06 1.29901214E-08 2.63156917E+10 2.63136679E+10  42031.613      1981803.4    
 3.91725829E-06 1.30771428E-08 2.68306874E+10 2.68286240E+10  43138.956      2020283.1    
 3.94350018E-06 1.31647472E-08 2.73645576E+10 2.73624532E+10  44305.330      2060029.7    
 3.96991787E-06 1.32529384E-08 2.79150988E+10 2.79129506E+10  45524.336      2102733.5    
 3.99651253E-06 1.33417205E-08 2.84599770E+10 2.84577847E+10  46719.232      2145564.9    
 4.02328535E-06 1.34310972E-08 2.90379782E+10 2.90357396E+10  48023.811      2190607.2    
 4.05023752E-06 1.35210728E-08 2.96098913E+10 2.96076075E+10  49302.821      2234499.7    
 4.07737024E-06 1.36116511E-08 3.01946932E+10 3.01923637E+10  50621.590      2278864.1    
 4.10468473E-06 1.37028361E-08 3.08059133E+10 3.08035367E+10  52028.878      2324595.4    
 4.13218219E-06 1.37946320E-08 3.14069105E+10 3.14044875E+10  53394.639      2369608.5    
