 OPTXAGNF AGN Spectrum Model Parameters: NLS, Astar 0.0                          
 M_BH:  5.0000E+08 M_0            L  :  3.0000E-02 L/Ledd 
 D   :  1.5000E+18 cm             z  :   0.000     redshift 
 Rcor:   40.00     Rg             Ro :   4.000     Rg 
 C_T :  0.2000     keV            Tau:   15.00     Optical Depth 
 gam :   2.200     (-slope)       fpl:  0.2000     Fraction 
 E              0.5DeltaE      E.FE total     E.FE Disk      E.FE Compton   E.FE NonThermal
 (keV)          (keV)          E.E/cm2/s/E    E.E/cm2/s/E    E.E/cm2/s/E    E.E/cm2/s/E    
 1.00334952E-06 3.34952256E-09 5.17949497E+08 5.17911588E+08  186.76494      37722.342    
 1.01007101E-06 3.37196116E-09 5.28187024E+08 5.28148340E+08  191.67117      38492.105    
 1.01683752E-06 3.39455008E-09 5.38853862E+08 5.38814374E+08  196.87323      39290.568    
 1.02364936E-06 3.41729032E-09 5.49813901E+08 5.49773599E+08  202.27533      40099.638    
 1.03050683E-06 3.44018290E-09 5.60678726E+08 5.60637627E+08  207.58699      40891.483    
 1.03741024E-06 3.46322884E-09 5.72244846E+08 5.72202910E+08  213.40531      41722.634    
 1.04435990E-06 3.48642917E-09 5.83635145E+08 5.83592393E+08  219.07287      42533.182    
 1.05135611E-06 3.50978492E-09 5.95337433E+08 5.95293823E+08  224.95527      43385.100    
 1.05839920E-06 3.53329712E-09 6.07528864E+08 6.07484328E+08  231.19255      44304.423    
 1.06548946E-06 3.55696684E-09 6.19533316E+08 6.19487878E+08  237.26428      45201.052    
 1.07262722E-06 3.58079512E-09 6.32223735E+08 6.32177353E+08  243.84549      46137.906    
 1.07981280E-06 3.60478303E-09 6.44895732E+08 6.44848422E+08  250.39169      47060.102    
 1.08704652E-06 3.62893164E-09 6.57733251E+08 6.57685011E+08  257.04272      47983.319    
 1.09432869E-06 3.65324201E-09 6.71293364E+08 6.71244152E+08  264.24346      48947.519    
 1.10165965E-06 3.67771524E-09 6.84556706E+08 6.84506515E+08  271.18401      49919.686    
 1.10903971E-06 3.70235243E-09 6.98479913E+08 6.98428664E+08  278.62743      50970.351    
 1.11646922E-06 3.72715465E-09 7.12576780E+08 7.12524470E+08  286.18754      52023.204    
 1.12394850E-06 3.75212303E-09 7.26658864E+08 7.26605508E+08  293.70685      53061.682    
 1.13147788E-06 3.77725867E-09 7.41740317E+08 7.41685856E+08  302.01891      54158.789    
 1.13905770E-06 3.80256270E-09 7.56394295E+08 7.56338774E+08  309.95260      55211.143    
 1.14668830E-06 3.82803623E-09 7.71669072E+08 7.71612455E+08  318.37036      56299.030    
 1.15437002E-06 3.85368042E-09 7.87349808E+08 7.87292025E+08  327.10035      57455.271    
 1.16210319E-06 3.87949640E-09 8.02901208E+08 8.02842244E+08  335.68963      58628.254    
 1.16988818E-06 3.90548532E-09 8.19462726E+08 8.19402515E+08  345.10438      59866.286    
 1.17772531E-06 3.93164835E-09 8.35758623E+08 8.35697203E+08  354.26313      61066.153    
 1.18561494E-06 3.95798663E-09 8.52515282E+08 8.52452633E+08  363.78181      62285.292    
 1.19355743E-06 3.98450137E-09 8.69956518E+08 8.69892608E+08  373.86151      63535.873    
 1.20155313E-06 4.01119372E-09 8.87137901E+08 8.87072755E+08  383.67984      64762.247    
 1.20960239E-06 4.03806489E-09 9.05308202E+08 9.05241700E+08  394.32908      66108.140    
 1.21770557E-06 4.06511607E-09 9.23436533E+08 9.23368650E+08  404.90775      67477.735    
 1.22586303E-06 4.09234846E-09 9.41817744E+08 9.41748479E+08  415.67024      68849.488    
 1.23407514E-06 4.11976329E-09 9.61215761E+08 9.61145056E+08  427.30697      70278.271    
 1.24234227E-06 4.14736177E-09 9.80197692E+08 9.80125595E+08  438.53019      71657.780    
 1.25066478E-06 4.17514513E-09 1.00013185E+09 1.00005831E+09  450.57463      73087.401    
 1.25904304E-06 4.20311462E-09 1.02029698E+09 1.02022199E+09  462.79183      74528.305    
 1.26747742E-06 4.23127147E-09 1.04045898E+09 1.04038247E+09  474.95938      76029.078    
 1.27596831E-06 4.25961695E-09 1.06203170E+09 1.06195355E+09  488.39211      77662.532    
 1.28451608E-06 4.28815232E-09 1.08300244E+09 1.08292272E+09  501.22123      79224.581    
 1.29312111E-06 4.31687884E-09 1.10487047E+09 1.10478912E+09  514.84232      80834.879    
 1.30178379E-06 4.34579781E-09 1.12729962E+09 1.12721663E+09  528.95011      82463.282    
 1.31050450E-06 4.37491051E-09 1.14955355E+09 1.14946895E+09  542.83932      84060.295    
 1.31928362E-06 4.40421823E-09 1.17326180E+09 1.17317548E+09  558.07335      85754.568    
 1.32812156E-06 4.43372228E-09 1.19657020E+09 1.19648212E+09  572.87366      87505.011    
 1.33701871E-06 4.46342399E-09 1.22055825E+09 1.22046834E+09  588.27623      89317.225    
 1.34597546E-06 4.49332467E-09 1.24550369E+09 1.24541191E+09  604.56523      91177.323    
 1.35499221E-06 4.52342565E-09 1.27008843E+09 1.26999483E+09  620.44180      92985.678    
 1.36406936E-06 4.55372829E-09 1.29609804E+09 1.29600253E+09  637.67340      94873.893    
 1.37320733E-06 4.58423392E-09 1.32202521E+09 1.32192782E+09  654.76833      96731.101    
 1.38240650E-06 4.61494391E-09 1.34833703E+09 1.34823774E+09  672.18361      98622.350    
 1.39166731E-06 4.64585962E-09 1.37607888E+09 1.37597747E+09  690.98885      100714.50    
 1.40099015E-06 4.67698245E-09 1.40323795E+09 1.40313447E+09  709.13711      102761.83    
 1.41037545E-06 4.70831376E-09 1.43177059E+09 1.43166497E+09  728.62633      104889.29    
 1.41982361E-06 4.73985497E-09 1.46060857E+09 1.46050082E+09  748.36916      107008.92    
 1.42933508E-06 4.77160747E-09 1.48946761E+09 1.48935774E+09  768.05809      109105.07    
 1.43891026E-06 4.80357269E-09 1.52031678E+09 1.52020468E+09  789.76578      111311.45    
 1.44854958E-06 4.83575204E-09 1.55031890E+09 1.55020460E+09  810.51074      113485.61    
 1.45825348E-06 4.86814696E-09 1.58161736E+09 1.58150068E+09  832.55120      115847.07    
 1.46802239E-06 4.90075889E-09 1.61369037E+09 1.61357125E+09  855.34927      118267.83    
 1.47785673E-06 4.93358930E-09 1.64552692E+09 1.64540541E+09  877.80836      120638.33    
 1.48775696E-06 4.96663964E-09 1.67945633E+09 1.67933230E+09  902.45821      123132.83    
 1.49772351E-06 4.99991138E-09 1.71278537E+09 1.71265889E+09  926.37477      125549.90    
 1.50775683E-06 5.03340601E-09 1.74711544E+09 1.74698648E+09  951.29794      128009.10    
 1.51785736E-06 5.06712502E-09 1.78278332E+09 1.78265174E+09  977.62090      130607.04    
 1.52802556E-06 5.10106992E-09 1.81795138E+09 1.81781711E+09  1003.2935      133265.03    
 1.53826187E-06 5.13524222E-09 1.85517157E+09 1.85503447E+09  1031.1756      136076.40    
 1.54856676E-06 5.16964344E-09 1.89224206E+09 1.89210216E+09  1058.8002      138834.45    
 1.55894067E-06 5.20427512E-09 1.92989521E+09 1.92975252E+09  1086.9803      141602.44    
 1.56938409E-06 5.23913879E-09 1.96955775E+09 1.96941216E+09  1117.3695      144476.57    
 1.57989746E-06 5.27423602E-09 2.00840476E+09 2.00825635E+09  1146.7153      147263.04    
 1.59048127E-06 5.30956836E-09 2.04923216E+09 2.04908073E+09  1178.2505      150248.65    
 1.60113597E-06 5.34513740E-09 2.09046061E+09 2.09030603E+09  1210.1542      153376.97    
 1.61186206E-06 5.38094472E-09 2.13175582E+09 2.13159809E+09  1242.0133      156490.04    
 1.62265999E-06 5.41699191E-09 2.17585693E+09 2.17569588E+09  1277.0930      159774.80    
 1.63353026E-06 5.45328058E-09 2.21876685E+09 2.21860262E+09  1310.6375      162925.10    
 1.64447336E-06 5.48981235E-09 2.26354827E+09 2.26338075E+09  1346.3009      166172.33    
 1.65548976E-06 5.52658885E-09 2.30939695E+09 2.30922610E+09  1383.1418      169460.98    
 1.66657996E-06 5.56361172E-09 2.35492799E+09 2.35475376E+09  1419.4580      172807.63    
 1.67774445E-06 5.60088261E-09 2.40346941E+09 2.40329145E+09  1459.3427      176503.50    
 1.68898374E-06 5.63840317E-09 2.45111219E+09 2.45093060E+09  1497.9900      180090.94    
 1.70029832E-06 5.67617509E-09 2.50022748E+09 2.50004220E+09  1538.3179      183746.96    
 1.71168869E-06 5.71420004E-09 2.55121012E+09 2.55102105E+09  1580.8550      187489.67    
 1.72315537E-06 5.75247973E-09 2.60150085E+09 2.60130809E+09  1622.3671      191136.65    
 1.73469887E-06 5.79101585E-09 2.65474543E+09 2.65454880E+09  1667.4819      194957.37    
 1.74631969E-06 5.82981012E-09 2.70773088E+09 2.70753028E+09  1712.1213      198882.95    
 1.75801837E-06 5.86886429E-09 2.76159591E+09 2.76139117E+09  1757.7192      202981.79    
 1.76979541E-06 5.90818007E-09 2.81828258E+09 2.81807352E+09  1806.8274      207258.44    
 1.78165135E-06 5.94775924E-09 2.87382914E+09 2.87361590E+09  1854.2789      211387.98    
 1.79358672E-06 5.98760354E-09 2.93222909E+09 2.93201151E+09  1905.3046      215676.77    
 1.80560203E-06 6.02771477E-09 2.99115113E+09 2.99092923E+09  1956.8586      219944.22    
 1.81769784E-06 6.06809470E-09 3.05022090E+09 3.04999470E+09  2008.4098      224190.64    
 1.82987468E-06 6.10874514E-09 3.11324422E+09 3.11301326E+09  2065.0977      228887.58    
 1.84213310E-06 6.14966790E-09 3.17459407E+09 3.17435838E+09  2119.3381      233562.33    
 1.85447363E-06 6.19086481E-09 3.23864432E+09 3.23840375E+09  2177.0435      238392.44    
 1.86689683E-06 6.23233769E-09 3.30416254E+09 3.30391704E+09  2236.5759      243264.51    
 1.87940326E-06 6.27408840E-09 3.36925574E+09 3.36900540E+09  2295.2978      248045.11    
 1.89199346E-06 6.31611880E-09 3.43867609E+09 3.43842066E+09  2359.8321      253070.74    
 1.90466801E-06 6.35843077E-09 3.50675504E+09 3.50649464E+09  2422.2820      257976.44    
 1.91742747E-06 6.40102618E-09 3.57699734E+09 3.57673162E+09  2487.5350      263236.39    
 1.93027240E-06 6.44390694E-09 3.64984370E+09 3.64957235E+09  2556.2723      268802.48    
 1.94320339E-06 6.48707497E-09 3.72173411E+09 3.72145727E+09  2623.3955      274215.59    
 1.95622099E-06 6.53053217E-09 3.79787375E+09 3.79759118E+09  2696.3921      279881.34    
 1.96932581E-06 6.57428050E-09 3.87357847E+09 3.87329026E+09  2768.5248      285435.58    
 1.98251841E-06 6.61832191E-09 3.95060599E+09 3.95031213E+09  2842.3050      291020.23    
 1.99579939E-06 6.66265834E-09 4.03159238E+09 4.03129260E+09  2921.6609      296857.29    
 2.00916934E-06 6.70729179E-09 4.11098707E+09 4.11068122E+09  2998.3873      302851.71    
 2.02262885E-06 6.75222424E-09 4.19449069E+09 4.19417838E+09  3080.9480      309233.47    
 2.03617854E-06 6.79745770E-09 4.27866763E+09 4.27834889E+09  3164.2542      315573.40    
 2.04981899E-06 6.84299417E-09 4.36313025E+09 4.36280515E+09  3247.6672      321856.44    
 2.06355082E-06 6.88883570E-09 4.45315866E+09 4.45282686E+09  3339.2715      328462.10    
 2.07737464E-06 6.93498432E-09 4.54083776E+09 4.54049952E+09  3426.9748      334815.16    
 2.09129106E-06 6.98144209E-09 4.63241067E+09 4.63206570E+09  3520.3435      341447.97    
 2.10530072E-06 7.02821109E-09 4.72599915E+09 4.72564698E+09  3616.5420      348556.86    
 2.11940422E-06 7.07529339E-09 4.81902232E+09 4.81866296E+09  3711.4912      355649.41    
 2.13360221E-06 7.12269110E-09 4.91826175E+09 4.91789480E+09  3815.9068      363135.91    
 2.14789530E-06 7.17040633E-09 5.01550397E+09 5.01512970E+09  3916.8171      370362.30    
 2.16228415E-06 7.21844121E-09 5.11591934E+09 5.11553758E+09  4022.3980      377736.33    
 2.17676939E-06 7.26679787E-09 5.21996147E+09 5.21957207E+09  4133.4707      385267.24    
 2.19135167E-06 7.31547848E-09 5.32268545E+09 5.32228845E+09  4242.0036      392758.15    
 2.20603163E-06 7.36448520E-09 5.43151845E+09 5.43111304E+09  4360.1112      401052.02    
 2.22080994E-06 7.41382021E-09 5.53963892E+09 5.53922514E+09  4476.6676      409298.99    
 2.23568724E-06 7.46348573E-09 5.64974277E+09 5.64932058E+09  4596.0459      417597.59    
 2.25066421E-06 7.51348396E-09 5.76539594E+09 5.76496501E+09  4724.2773      426200.00    
 2.26574151E-06 7.56381713E-09 5.87882866E+09 5.87838928E+09  4848.3370      434527.66    
 2.28091982E-06 7.61448748E-09 5.99817359E+09 5.99772544E+09  4981.9192      443172.50    
 2.29619980E-06 7.66549727E-09 6.11837694E+09 6.11791982E+09  5116.5304      452001.27    
 2.31158215E-06 7.71684879E-09 6.23909512E+09 6.23862866E+09  5251.4950      461208.57    
 2.32706754E-06 7.76854430E-09 6.36764289E+09 6.36716645E+09  5399.5187      471041.39    
 2.34265667E-06 7.82058613E-09 6.49289615E+09 6.49241014E+09  5541.3261      480470.77    
 2.35835023E-06 7.87297659E-09 6.62375958E+09 6.62326368E+09  5692.3954      490209.78    
 2.37414893E-06 7.92571802E-09 6.75738338E+09 6.75687752E+09  5847.8391      500015.56    
 2.39005346E-06 7.97881276E-09 6.89025968E+09 6.88974402E+09  6001.3616      509658.92    
 2.40606454E-06 8.03226319E-09 7.03205976E+09 7.03153347E+09  6170.3007      520119.06    
 2.42218287E-06 8.08607168E-09 7.17089445E+09 7.17035736E+09  6333.3536      530759.49    
 2.43840918E-06 8.14024064E-09 7.31437746E+09 7.31382923E+09  6504.1822      541722.81    
 2.45474420E-06 8.19477248E-09 7.46290568E+09 7.46234608E+09  6683.6605      552921.61    
 2.47118864E-06 8.24966963E-09 7.60961960E+09 7.60904890E+09  6859.1453      563837.48    
 2.48774324E-06 8.30493454E-09 7.76510832E+09 7.76452602E+09  7050.2371      575254.28    
 2.50440875E-06 8.36056967E-09 7.91945010E+09 7.91885639E+09  7238.5714      586466.90    
 2.52118589E-06 8.41657750E-09 8.07675710E+09 8.07615154E+09  7431.7239      598125.72    
 2.53807543E-06 8.47296053E-09 8.24183564E+09 8.24121717E+09  7638.9283      610839.31    
 2.55507811E-06 8.52972128E-09 8.40382155E+09 8.40319051E+09  7839.5166      623199.16    
 2.57219470E-06 8.58686227E-09 8.57430796E+09 8.57366384E+09  8055.6453      636064.61    
 2.58942595E-06 8.64438604E-09 8.74587217E+09 8.74521507E+09  8273.1532      648827.87    
 2.60677263E-06 8.70229518E-09 8.91832212E+09 8.91765212E+09  8491.5239      661506.95    
 2.62423551E-06 8.76059224E-09 9.10177559E+09 9.10109202E+09  8730.7098      674835.16    
 2.64181539E-06 8.81927985E-09 9.28061494E+09 9.27991778E+09  8959.9921      688198.40    
 2.65951303E-06 8.87836060E-09 9.46753129E+09 9.46681947E+09  9204.4140      702615.61    
 2.67732922E-06 8.93783714E-09 9.65821997E+09 9.65749332E+09  9455.5831      717189.21    
 2.69526477E-06 8.99771211E-09 9.84792764E+09 9.84718644E+09  9703.8062      731497.48    
 2.71332047E-06 9.05798819E-09 1.00504346E+10 1.00496781E+10  9977.1334      746578.47    
 2.73149713E-06 9.11866806E-09 1.02485481E+10 1.02477768E+10  10240.591      761134.99    
 2.74979555E-06 9.17975443E-09 1.04534606E+10 1.04526740E+10  10516.982      776054.17    
 2.76821656E-06 9.24125002E-09 1.06653826E+10 1.06645798E+10  10806.986      792003.68    
 2.78676096E-06 9.30315757E-09 1.08748140E+10 1.08739948E+10  11090.717      808173.15    
 2.80542960E-06 9.36547984E-09 1.10968396E+10 1.10960030E+10  11399.885      825172.52    
 2.82422330E-06 9.42821962E-09 1.13170452E+10 1.13161918E+10  11704.191      841779.15    
 2.84314290E-06 9.49137968E-09 1.15416701E+10 1.15407995E+10  12016.700      858520.11    
 2.86218924E-06 9.55496287E-09 1.17771647E+10 1.17762765E+10  12351.505      875823.78    
 2.88136318E-06 9.61897199E-09 1.20083583E+10 1.20074529E+10  12675.821      892696.34    
 2.90066556E-06 9.68340992E-09 1.22517637E+10 1.22508395E+10  13025.496      911125.10    
 2.92009725E-06 9.74827952E-09 1.24964983E+10 1.24955549E+10  13376.939      930083.44    
 2.93965911E-06 9.81358368E-09 1.27427119E+10 1.27417493E+10  13730.250      948914.69    
 2.95935202E-06 9.87932532E-09 1.30043741E+10 1.30033913E+10  14116.730      968686.61    
 2.97917685E-06 9.94550737E-09 1.32595805E+10 1.32585783E+10  14487.437      987700.39    
 2.99913449E-06 1.00121328E-08 1.35264026E+10 1.35253804E+10  14882.886      1007334.4    
 3.01922583E-06 1.00792045E-08 1.37983667E+10 1.37973242E+10  15288.718      1027217.4    
 3.03945176E-06 1.01467255E-08 1.40690557E+10 1.40679922E+10  15690.046      1047850.1    
 3.05981319E-06 1.02146989E-08 1.43580871E+10 1.43570007E+10  16132.250      1070312.4    
 3.08031101E-06 1.02831276E-08 1.46406264E+10 1.46395179E+10  16557.926      1091911.6    
 3.10094616E-06 1.03520148E-08 1.49330953E+10 1.49319642E+10  17005.097      1114020.9    
 3.12171953E-06 1.04213634E-08 1.52352864E+10 1.52341323E+10  17473.678      1136552.4    
 3.14263207E-06 1.04911766E-08 1.55340654E+10 1.55328889E+10  17932.410      1158563.0    
 3.16368471E-06 1.05614574E-08 1.58509028E+10 1.58497025E+10  18432.598      1181816.1    
 3.18487837E-06 1.06322091E-08 1.61648880E+10 1.61636631E+10  18924.274      1205957.5    
 3.20621402E-06 1.07034348E-08 1.64854418E+10 1.64841916E+10  19429.880      1230817.4    
 3.22769259E-06 1.07751376E-08 1.68211817E+10 1.68199051E+10  19970.846      1256558.1    
 3.24931505E-06 1.08473207E-08 1.71509497E+10 1.71496478E+10  20495.192      1281480.2    
 3.27108236E-06 1.09199874E-08 1.74982411E+10 1.74969126E+10  21060.913      1307408.8    
 3.29299549E-06 1.09931409E-08 1.78471300E+10 1.78457753E+10  21628.749      1333102.9    
 3.31505541E-06 1.10667844E-08 1.81984339E+10 1.81970526E+10  22200.365      1359037.4    
 3.33726312E-06 1.11409213E-08 1.85714037E+10 1.85699930E+10  22824.825      1387890.3    
 3.35961959E-06 1.12155548E-08 1.89353552E+10 1.89339157E+10  23424.169      1416104.3    
 3.38212584E-06 1.12906884E-08 1.93159954E+10 1.93145260E+10  24063.943      1445310.0    
 3.40478285E-06 1.13663252E-08 1.97036245E+10 1.97021251E+10  24719.655      1474638.4    
 3.42759164E-06 1.14424687E-08 2.00896107E+10 2.00880819E+10  25368.502      1503488.4    
 3.45055323E-06 1.15191223E-08 2.05018536E+10 2.05002936E+10  26083.900      1533863.5    
 3.47366865E-06 1.15962894E-08 2.09045284E+10 2.09029378E+10  26771.653      1563849.6    
 3.49693891E-06 1.16739735E-08 2.13216829E+10 2.13200592E+10  27495.104      1596174.0    
 3.52036506E-06 1.17521780E-08 2.17523022E+10 2.17506443E+10  28252.197      1629673.2    
 3.54394814E-06 1.18309064E-08 2.21782612E+10 2.21765699E+10  28993.846      1662339.0    
 3.56768921E-06 1.19101621E-08 2.26300855E+10 2.26283591E+10  29803.048      1696587.8    
 3.59158932E-06 1.19899488E-08 2.30774795E+10 2.30757189E+10  30597.433      1730027.2    
 3.61564954E-06 1.20702701E-08 2.35346085E+10 2.35328133E+10  31415.419      1763793.5    
 3.63987094E-06 1.21511293E-08 2.40129256E+10 2.40110937E+10  32289.463      1799621.8    
 3.66425460E-06 1.22325303E-08 2.44829685E+10 2.44810992E+10  33137.184      1836196.3    
 3.68880161E-06 1.23144766E-08 2.49781305E+10 2.49762217E+10  34052.400      1874784.7    
 3.71351306E-06 1.23969718E-08 2.54751488E+10 2.54732009E+10  34969.832      1912946.3    
 3.73839005E-06 1.24800197E-08 2.59760405E+10 2.59740537E+10  35894.610      1950941.2    
 3.76343369E-06 1.25636239E-08 2.65072747E+10 2.65052471E+10  36903.552      1990698.0    
 3.78864510E-06 1.26477882E-08 2.70259295E+10 2.70238626E+10  37872.511      2029090.8    
 3.81402541E-06 1.27325163E-08 2.75685341E+10 2.75664253E+10  38907.528      2069936.4    
 3.83957574E-06 1.28178120E-08 2.81206109E+10 2.81184577E+10  39966.934      2113171.5    
 3.86529723E-06 1.29036791E-08 2.86706004E+10 2.86684034E+10  41015.919      2155986.2    
 3.89119103E-06 1.29901214E-08 2.92581333E+10 2.92558899E+10  42173.247      2201234.9    
 3.91725829E-06 1.30771428E-08 2.98315984E+10 2.98293104E+10  43284.390      2244738.2    
 3.94350018E-06 1.31647472E-08 3.04261375E+10 3.04238037E+10  44454.771      2289317.3    
 3.96991787E-06 1.32529384E-08 3.10392897E+10 3.10369092E+10  45677.970      2334769.1    
 3.99651253E-06 1.33417205E-08 3.16460986E+10 3.16436710E+10  46876.973      2380749.2    
 4.02328535E-06 1.34310972E-08 3.22899123E+10 3.22874327E+10  48186.045      2431432.9    
 4.05023752E-06 1.35210728E-08 3.29269077E+10 3.29243772E+10  49469.459      2481069.1    
 4.07737024E-06 1.36116511E-08 3.35782921E+10 3.35757101E+10  50792.772      2531245.2    
 4.10468473E-06 1.37028361E-08 3.42591917E+10 3.42565565E+10  52204.916      2583015.2    
 4.13218219E-06 1.37946320E-08 3.49286459E+10 3.49259591E+10  53575.387      2633261.7    
