 OPTXAGNF AGN Spectrum Model Parameters: BLS, Astar 0.0                          
 M_BH:  5.0000E+08 M_0            L  :  3.0000E-02 L/Ledd 
 D   :  1.5000E+18 cm             z  :   0.000     redshift 
 Rcor:   60.00     Rg             Ro :   4.000     Rg 
 C_T :  0.2000     keV            Tau:   15.00     Optical Depth 
 gam :   1.800     (-slope)       fpl:  0.5000     Fraction 
 E              0.5DeltaE      E.FE total     E.FE Disk      E.FE Compton   E.FE NonThermal
 (keV)          (keV)          E.E/cm2/s/E    E.E/cm2/s/E    E.E/cm2/s/E    E.E/cm2/s/E    
 1.00334952E-06 3.34952256E-09 5.13470281E+08 5.13435783E+08  397.22797      34100.322    
 1.01007101E-06 3.37196116E-09 5.23619226E+08 5.23584062E+08  407.66249      34757.189    
 1.01683752E-06 3.39455008E-09 5.34193797E+08 5.34157911E+08  418.72616      35467.409    
 1.02364936E-06 3.41729032E-09 5.45059062E+08 5.45022417E+08  430.21524      36214.805    
 1.03050683E-06 3.44018290E-09 5.55829935E+08 5.55792548E+08  441.51199      36945.420    
 1.03741024E-06 3.46322884E-09 5.67296041E+08 5.67257873E+08  453.88621      37713.738    
 1.04435990E-06 3.48642917E-09 5.78587843E+08 5.78548918E+08  465.93983      38459.774    
 1.05135611E-06 3.50978492E-09 5.90188909E+08 5.90149213E+08  478.45034      39216.959    
 1.05839920E-06 3.53329712E-09 6.02274847E+08 6.02234356E+08  491.71554      40000.146    
 1.06548946E-06 3.55696684E-09 6.14175469E+08 6.14134160E+08  504.62869      40804.536    
 1.07262722E-06 3.58079512E-09 6.26756147E+08 6.26713959E+08  518.62531      41669.471    
 1.07981280E-06 3.60478303E-09 6.39318564E+08 6.39275511E+08  532.54747      42520.885    
 1.08704652E-06 3.62893164E-09 6.52045073E+08 6.52001153E+08  546.69257      43373.000    
 1.09432869E-06 3.65324201E-09 6.65487924E+08 6.65443101E+08  562.00668      44260.489    
 1.10165965E-06 3.67771524E-09 6.78636531E+08 6.78590836E+08  576.76749      45117.986    
 1.10903971E-06 3.70235243E-09 6.92439262E+08 6.92392654E+08  592.59769      46015.333    
 1.11646922E-06 3.72715465E-09 7.06414203E+08 7.06366628E+08  608.67605      46965.580    
 1.12394850E-06 3.75212303E-09 7.20374509E+08 7.20325962E+08  624.66764      47922.908    
 1.13147788E-06 3.77725867E-09 7.35325546E+08 7.35275966E+08  642.34510      48937.343    
 1.13905770E-06 3.80256270E-09 7.49852804E+08 7.49802237E+08  659.21790      49908.311    
 1.14668830E-06 3.82803623E-09 7.64995489E+08 7.64943903E+08  677.12013      50908.218    
 1.15437002E-06 3.85368042E-09 7.80540566E+08 7.80487950E+08  695.68634      51920.080    
 1.16210319E-06 3.87949640E-09 7.95957406E+08 7.95903765E+08  713.95332      52927.404    
 1.16988818E-06 3.90548532E-09 8.12375680E+08 8.12320899E+08  733.97573      54047.680    
 1.17772531E-06 3.93164835E-09 8.28530655E+08 8.28474747E+08  753.45373      55155.060    
 1.18561494E-06 3.95798663E-09 8.45142408E+08 8.45085353E+08  773.69715      56280.656    
 1.19355743E-06 3.98450137E-09 8.62432819E+08 8.62374588E+08  795.13361      57436.280    
 1.20155313E-06 4.01119372E-09 8.79465616E+08 8.79406240E+08  816.01424      58560.337    
 1.20960239E-06 4.03806489E-09 8.97478713E+08 8.97418142E+08  838.66185      59732.375    
 1.21770557E-06 4.06511607E-09 9.15450187E+08 9.15388413E+08  861.15939      60913.532    
 1.22586303E-06 4.09234846E-09 9.33672418E+08 9.33609376E+08  884.04782      62158.133    
 1.23407514E-06 4.11976329E-09 9.52902685E+08 9.52838297E+08  908.79536      63478.816    
 1.24234227E-06 4.14736177E-09 9.71720463E+08 9.71654778E+08  932.66355      64751.604    
 1.25066478E-06 4.17514513E-09 9.91482235E+08 9.91415204E+08  958.27809      66072.343    
 1.25904304E-06 4.20311462E-09 1.01147297E+09 1.01140459E+09  984.26000      67389.709    
 1.26747742E-06 4.23127147E-09 1.03146052E+09 1.03139082E+09  1010.1363      68692.052    
 1.27596831E-06 4.25961695E-09 1.05284658E+09 1.05277544E+09  1038.7031      70101.208    
 1.28451608E-06 4.28815232E-09 1.07363596E+09 1.07356336E+09  1065.9863      71528.013    
 1.29312111E-06 4.31687884E-09 1.09531487E+09 1.09524076E+09  1094.9535      73015.203    
 1.30178379E-06 4.34579781E-09 1.11755005E+09 1.11747441E+09  1124.9558      74519.445    
 1.31050450E-06 4.37491051E-09 1.13961153E+09 1.13953438E+09  1154.4932      75992.905    
 1.31928362E-06 4.40421823E-09 1.16311473E+09 1.16303600E+09  1186.8904      77540.920    
 1.32812156E-06 4.43372228E-09 1.18622145E+09 1.18614119E+09  1218.3653      79046.224    
 1.33701871E-06 4.46342399E-09 1.21000194E+09 1.20992007E+09  1251.1209      80619.331    
 1.34597546E-06 4.49332467E-09 1.23473164E+09 1.23464803E+09  1285.7614      82324.022    
 1.35499221E-06 4.52342565E-09 1.25910377E+09 1.25901846E+09  1319.5249      83992.425    
 1.36406936E-06 4.55372829E-09 1.28488844E+09 1.28480134E+09  1356.1699      85737.335    
 1.37320733E-06 4.58423392E-09 1.31059139E+09 1.31050254E+09  1392.5242      87451.830    
 1.38240650E-06 4.61494391E-09 1.33667564E+09 1.33658504E+09  1429.5597      89171.181    
 1.39166731E-06 4.64585962E-09 1.36417741E+09 1.36408498E+09  1469.5509      90960.232    
 1.40099015E-06 4.67698245E-09 1.39110151E+09 1.39100724E+09  1508.1450      92753.345    
 1.41037545E-06 4.70831376E-09 1.41938738E+09 1.41929112E+09  1549.5906      94707.009    
 1.41982361E-06 4.73985497E-09 1.44797596E+09 1.44787771E+09  1591.5755      96664.328    
 1.42933508E-06 4.77160747E-09 1.47658541E+09 1.47648518E+09  1633.4458      98598.353    
 1.43891026E-06 4.80357269E-09 1.50716779E+09 1.50706547E+09  1679.6088      100638.23    
 1.44854958E-06 4.83575204E-09 1.53691040E+09 1.53680608E+09  1723.7246      102596.35    
 1.45825348E-06 4.86814696E-09 1.56793801E+09 1.56783163E+09  1770.5952      104615.84    
 1.46802239E-06 4.90075889E-09 1.59973353E+09 1.59962496E+09  1819.0767      106747.53    
 1.47785673E-06 4.93358930E-09 1.63129474E+09 1.63118394E+09  1866.8374      108928.47    
 1.48775696E-06 4.96663964E-09 1.66493071E+09 1.66481755E+09  1919.2566      111234.29    
 1.49772351E-06 4.99991138E-09 1.69797150E+09 1.69785606E+09  1970.1165      113464.81    
 1.50775683E-06 5.03340601E-09 1.73200467E+09 1.73188691E+09  2023.1168      115735.23    
 1.51785736E-06 5.06712502E-09 1.76736400E+09 1.76724386E+09  2079.0936      118060.35    
 1.52802556E-06 5.10106992E-09 1.80222772E+09 1.80210525E+09  2133.6874      120331.36    
 1.53826187E-06 5.13524222E-09 1.83912589E+09 1.83900088E+09  2192.9795      122819.13    
 1.54856676E-06 5.16964344E-09 1.87587576E+09 1.87574815E+09  2251.7240      125364.82    
 1.55894067E-06 5.20427512E-09 1.91320326E+09 1.91307303E+09  2311.6496      127919.46    
 1.56938409E-06 5.23913879E-09 1.95252278E+09 1.95238983E+09  2376.2727      130575.79    
 1.57989746E-06 5.27423602E-09 1.99103381E+09 1.99089823E+09  2438.6770      133142.51    
 1.59048127E-06 5.30956836E-09 2.03150801E+09 2.03136969E+09  2505.7367      135804.84    
 1.60113597E-06 5.34513740E-09 2.07237966E+09 2.07223861E+09  2573.5798      138473.25    
 1.61186206E-06 5.38094472E-09 2.11331761E+09 2.11317372E+09  2641.3283      141247.78    
 1.62265999E-06 5.41699191E-09 2.15703729E+09 2.15689029E+09  2715.9248      144280.84    
 1.63353026E-06 5.45328058E-09 2.19957608E+09 2.19942611E+09  2787.2569      147187.10    
 1.64447336E-06 5.48981235E-09 2.24397019E+09 2.24381714E+09  2863.0943      150185.91    
 1.65548976E-06 5.52658885E-09 2.28942232E+09 2.28926617E+09  2941.4354      153213.19    
 1.66657996E-06 5.56361172E-09 2.33455945E+09 2.33440024E+09  3018.6608      156184.51    
 1.67774445E-06 5.60088261E-09 2.38268076E+09 2.38251832E+09  3103.4740      159331.52    
 1.68898374E-06 5.63840317E-09 2.42991138E+09 2.42974564E+09  3185.6561      162558.27    
 1.70029832E-06 5.67617509E-09 2.47860187E+09 2.47843267E+09  3271.4116      165928.93    
 1.71168869E-06 5.71420004E-09 2.52914355E+09 2.52897080E+09  3361.8642      169386.78    
 1.72315537E-06 5.75247973E-09 2.57899932E+09 2.57882311E+09  3450.1376      172751.20    
 1.73469887E-06 5.79101585E-09 2.63178336E+09 2.63160355E+09  3546.0711      176267.45    
 1.74631969E-06 5.82981012E-09 2.68431036E+09 2.68412700E+09  3640.9938      179719.90    
 1.75801837E-06 5.86886429E-09 2.73770921E+09 2.73752225E+09  3737.9545      183228.45    
 1.76979541E-06 5.90818007E-09 2.79390549E+09 2.79371456E+09  3842.3788      187086.71    
 1.78165135E-06 5.94775924E-09 2.84897160E+09 2.84877677E+09  3943.2805      190894.55    
 1.79358672E-06 5.98760354E-09 2.90686644E+09 2.90666753E+09  4051.7818      194856.32    
 1.80560203E-06 6.02771477E-09 2.96527885E+09 2.96507589E+09  4161.4064      198796.39    
 1.81769784E-06 6.06809470E-09 3.02383769E+09 3.02363072E+09  4271.0249      202699.45    
 1.82987468E-06 6.10874514E-09 3.08631564E+09 3.08610445E+09  4391.5650      206801.37    
 1.84213310E-06 6.14966790E-09 3.14713455E+09 3.14691922E+09  4506.9013      210823.01    
 1.85447363E-06 6.19086481E-09 3.21063070E+09 3.21041088E+09  4629.6048      215191.41    
 1.86689683E-06 6.23233769E-09 3.27558222E+09 3.27535777E+09  4756.1928      219690.99    
 1.87940326E-06 6.27408840E-09 3.34011239E+09 3.33988341E+09  4881.0573      224100.97    
 1.89199346E-06 6.31611880E-09 3.40893229E+09 3.40869852E+09  5018.2800      228746.05    
 1.90466801E-06 6.35843077E-09 3.47642235E+09 3.47618396E+09  5151.0709      233238.75    
 1.91742747E-06 6.40102618E-09 3.54605680E+09 3.54581369E+09  5289.8215      237817.66    
 1.93027240E-06 6.44390694E-09 3.61827270E+09 3.61802465E+09  5435.9801      242610.90    
 1.94320339E-06 6.48707497E-09 3.68954119E+09 3.68928808E+09  5578.7069      247531.83    
 1.95622099E-06 6.53053217E-09 3.76502225E+09 3.76476374E+09  5733.9215      252766.94    
 1.96932581E-06 6.57428050E-09 3.84007213E+09 3.83980835E+09  5887.2990      257893.13    
 1.98251841E-06 6.61832191E-09 3.91643338E+09 3.91616429E+09  6044.1793      263046.94    
 1.99579939E-06 6.66265834E-09 3.99671921E+09 3.99644461E+09  6212.9139      268389.67    
 2.00916934E-06 6.70729179E-09 4.07542678E+09 4.07514683E+09  6376.0580      273569.95    
 2.02262885E-06 6.75222424E-09 4.15820770E+09 4.15792207E+09  6551.6063      279082.26    
 2.03617854E-06 6.79745770E-09 4.24165645E+09 4.24136484E+09  6728.7394      284878.28    
 2.04981899E-06 6.84299417E-09 4.32538846E+09 4.32509088E+09  6906.0997      290674.56    
 2.06355082E-06 6.88883570E-09 4.41463812E+09 4.41433424E+09  7100.8750      296780.24    
 2.07737464E-06 6.93498432E-09 4.50155879E+09 4.50124887E+09  7287.3563      302640.46    
 2.09129106E-06 6.98144209E-09 4.59233951E+09 4.59202334E+09  7485.8827      308686.36    
 2.10530072E-06 7.02821109E-09 4.68511797E+09 4.68479549E+09  7690.4253      314789.00    
 2.11940422E-06 7.07529339E-09 4.77733608E+09 4.77700723E+09  7892.3114      320959.56    
 2.13360221E-06 7.12269110E-09 4.87571700E+09 4.87538106E+09  8114.3236      327827.21    
 2.14789530E-06 7.17040633E-09 4.97211804E+09 4.97177522E+09  8328.8831      334494.03    
 2.16228415E-06 7.21844121E-09 5.07166478E+09 5.07131493E+09  8553.3725      341300.98    
 2.17676939E-06 7.26679787E-09 5.17480692E+09 5.17444987E+09  8789.5372      348257.41    
 2.19135167E-06 7.31547848E-09 5.27664218E+09 5.27627812E+09  9020.3021      355041.26    
 2.20603163E-06 7.36448520E-09 5.38453314E+09 5.38416173E+09  9271.4228      362135.48    
 2.22080994E-06 7.41382021E-09 5.49171791E+09 5.49133903E+09  9519.2453      369368.91    
 2.23568724E-06 7.46348573E-09 5.60086927E+09 5.60048250E+09  9773.0670      376991.40    
 2.25066421E-06 7.51348396E-09 5.71552196E+09 5.71512697E+09  10045.710      384939.74    
 2.26574151E-06 7.56381713E-09 5.82797342E+09 5.82757049E+09  10309.484      392620.86    
 2.28091982E-06 7.61448748E-09 5.94628595E+09 5.94587475E+09  10593.502      400605.57    
 2.29619980E-06 7.66549727E-09 6.06544924E+09 6.06502983E+09  10879.708      408536.74    
 2.31158215E-06 7.71684879E-09 6.18512248E+09 6.18469490E+09  11166.664      416412.13    
 2.32706754E-06 7.76854430E-09 6.31255776E+09 6.31212121E+09  11481.383      425070.56    
 2.34265667E-06 7.82058613E-09 6.43672746E+09 6.43628192E+09  11782.887      433762.93    
 2.35835023E-06 7.87297659E-09 6.56645881E+09 6.56600395E+09  12104.080      442755.30    
 2.37414893E-06 7.92571802E-09 6.69892664E+09 6.69846240E+09  12434.573      451809.58    
 2.39005346E-06 7.97881276E-09 6.83065344E+09 6.83017998E+09  12760.981      460701.28    
 2.40606454E-06 8.03226319E-09 6.97122650E+09 6.97074332E+09  13120.163      470057.36    
 2.42218287E-06 8.08607168E-09 7.10885938E+09 7.10836677E+09  13466.831      479144.19    
 2.43840918E-06 8.14024064E-09 7.25110067E+09 7.25059798E+09  13830.029      488862.26    
 2.45474420E-06 8.19477248E-09 7.39834393E+09 7.39783053E+09  14211.614      499190.53    
 2.47118864E-06 8.24966963E-09 7.54378859E+09 7.54326475E+09  14584.710      509258.16    
 2.48774324E-06 8.30493454E-09 7.69793215E+09 7.69739735E+09  14990.984      519805.74    
 2.50440875E-06 8.36056967E-09 7.85093866E+09 7.85039314E+09  15391.395      530126.97    
 2.52118589E-06 8.41657750E-09 8.00688439E+09 8.00632806E+09  15802.048      540522.55    
 2.53807543E-06 8.47296053E-09 8.17053382E+09 8.16996623E+09  16242.573      551348.08    
 2.55507811E-06 8.52972128E-09 8.33111795E+09 8.33053888E+09  16669.033      562401.26    
 2.57219470E-06 8.58686227E-09 8.50012936E+09 8.49953797E+09  17128.528      574261.99    
 2.58942595E-06 8.64438604E-09 8.67020928E+09 8.66960565E+09  17590.955      586042.41    
 2.60677263E-06 8.70229518E-09 8.84116728E+09 8.84055148E+09  18055.215      597737.76    
 2.62423551E-06 8.76059224E-09 9.02303355E+09 9.02240497E+09  18563.723      610013.69    
 2.64181539E-06 8.81927985E-09 9.20032513E+09 9.19968425E+09  19051.178      621828.90    
 2.65951303E-06 8.87836060E-09 9.38562329E+09 9.38496958E+09  19570.816      634135.70    
 2.67732922E-06 8.93783714E-09 9.57466179E+09 9.57399445E+09  20104.795      647237.52    
 2.69526477E-06 8.99771211E-09 9.76272812E+09 9.76204707E+09  20632.512      660417.80    
 2.71332047E-06 9.05798819E-09 9.96348304E+09 9.96278747E+09  21213.593      674353.86    
 2.73149713E-06 9.11866806E-09 1.01598825E+10 1.01591729E+10  21773.692      687780.33    
 2.74979555E-06 9.17975443E-09 1.03630220E+10 1.03622982E+10  22361.284      701505.70    
 2.76821656E-06 9.24125002E-09 1.05731098E+10 1.05723713E+10  22977.813      715500.02    
 2.78676096E-06 9.30315757E-09 1.07807281E+10 1.07799751E+10  23581.006      729363.43    
 2.80542960E-06 9.36547984E-09 1.10008322E+10 1.10000633E+10  24238.269      744688.07    
 2.82422330E-06 9.42821962E-09 1.12191326E+10 1.12183477E+10  24885.196      760009.55    
 2.84314290E-06 9.49137968E-09 1.14418139E+10 1.14410129E+10  25549.561      775455.45    
 2.86218924E-06 9.55496287E-09 1.16752710E+10 1.16744533E+10  26261.316      791439.63    
 2.88136318E-06 9.61897199E-09 1.19044642E+10 1.19036303E+10  26950.776      806925.40    
 2.90066556E-06 9.68340992E-09 1.21457626E+10 1.21449119E+10  27694.137      823015.21    
 2.92009725E-06 9.74827952E-09 1.23883784E+10 1.23875106E+10  28441.258      839309.29    
 2.93965911E-06 9.81358368E-09 1.26324613E+10 1.26315758E+10  29192.347      856349.03    
 2.95935202E-06 9.87932532E-09 1.28918594E+10 1.28909548E+10  30013.938      874617.99    
 2.97917685E-06 9.94550737E-09 1.31448576E+10 1.31439346E+10  30802.001      892151.38    
 2.99913449E-06 1.00121328E-08 1.34093710E+10 1.34084291E+10  31642.655      910277.14    
 3.01922583E-06 1.00792045E-08 1.36789817E+10 1.36780207E+10  32505.378      928495.77    
 3.03945176E-06 1.01467255E-08 1.39473274E+10 1.39463476E+10  33358.526      946424.15    
 3.05981319E-06 1.02146989E-08 1.42338563E+10 1.42328563E+10  34298.556      965730.30    
 3.08031101E-06 1.02831276E-08 1.45139506E+10 1.45129299E+10  35203.453      985423.97    
 3.10094616E-06 1.03520148E-08 1.48038887E+10 1.48028467E+10  36154.038      1005827.7    
 3.12171953E-06 1.04213634E-08 1.51034649E+10 1.51024011E+10  37150.127      1026632.8    
 3.14263207E-06 1.04911766E-08 1.53996586E+10 1.53985735E+10  38125.284      1046928.9    
 3.16368471E-06 1.05614574E-08 1.57137541E+10 1.57126468E+10  39188.550      1068175.9    
 3.18487837E-06 1.06322091E-08 1.60250208E+10 1.60238916E+10  40233.723      1088981.1    
 3.20621402E-06 1.07034348E-08 1.63427994E+10 1.63416476E+10  41308.503      1110491.0    
 3.22769259E-06 1.07751376E-08 1.66756337E+10 1.66744572E+10  42458.437      1134048.9    
 3.24931505E-06 1.08473207E-08 1.70025481E+10 1.70013475E+10  43573.046      1157028.4    
 3.27108236E-06 1.09199874E-08 1.73468342E+10 1.73456085E+10  44775.589      1180970.5    
 3.29299549E-06 1.09931409E-08 1.76927041E+10 1.76914534E+10  45982.627      1204679.8    
 3.31505541E-06 1.10667844E-08 1.80409676E+10 1.80396921E+10  47197.700      1228272.9    
 3.33726312E-06 1.11409213E-08 1.84107079E+10 1.84094064E+10  48525.081      1252980.4    
 3.35961959E-06 1.12155548E-08 1.87715084E+10 1.87701810E+10  49799.080      1277606.7    
 3.38212584E-06 1.12906884E-08 1.91488544E+10 1.91474988E+10  51159.007      1304393.6    
 3.40478285E-06 1.13663252E-08 1.95331289E+10 1.95317449E+10  52552.803      1331463.4    
 3.42759164E-06 1.14424687E-08 1.99157749E+10 1.99143629E+10  53932.009      1358063.5    
 3.45055323E-06 1.15191223E-08 2.03244502E+10 2.03230086E+10  55452.653      1386126.6    
 3.47366865E-06 1.15962894E-08 2.07236397E+10 2.07221696E+10  56914.542      1413164.6    
 3.49693891E-06 1.16739735E-08 2.11371819E+10 2.11356826E+10  58452.296      1440834.3    
 3.52036506E-06 1.17521780E-08 2.15640729E+10 2.15625426E+10  60061.545      1470214.3    
 3.54394814E-06 1.18309064E-08 2.19863454E+10 2.19847836E+10  61637.971      1500250.1    
 3.56768921E-06 1.19101621E-08 2.24342594E+10 2.24326642E+10  63357.959      1531881.7    
 3.59158932E-06 1.19899488E-08 2.28777815E+10 2.28761538E+10  65046.458      1562724.7    
 3.61564954E-06 1.20702701E-08 2.33309544E+10 2.33292938E+10  66785.111      1593872.6    
 3.63987094E-06 1.21511293E-08 2.38051309E+10 2.38034363E+10  68642.893      1626014.7    
 3.66425460E-06 1.22325303E-08 2.42711033E+10 2.42693756E+10  70444.732      1657297.9    
 3.68880161E-06 1.23144766E-08 2.47619781E+10 2.47602144E+10  72390.007      1691317.6    
 3.71351306E-06 1.23969718E-08 2.52546948E+10 2.52528940E+10  74339.990      1726464.3    
 3.73839005E-06 1.24800197E-08 2.57512514E+10 2.57494136E+10  76305.580      1761499.8    
 3.76343369E-06 1.25636239E-08 2.62778878E+10 2.62760111E+10  78450.023      1798223.3    
 3.78864510E-06 1.26477882E-08 2.67920537E+10 2.67901396E+10  80509.498      1833566.0    
 3.81402541E-06 1.27325163E-08 2.73299608E+10 2.73280080E+10  82709.348      1870093.7    
 3.83957574E-06 1.28178120E-08 2.78772561E+10 2.78752642E+10  84961.023      1906961.7    
 3.86529723E-06 1.29036791E-08 2.84224839E+10 2.84204517E+10  87190.552      1944982.3    
 3.89119103E-06 1.29901214E-08 2.90049313E+10 2.90028550E+10  89650.307      1986688.4    
 3.91725829E-06 1.30771428E-08 2.95734329E+10 2.95713141E+10  92011.916      2026795.9    
 3.94350018E-06 1.31647472E-08 3.01628261E+10 3.01606636E+10  94499.404      2067926.7    
 3.96991787E-06 1.32529384E-08 3.07706710E+10 3.07684641E+10  97099.123      2109771.4    
 3.99651253E-06 1.33417205E-08 3.13722262E+10 3.13699759E+10  99647.428      2150681.4    
 4.02328535E-06 1.34310972E-08 3.20104635E+10 3.20081672E+10  102429.62      2193822.6    
 4.05023752E-06 1.35210728E-08 3.26419438E+10 3.26396003E+10  105157.28      2238278.3    
 4.07737024E-06 1.36116511E-08 3.32876898E+10 3.32852973E+10  107969.72      2284471.0    
 4.10468473E-06 1.37028361E-08 3.39626955E+10 3.39602523E+10  110970.92      2332270.7    
 4.13218219E-06 1.37946320E-08 3.46263550E+10 3.46238626E+10  113883.56      2378588.2    
