 OPTXAGNF AGN Spectrum Model Parameters: BLS, Astar 0.0                          
 M_BH:  5.0000E+08 M_0            L  :   1.000     L/Ledd 
 D   :  1.5000E+18 cm             z  :   0.000     redshift 
 Rcor:   60.00     Rg             Ro :   4.000     Rg 
 C_T :  0.2000     keV            Tau:   15.00     Optical Depth 
 gam :   1.800     (-slope)       fpl:  0.5000     Fraction 
 E              0.5DeltaE      E.FE total     E.FE Disk      E.FE Compton   E.FE NonThermal
 (keV)          (keV)          E.E/cm2/s/E    E.E/cm2/s/E    E.E/cm2/s/E    E.E/cm2/s/E    
 1.00334952E-06 3.34952256E-09 1.24174677E+09 1.24166316E+09  319.33980      83297.644    
 1.01007101E-06 3.37196116E-09 1.26634230E+09 1.26625701E+09  327.72932      84967.549    
 1.01683752E-06 3.39455008E-09 1.29197308E+09 1.29188605E+09  336.62476      86687.314    
 1.02364936E-06 3.41729032E-09 1.31831080E+09 1.31822202E+09  345.86229      88429.360    
 1.03050683E-06 3.44018290E-09 1.34441787E+09 1.34432737E+09  354.94516      90152.136    
 1.03741024E-06 3.46322884E-09 1.37221718E+09 1.37212475E+09  364.89447      92060.824    
 1.04435990E-06 3.48642917E-09 1.39959127E+09 1.39949693E+09  374.58599      93966.785    
 1.05135611E-06 3.50978492E-09 1.42771764E+09 1.42762135E+09  384.64490      95902.604    
 1.05839920E-06 3.53329712E-09 1.45702419E+09 1.45692591E+09  395.31072      97892.631    
 1.06548946E-06 3.55696684E-09 1.48587829E+09 1.48577806E+09  405.69343      99826.110    
 1.07262722E-06 3.58079512E-09 1.51638811E+09 1.51628585E+09  416.94744      101842.71    
 1.07981280E-06 3.60478303E-09 1.54685258E+09 1.54674829E+09  428.14157      103858.95    
 1.08704652E-06 3.62893164E-09 1.57771591E+09 1.57760948E+09  439.51499      105983.25    
 1.09432869E-06 3.65324201E-09 1.61032398E+09 1.61021527E+09  451.82850      108257.99    
 1.10165965E-06 3.67771524E-09 1.64221393E+09 1.64210301E+09  463.69707      110447.58    
 1.10903971E-06 3.70235243E-09 1.67569704E+09 1.67558384E+09  476.42563      112719.87    
 1.11646922E-06 3.72715465E-09 1.70959878E+09 1.70948331E+09  489.35375      114987.99    
 1.12394850E-06 3.75212303E-09 1.74346357E+09 1.74334584E+09  502.21211      117227.53    
 1.13147788E-06 3.77725867E-09 1.77974273E+09 1.77962259E+09  516.42624      119628.76    
 1.13905770E-06 3.80256270E-09 1.81498763E+09 1.81486503E+09  529.99328      122071.80    
 1.14668830E-06 3.82803623E-09 1.85173197E+09 1.85160680E+09  544.38819      124630.31    
 1.15437002E-06 3.85368042E-09 1.88945650E+09 1.88932872E+09  559.31709      127220.76    
 1.16210319E-06 3.87949640E-09 1.92686685E+09 1.92673652E+09  574.00534      129755.87    
 1.16988818E-06 3.90548532E-09 1.96671850E+09 1.96658549E+09  590.10535      132420.03    
 1.17772531E-06 3.93164835E-09 2.00592653E+09 2.00579092E+09  605.76756      135007.70    
 1.18561494E-06 3.95798663E-09 2.04624749E+09 2.04610919E+09  622.04534      137683.78    
 1.19355743E-06 3.98450137E-09 2.08822324E+09 2.08808199E+09  639.28260      140610.09    
 1.20155313E-06 4.01119372E-09 2.12956885E+09 2.12942471E+09  656.07286      143480.92    
 1.20960239E-06 4.03806489E-09 2.17330538E+09 2.17315822E+09  674.28420      146483.74    
 1.21770557E-06 4.06511607E-09 2.21693880E+09 2.21678867E+09  692.37487      149435.83    
 1.22586303E-06 4.09234846E-09 2.26118242E+09 2.26102932E+09  710.77992      152393.46    
 1.23407514E-06 4.11976329E-09 2.30788536E+09 2.30772916E+09  730.68016      155468.46    
 1.24234227E-06 4.14736177E-09 2.35357963E+09 2.35342035E+09  749.87321      158522.87    
 1.25066478E-06 4.17514513E-09 2.40157730E+09 2.40141466E+09  770.47078      161872.68    
 1.25904304E-06 4.20311462E-09 2.45013252E+09 2.44996648E+09  791.36385      165243.56    
 1.26747742E-06 4.23127147E-09 2.49867795E+09 2.49850857E+09  812.17200      168570.37    
 1.27596831E-06 4.25961695E-09 2.55063757E+09 2.55046465E+09  835.14401      172084.63    
 1.28451608E-06 4.28815232E-09 2.60113756E+09 2.60096125E+09  857.08368      175454.35    
 1.29312111E-06 4.31687884E-09 2.65380862E+09 2.65362881E+09  880.37787      178923.78    
 1.30178379E-06 4.34579781E-09 2.70783715E+09 2.70765369E+09  904.50450      182559.71    
 1.31050450E-06 4.37491051E-09 2.76143915E+09 2.76125193E+09  928.25730      186297.03    
 1.31928362E-06 4.40421823E-09 2.81856268E+09 2.81837146E+09  954.31020      190265.97    
 1.32812156E-06 4.43372228E-09 2.87471502E+09 2.87451993E+09  979.62132      194106.90    
 1.33701871E-06 4.46342399E-09 2.93251185E+09 2.93231283E+09  1005.9625      198013.56    
 1.34597546E-06 4.49332467E-09 2.99262697E+09 2.99242392E+09  1033.8199      202018.71    
 1.35499221E-06 4.52342565E-09 3.05186534E+09 3.05165835E+09  1060.9718      205925.42    
 1.36406936E-06 4.55372829E-09 3.11455562E+09 3.11434436E+09  1090.4414      210161.97    
 1.37320733E-06 4.58423392E-09 3.17704390E+09 3.17682825E+09  1119.6772      214527.77    
 1.38240650E-06 4.61494391E-09 3.24046203E+09 3.24024196E+09  1149.4610      218923.35    
 1.39166731E-06 4.64585962E-09 3.30734540E+09 3.30712072E+09  1181.6222      223499.76    
 1.40099015E-06 4.67698245E-09 3.37281253E+09 3.37258340E+09  1212.6597      227917.66    
 1.41037545E-06 4.70831376E-09 3.44160863E+09 3.44137488E+09  1245.9908      232499.88    
 1.41982361E-06 4.73985497E-09 3.51114287E+09 3.51090450E+09  1279.7557      237087.18    
 1.42933508E-06 4.77160747E-09 3.58072513E+09 3.58048200E+09  1313.4284      241808.83    
 1.43891026E-06 4.80357269E-09 3.65513411E+09 3.65488574E+09  1350.5541      247020.24    
 1.44854958E-06 4.83575204E-09 3.72748426E+09 3.72723085E+09  1386.0331      252023.00    
 1.45825348E-06 4.86814696E-09 3.80297719E+09 3.80271858E+09  1423.7281      257184.17    
 1.46802239E-06 4.90075889E-09 3.88034725E+09 3.88008339E+09  1462.7189      262399.13    
 1.47785673E-06 4.93358930E-09 3.95713965E+09 3.95687063E+09  1501.1299      267513.91    
 1.48775696E-06 4.96663964E-09 4.03901050E+09 4.03873604E+09  1543.2882      272914.15    
 1.49772351E-06 4.99991138E-09 4.11942030E+09 4.11914030E+09  1584.1922      278411.80    
 1.50775683E-06 5.03340601E-09 4.20225763E+09 4.20197180E+09  1626.8181      284203.36    
 1.51785736E-06 5.06712502E-09 4.28834102E+09 4.28804918E+09  1671.8383      290160.97    
 1.52802556E-06 5.10106992E-09 4.37320582E+09 4.37290815E+09  1715.7461      295952.91    
 1.53826187E-06 5.13524222E-09 4.46305275E+09 4.46274898E+09  1763.4333      302006.05    
 1.54856676E-06 5.16964344E-09 4.55253211E+09 4.55222234E+09  1810.6801      307952.91    
 1.55894067E-06 5.20427512E-09 4.64342304E+09 4.64310722E+09  1858.8770      313962.46    
 1.56938409E-06 5.23913879E-09 4.73919468E+09 4.73887223E+09  1910.8529      320541.52    
 1.57989746E-06 5.27423602E-09 4.83297947E+09 4.83265041E+09  1961.0439      327095.32    
 1.59048127E-06 5.30956836E-09 4.93157449E+09 4.93123856E+09  2014.9800      333915.23    
 1.60113597E-06 5.34513740E-09 5.03114010E+09 5.03079733E+09  2069.5464      340703.12    
 1.61186206E-06 5.38094472E-09 5.13086278E+09 5.13051324E+09  2124.0367      347420.17    
 1.62265999E-06 5.41699191E-09 5.23740605E+09 5.23704938E+09  2184.0361      354488.52    
 1.63353026E-06 5.45328058E-09 5.34104670E+09 5.34068310E+09  2241.4094      361362.86    
 1.64447336E-06 5.48981235E-09 5.44923571E+09 5.44886459E+09  2302.4073      368818.01    
 1.65548976E-06 5.52658885E-09 5.56001719E+09 5.55963825E+09  2365.4195      376571.02    
 1.66657996E-06 5.56361172E-09 5.67001942E+09 5.66963283E+09  2427.5341      384164.15    
 1.67774445E-06 5.60088261E-09 5.78734368E+09 5.78694902E+09  2495.7531      392162.05    
 1.68898374E-06 5.63840317E-09 5.90247472E+09 5.90207225E+09  2561.8556      399901.45    
 1.70029832E-06 5.67617509E-09 6.02118472E+09 6.02077430E+09  2630.8329      407783.47    
 1.71168869E-06 5.71420004E-09 6.14443669E+09 6.14401802E+09  2703.5894      415962.48    
 1.72315537E-06 5.75247973E-09 6.26599742E+09 6.26557026E+09  2774.5926      424385.00    
 1.73469887E-06 5.79101585E-09 6.39474749E+09 6.39431124E+09  2851.7587      433398.62    
 1.74631969E-06 5.82981012E-09 6.52285965E+09 6.52241450E+09  2928.1117      442230.72    
 1.75801837E-06 5.86886429E-09 6.65310731E+09 6.65265320E+09  3006.1044      451102.24    
 1.76979541E-06 5.90818007E-09 6.79022516E+09 6.78976176E+09  3090.1022      460309.35    
 1.78165135E-06 5.94775924E-09 6.92455688E+09 6.92408448E+09  3171.2659      469222.72    
 1.79358672E-06 5.98760354E-09 7.06583730E+09 7.06535543E+09  3258.5441      478609.24    
 1.80560203E-06 6.02771477E-09 7.20838435E+09 7.20789245E+09  3346.7262      488556.77    
 1.81769784E-06 6.06809470E-09 7.35128321E+09 7.35078125E+09  3434.9035      498534.08    
 1.82987468E-06 6.10874514E-09 7.50381704E+09 7.50330445E+09  3531.8683      509057.48    
 1.84213310E-06 6.14966790E-09 7.65226029E+09 7.65173751E+09  3624.6463      519149.28    
 1.85447363E-06 6.19086481E-09 7.80728296E+09 7.80674968E+09  3723.3520      529558.66    
 1.86689683E-06 6.23233769E-09 7.96587985E+09 7.96533597E+09  3825.1835      540056.94    
 1.87940326E-06 6.27408840E-09 8.12343013E+09 8.12287562E+09  3925.6283      550578.46    
 1.89199346E-06 6.31611880E-09 8.29153505E+09 8.29096866E+09  4036.0169      562355.06    
 1.90466801E-06 6.35843077E-09 8.45635622E+09 8.45577823E+09  4142.8398      573842.75    
 1.91742747E-06 6.40102618E-09 8.62644882E+09 8.62585900E+09  4254.4582      585562.32    
 1.93027240E-06 6.44390694E-09 8.80289164E+09 8.80228972E+09  4372.0376      597551.36    
 1.94320339E-06 6.48707497E-09 8.97698888E+09 8.97637516E+09  4486.8557      609234.69    
 1.95622099E-06 6.53053217E-09 9.16145691E+09 9.16083087E+09  4611.7224      621435.00    
 1.96932581E-06 6.57428050E-09 9.34485261E+09 9.34421409E+09  4735.1111      633785.97    
 1.98251841E-06 6.61832191E-09 9.53146972E+09 9.53081802E+09  4861.3186      646840.93    
 1.99579939E-06 6.66265834E-09 9.72775335E+09 9.72708781E+09  4997.0652      660541.44    
 2.00916934E-06 6.70729179E-09 9.92013310E+09 9.91945420E+09  5128.3134      673771.10    
 2.02262885E-06 6.75222424E-09 1.01225473E+10 1.01218545E+10  5269.5434      687521.25    
 2.03617854E-06 6.79745770E-09 1.03265969E+10 1.03258903E+10  5412.0490      701189.56    
 2.04981899E-06 6.84299417E-09 1.05313315E+10 1.05306112E+10  5554.7375      714748.64    
 2.06355082E-06 6.88883570E-09 1.07496714E+10 1.07489362E+10  5711.4406      729519.83    
 2.07737464E-06 6.93498432E-09 1.09622505E+10 1.09615002E+10  5861.4695      744418.20    
 2.09129106E-06 6.98144209E-09 1.11843447E+10 1.11835788E+10  6021.1918      759903.55    
 2.10530072E-06 7.02821109E-09 1.14113588E+10 1.14105771E+10  6185.7558      775509.70    
 2.11940422E-06 7.07529339E-09 1.16369731E+10 1.16361759E+10  6348.1823      790825.68    
 2.13360221E-06 7.12269110E-09 1.18777954E+10 1.18769819E+10  6526.8056      806940.54    
 2.14789530E-06 7.17040633E-09 1.21137118E+10 1.21128826E+10  6699.4317      822579.92    
 2.16228415E-06 7.21844121E-09 1.23573851E+10 1.23565391E+10  6880.0494      839134.27    
 2.17676939E-06 7.26679787E-09 1.26099306E+10 1.26090666E+10  7070.0635      856877.28    
 2.19135167E-06 7.31547848E-09 1.28592283E+10 1.28583468E+10  7255.7322      874220.19    
 2.20603163E-06 7.36448520E-09 1.31234820E+10 1.31225821E+10  7457.7835      892387.30    
 2.22080994E-06 7.41382021E-09 1.33859723E+10 1.33850545E+10  7657.1809      910176.55    
 2.23568724E-06 7.46348573E-09 1.36533065E+10 1.36523705E+10  7861.4068      928078.39    
 2.25066421E-06 7.51348396E-09 1.39342337E+10 1.39332789E+10  8080.7811      946691.00    
 2.26574151E-06 7.56381713E-09 1.42096960E+10 1.42087222E+10  8293.0174      965526.11    
 2.28091982E-06 7.61448748E-09 1.44996449E+10 1.44986505E+10  8521.5476      985910.68    
 2.29619980E-06 7.66549727E-09 1.47916815E+10 1.47906665E+10  8751.8390      1006218.0    
 2.31158215E-06 7.71684879E-09 1.50849581E+10 1.50839227E+10  8982.7351      1026358.2    
 2.32706754E-06 7.76854430E-09 1.53974367E+10 1.53963799E+10  9235.9770      1047523.1    
 2.34265667E-06 7.82058613E-09 1.57018048E+10 1.57007274E+10  9478.5822      1067878.2    
 2.35835023E-06 7.87297659E-09 1.60199280E+10 1.60188292E+10  9737.0361      1088989.5    
 2.37414893E-06 7.92571802E-09 1.63448122E+10 1.63436909E+10  10002.975      1111337.6    
 2.39005346E-06 7.97881276E-09 1.66678353E+10 1.66666910E+10  10265.628      1134025.7    
 2.40606454E-06 8.03226319E-09 1.70127658E+10 1.70115972E+10  10554.660      1158033.9    
 2.42218287E-06 8.08607168E-09 1.73503825E+10 1.73491905E+10  10833.621      1181178.1    
 2.43840918E-06 8.14024064E-09 1.76993997E+10 1.76981838E+10  11125.888      1204819.1    
 2.45474420E-06 8.19477248E-09 1.80607999E+10 1.80595595E+10  11432.956      1228946.0    
 2.47118864E-06 8.24966963E-09 1.84177098E+10 1.84164454E+10  11733.191      1252690.3    
 2.48774324E-06 8.30493454E-09 1.87961817E+10 1.87948908E+10  12060.134      1278836.4    
 2.50440875E-06 8.36056967E-09 1.91718056E+10 1.91704880E+10  12382.358      1305251.3    
 2.52118589E-06 8.41657750E-09 1.95546952E+10 1.95533506E+10  12712.827      1331856.0    
 2.53807543E-06 8.47296053E-09 1.99566883E+10 1.99553158E+10  13067.344      1359417.7    
 2.55507811E-06 8.52972128E-09 2.03510350E+10 2.03496355E+10  13410.539      1386101.0    
 2.57219470E-06 8.58686227E-09 2.07662858E+10 2.07648582E+10  13780.328      1413820.0    
 2.58942595E-06 8.64438604E-09 2.11841622E+10 2.11827064E+10  14152.478      1441669.4    
 2.60677263E-06 8.70229518E-09 2.16041862E+10 2.16027008E+10  14526.105      1470807.2    
 2.62423551E-06 8.76059224E-09 2.20512995E+10 2.20497823E+10  14935.354      1502313.3    
 2.64181539E-06 8.81927985E-09 2.24870025E+10 2.24854547E+10  15327.655      1532527.5    
 2.65951303E-06 8.87836060E-09 2.29425820E+10 2.29410025E+10  15745.866      1563754.5    
 2.67732922E-06 8.93783714E-09 2.34074312E+10 2.34058199E+10  16175.624      1595168.6    
 2.69526477E-06 8.99771211E-09 2.38698194E+10 2.38681767E+10  16600.341      1626059.8    
 2.71332047E-06 9.05798819E-09 2.43637541E+10 2.43620780E+10  17068.022      1658965.4    
 2.73149713E-06 9.11866806E-09 2.48468091E+10 2.48450988E+10  17518.812      1692763.3    
 2.74979555E-06 9.17975443E-09 2.53466048E+10 2.53448589E+10  17991.737      1727915.5    
 2.76821656E-06 9.24125002E-09 2.58636691E+10 2.58618868E+10  18487.961      1763794.9    
 2.78676096E-06 9.30315757E-09 2.63745345E+10 2.63727168E+10  18973.449      1798773.3    
 2.80542960E-06 9.36547984E-09 2.69164705E+10 2.69146156E+10  19502.472      1835384.9    
 2.82422330E-06 9.42821962E-09 2.74538664E+10 2.74519752E+10  20023.176      1871215.0    
 2.84314290E-06 9.49137968E-09 2.80021346E+10 2.80002061E+10  20557.919      1907913.0    
 2.86218924E-06 9.55496287E-09 2.85772357E+10 2.85752662E+10  21130.822      1948351.8    
 2.88136318E-06 9.61897199E-09 2.91416500E+10 2.91396404E+10  21685.775      1987954.7    
 2.90066556E-06 9.68340992E-09 2.97362181E+10 2.97341666E+10  22284.130      2029211.5    
 2.92009725E-06 9.74827952E-09 3.03340248E+10 3.03319318E+10  22885.514      2070099.2    
 2.93965911E-06 9.81358368E-09 3.09354328E+10 3.09332986E+10  23490.093      2110747.4    
 2.95935202E-06 9.87932532E-09 3.15750345E+10 3.15728570E+10  24151.446      2153315.8    
 2.97917685E-06 9.94550737E-09 3.21985955E+10 3.21963753E+10  24785.802      2195403.2    
 2.99913449E-06 1.00121328E-08 3.28508682E+10 3.28486015E+10  25462.509      2241282.1    
 3.01922583E-06 1.00792045E-08 3.35158255E+10 3.35135114E+10  26156.988      2287972.6    
 3.03945176E-06 1.01467255E-08 3.41775531E+10 3.41751924E+10  26843.759      2333824.2    
 3.05981319E-06 1.02146989E-08 3.48846888E+10 3.48822790E+10  27600.496      2382192.1    
 3.08031101E-06 1.02831276E-08 3.55756650E+10 3.55732079E+10  28328.943      2428820.1    
 3.10094616E-06 1.03520148E-08 3.62911966E+10 3.62886910E+10  29094.185      2476502.0    
 3.12171953E-06 1.04213634E-08 3.70307873E+10 3.70282307E+10  29896.075      2526707.8    
 3.14263207E-06 1.04911766E-08 3.77618384E+10 3.77592296E+10  30681.109      2578168.2    
 3.16368471E-06 1.05614574E-08 3.85376461E+10 3.85349819E+10  31537.104      2632688.5    
 3.18487837E-06 1.06322091E-08 3.93062980E+10 3.93035797E+10  32378.530      2685887.3    
 3.20621402E-06 1.07034348E-08 4.00911798E+10 4.00884070E+10  33243.802      2739564.7    
 3.22769259E-06 1.07751376E-08 4.09137185E+10 4.09108894E+10  34169.604      2795012.3    
 3.24931505E-06 1.08473207E-08 4.17213343E+10 4.17184504E+10  35066.959      2848907.6    
 3.27108236E-06 1.09199874E-08 4.25724285E+10 4.25694856E+10  36035.139      2906919.4    
 3.29299549E-06 1.09931409E-08 4.34274191E+10 4.34244148E+10  37006.942      2967302.8    
 3.31505541E-06 1.10667844E-08 4.42883195E+10 4.42852538E+10  37985.219      3027681.9    
 3.33726312E-06 1.11409213E-08 4.52030405E+10 4.51999104E+10  39053.957      3091043.2    
 3.35961959E-06 1.12155548E-08 4.60952244E+10 4.60920323E+10  40079.702      3151977.6    
 3.38212584E-06 1.12906884E-08 4.70288555E+10 4.70255994E+10  41174.662      3214939.9    
 3.40478285E-06 1.13663252E-08 4.79798015E+10 4.79764808E+10  42296.905      3278410.8    
 3.42759164E-06 1.14424687E-08 4.89265485E+10 4.89231619E+10  43407.400      3343250.6    
 3.45055323E-06 1.15191223E-08 4.99386305E+10 4.99351709E+10  44631.828      3414959.6    
 3.47366865E-06 1.15962894E-08 5.09267601E+10 5.09232301E+10  45808.932      3484150.3    
 3.49693891E-06 1.16739735E-08 5.19508716E+10 5.19472695E+10  47047.150      3555049.8    
 3.52036506E-06 1.17521780E-08 5.30084629E+10 5.30047873E+10  48342.966      3627248.3    
 3.54394814E-06 1.18309064E-08 5.40543058E+10 5.40505584E+10  49612.344      3697789.0    
 3.56768921E-06 1.19101621E-08 5.51645875E+10 5.51607646E+10  50997.376      3771915.0    
 3.59158932E-06 1.19899488E-08 5.62636982E+10 5.62597980E+10  52357.046      3847787.5    
 3.61564954E-06 1.20702701E-08 5.73869878E+10 5.73830067E+10  53757.123      3927298.0    
 3.63987094E-06 1.21511293E-08 5.85630899E+10 5.85590248E+10  55253.179      4009785.7    
 3.66425460E-06 1.22325303E-08 5.97183760E+10 5.97142296E+10  56704.169      4089659.7    
 3.68880161E-06 1.23144766E-08 6.09363166E+10 6.09320856E+10  58270.722      4172818.3    
 3.71351306E-06 1.23969718E-08 6.21587703E+10 6.21544554E+10  59841.074      4255143.4    
 3.73839005E-06 1.24800197E-08 6.33907572E+10 6.33863582E+10  61424.004      4337573.0    
 3.76343369E-06 1.25636239E-08 6.46985411E+10 6.46940496E+10  63151.040      4428352.0    
 3.78864510E-06 1.26477882E-08 6.59746909E+10 6.59701073E+10  64809.623      4518749.2    
 3.81402541E-06 1.27325163E-08 6.73106459E+10 6.73059669E+10  66581.313      4612417.8    
 3.83957574E-06 1.28178120E-08 6.86701753E+10 6.86654005E+10  68394.767      4706394.5    
 3.86529723E-06 1.29036791E-08 7.00242960E+10 7.00194270E+10  70190.382      4798860.4    
 3.89119103E-06 1.29901214E-08 7.14723670E+10 7.14673985E+10  72171.512      4896292.6    
 3.91725829E-06 1.30771428E-08 7.28849996E+10 7.28799345E+10  74073.565      4991075.0    
 3.94350018E-06 1.31647472E-08 7.43503069E+10 7.43451376E+10  76077.054      5093216.9    
 3.96991787E-06 1.32529384E-08 7.58621558E+10 7.58568770E+10  78170.990      5200566.1    
 3.99651253E-06 1.33417205E-08 7.73578801E+10 7.73524946E+10  80223.499      5305265.1    
 4.02328535E-06 1.34310972E-08 7.89463334E+10 7.89408358E+10  82464.489      5415123.0    
 4.05023752E-06 1.35210728E-08 8.05174727E+10 8.05118658E+10  84661.550      5522263.3    
 4.07737024E-06 1.36116511E-08 8.21245487E+10 8.21188313E+10  86926.937      5630545.9    
 4.10468473E-06 1.37028361E-08 8.38056314E+10 8.37997987E+10  89344.446      5743346.8    
 4.13218219E-06 1.37946320E-08 8.54577189E+10 8.54517679E+10  91690.598      5859371.6    
