 OPTXAGNF AGN Spectrum Model Parameters: NLS, Astar 0.0                          
 M_BH:  5.0000E+08 M_0            L  :   1.000     L/Ledd 
 D   :  1.5000E+18 cm             z  :   0.000     redshift 
 Rcor:   40.00     Rg             Ro :   4.000     Rg 
 C_T :  0.2000     keV            Tau:   15.00     Optical Depth 
 gam :   2.200     (-slope)       fpl:  0.2000     Fraction 
 E              0.5DeltaE      E.FE total     E.FE Disk      E.FE Compton   E.FE NonThermal
 (keV)          (keV)          E.E/cm2/s/E    E.E/cm2/s/E    E.E/cm2/s/E    E.E/cm2/s/E    
 1.00334952E-06 3.34952256E-09 1.25223887E+09 1.25219905E+09  64.280139      39754.591    
 1.01007101E-06 3.37196116E-09 1.27704221E+09 1.27700159E+09  65.968922      40557.681    
 1.01683752E-06 3.39455008E-09 1.30288960E+09 1.30284810E+09  67.759546      41427.193    
 1.02364936E-06 3.41729032E-09 1.32944992E+09 1.32940754E+09  69.619036      42313.943    
 1.03050683E-06 3.44018290E-09 1.35577765E+09 1.35573440E+09  71.447392      43179.997    
 1.03741024E-06 3.46322884E-09 1.38381181E+09 1.38376765E+09  73.450166      44091.869    
 1.04435990E-06 3.48642917E-09 1.41141714E+09 1.41137209E+09  75.401045      44976.389    
 1.05135611E-06 3.50978492E-09 1.43978111E+09 1.43973515E+09  77.425885      45874.328    
 1.05839920E-06 3.53329712E-09 1.46933528E+09 1.46928837E+09  79.572896      46837.801    
 1.06548946E-06 3.55696684E-09 1.49843323E+09 1.49838534E+09  81.662917      47816.239    
 1.07262722E-06 3.58079512E-09 1.52920092E+09 1.52915199E+09  83.928334      48843.303    
 1.07981280E-06 3.60478303E-09 1.55992286E+09 1.55987292E+09  86.181700      49852.830    
 1.08704652E-06 3.62893164E-09 1.59104693E+09 1.59099598E+09  88.471157      50863.041    
 1.09432869E-06 3.65324201E-09 1.62393044E+09 1.62387844E+09  90.949859      51915.999    
 1.10165965E-06 3.67771524E-09 1.65608978E+09 1.65603676E+09  93.338993      52935.177    
 1.10903971E-06 3.70235243E-09 1.68985582E+09 1.68980168E+09  95.901249      54040.626    
 1.11646922E-06 3.72715465E-09 1.72404408E+09 1.72398879E+09  98.503679      55191.547    
 1.12394850E-06 3.75212303E-09 1.75819509E+09 1.75813866E+09  101.09207      56327.270    
 1.13147788E-06 3.77725867E-09 1.79478086E+09 1.79472322E+09  103.95338      57530.666    
 1.13905770E-06 3.80256270E-09 1.83032350E+09 1.83026471E+09  106.68443      58681.543    
 1.14668830E-06 3.82803623E-09 1.86737822E+09 1.86731824E+09  109.58213      59867.168    
 1.15437002E-06 3.85368042E-09 1.90542143E+09 1.90536024E+09  112.58734      61074.529    
 1.16210319E-06 3.87949640E-09 1.94314788E+09 1.94308545E+09  115.54410      62314.684    
 1.16988818E-06 3.90548532E-09 1.98333635E+09 1.98327256E+09  118.78506      63668.952    
 1.17772531E-06 3.93164835E-09 2.02287576E+09 2.02281065E+09  121.93789      64981.594    
 1.18561494E-06 3.95798663E-09 2.06353748E+09 2.06347104E+09  125.21463      66315.969    
 1.19355743E-06 3.98450137E-09 2.10586780E+09 2.10579999E+09  128.68454      67686.272    
 1.20155313E-06 4.01119372E-09 2.14756267E+09 2.14749352E+09  132.06445      69018.580    
 1.20960239E-06 4.03806489E-09 2.19166867E+09 2.19159811E+09  135.73045      70420.275    
 1.21770557E-06 4.06511607E-09 2.23567080E+09 2.23559878E+09  139.37215      71876.674    
 1.22586303E-06 4.09234846E-09 2.28028835E+09 2.28021483E+09  143.07714      73374.879    
 1.23407514E-06 4.11976329E-09 2.32738602E+09 2.32731093E+09  147.08313      74940.750    
 1.24234227E-06 4.14736177E-09 2.37346642E+09 2.37338982E+09  150.94676      76449.321    
 1.25066478E-06 4.17514513E-09 2.42186955E+09 2.42179138E+09  155.09313      78015.101    
 1.25904304E-06 4.20311462E-09 2.47083491E+09 2.47075517E+09  159.29899      79576.773    
 1.26747742E-06 4.23127147E-09 2.51979046E+09 2.51970916E+09  163.48775      81136.152    
 1.27596831E-06 4.25961695E-09 2.57218915E+09 2.57210610E+09  168.11213      82878.753    
 1.28451608E-06 4.28815232E-09 2.62311593E+09 2.62303117E+09  172.52869      84586.798    
 1.29312111E-06 4.31687884E-09 2.67623216E+09 2.67614564E+09  177.21793      86349.669    
 1.30178379E-06 4.34579781E-09 2.73071724E+09 2.73062893E+09  182.07475      88132.794    
 1.31050450E-06 4.37491051E-09 2.78477203E+09 2.78468196E+09  186.85632      89879.211    
 1.31928362E-06 4.40421823E-09 2.84237808E+09 2.84228617E+09  192.10093      91714.351    
 1.32812156E-06 4.43372228E-09 2.89900480E+09 2.89891108E+09  197.19621      93526.945    
 1.33701871E-06 4.46342399E-09 2.95729004E+09 2.95719437E+09  202.49886      95466.567    
 1.34597546E-06 4.49332467E-09 3.01791323E+09 3.01781551E+09  208.10673      97503.859    
 1.35499221E-06 4.52342565E-09 3.07765226E+09 3.07755257E+09  213.57260      99481.344    
 1.36406936E-06 4.55372829E-09 3.14087225E+09 3.14077049E+09  219.50504      101549.62    
 1.37320733E-06 4.58423392E-09 3.20388837E+09 3.20378457E+09  225.39043      103581.78    
 1.38240650E-06 4.61494391E-09 3.26784221E+09 3.26773636E+09  231.38613      105619.67    
 1.39166731E-06 4.64585962E-09 3.33529062E+09 3.33518260E+09  237.86044      107782.64    
 1.40099015E-06 4.67698245E-09 3.40131099E+09 3.40120076E+09  244.10854      109989.52    
 1.41037545E-06 4.70831376E-09 3.47068852E+09 3.47057595E+09  250.81838      112318.97    
 1.41982361E-06 4.73985497E-09 3.54081044E+09 3.54069554E+09  257.61555      114638.87    
 1.42933508E-06 4.77160747E-09 3.61098063E+09 3.61086343E+09  264.39417      116931.21    
 1.43891026E-06 4.80357269E-09 3.68601812E+09 3.68589850E+09  271.86793      119348.89    
 1.44854958E-06 4.83575204E-09 3.75897943E+09 3.75885748E+09  279.01020      121671.76    
 1.45825348E-06 4.86814696E-09 3.83511015E+09 3.83498575E+09  286.59857      124118.58    
 1.46802239E-06 4.90075889E-09 3.91313405E+09 3.91300702E+09  294.44782      126740.98    
 1.47785673E-06 4.93358930E-09 3.99057546E+09 3.99044582E+09  302.18036      129333.17    
 1.48775696E-06 4.96663964E-09 4.07313826E+09 4.07300588E+09  310.66729      132065.84    
 1.49772351E-06 4.99991138E-09 4.15422742E+09 4.15409239E+09  318.90172      134709.62    
 1.50775683E-06 5.03340601E-09 4.23776446E+09 4.23762673E+09  327.48279      137400.59    
 1.51785736E-06 5.06712502E-09 4.32457500E+09 4.32443451E+09  336.54590      140158.69    
 1.52802556E-06 5.10106992E-09 4.41015679E+09 4.41001352E+09  345.38505      142922.62    
 1.53826187E-06 5.13524222E-09 4.50076301E+09 4.50061668E+09  354.98508      145977.79    
 1.54856676E-06 5.16964344E-09 4.59099861E+09 4.59084925E+09  364.49647      148995.32    
 1.55894067E-06 5.20427512E-09 4.68265770E+09 4.68250531E+09  374.19911      152023.28    
 1.56938409E-06 5.23913879E-09 4.77923847E+09 4.77908291E+09  384.66256      155171.21    
 1.57989746E-06 5.27423602E-09 4.87381543E+09 4.87365682E+09  394.76668      158213.61    
 1.59048127E-06 5.30956836E-09 4.97324329E+09 4.97308151E+09  405.62478      161368.84    
 1.60113597E-06 5.34513740E-09 5.07365012E+09 5.07348507E+09  416.60976      164634.90    
 1.61186206E-06 5.38094472E-09 5.17421554E+09 5.17404709E+09  427.57944      168024.53    
 1.62265999E-06 5.41699191E-09 5.28165928E+09 5.28148722E+09  439.65822      171622.92    
 1.63353026E-06 5.45328058E-09 5.38617582E+09 5.38600030E+09  451.20833      175067.92    
 1.64447336E-06 5.48981235E-09 5.49527883E+09 5.49509974E+09  463.48815      178622.02    
 1.65548976E-06 5.52658885E-09 5.60699603E+09 5.60681334E+09  476.17350      182209.79    
 1.66657996E-06 5.56361172E-09 5.71792747E+09 5.71774125E+09  488.67815      185734.28    
 1.67774445E-06 5.60088261E-09 5.83624301E+09 5.83605290E+09  502.41179      189604.11    
 1.68898374E-06 5.63840317E-09 5.95234702E+09 5.95215299E+09  515.71931      193520.01    
 1.70029832E-06 5.67617509E-09 6.07206030E+09 6.07186225E+09  529.60563      197520.46    
 1.71168869E-06 5.71420004E-09 6.19635389E+09 6.19615173E+09  544.25278      201618.27    
 1.72315537E-06 5.75247973E-09 6.31894153E+09 6.31873537E+09  558.54697      205606.50    
 1.73469887E-06 5.79101585E-09 6.44877910E+09 6.44856875E+09  574.08192      209773.38    
 1.74631969E-06 5.82981012E-09 6.57797346E+09 6.57775899E+09  589.45319      213884.12    
 1.75801837E-06 5.86886429E-09 6.70932161E+09 6.70910280E+09  605.15458      218198.43    
 1.76979541E-06 5.90818007E-09 6.84759825E+09 6.84737476E+09  622.06497      222869.47    
 1.78165135E-06 5.94775924E-09 6.98306527E+09 6.98283725E+09  638.40477      227385.45    
 1.79358672E-06 5.98760354E-09 7.12553966E+09 7.12530692E+09  655.97562      232080.58    
 1.80560203E-06 6.02771477E-09 7.26929082E+09 7.26905340E+09  673.72847      236750.52    
 1.81769784E-06 6.06809470E-09 7.41339671E+09 7.41315464E+09  691.48034      241377.35    
 1.82987468E-06 6.10874514E-09 7.56721903E+09 7.56697204E+09  711.00143      246272.01    
 1.84213310E-06 6.14966790E-09 7.71691655E+09 7.71666460E+09  729.67958      251224.63    
 1.85447363E-06 6.19086481E-09 7.87324933E+09 7.87299208E+09  749.55119      256498.62    
 1.86689683E-06 6.23233769E-09 8.03318662E+09 8.03292401E+09  770.05211      261831.46    
 1.87940326E-06 6.27408840E-09 8.19206828E+09 8.19180043E+09  790.27387      267059.59    
 1.89199346E-06 6.31611880E-09 8.36159316E+09 8.36131978E+09  812.49766      272563.79    
 1.90466801E-06 6.35843077E-09 8.52780653E+09 8.52752780E+09  834.00355      277889.70    
 1.91742747E-06 6.40102618E-09 8.69933597E+09 8.69905175E+09  856.47496      283364.96    
 1.93027240E-06 6.44390694E-09 8.87726969E+09 8.87697953E+09  880.14651      289280.40    
 1.94320339E-06 6.48707497E-09 9.05283822E+09 9.05254213E+09  903.26216      295194.28    
 1.95622099E-06 6.53053217E-09 9.23886531E+09 9.23856298E+09  928.40094      301398.19    
 1.96932581E-06 6.57428050E-09 9.42381069E+09 9.42350226E+09  953.24216      307474.88    
 1.98251841E-06 6.61832191E-09 9.61200413E+09 9.61168957E+09  978.65090      313584.47    
 1.99579939E-06 6.66265834E-09 9.80994567E+09 9.80962475E+09  1005.9803      319915.77    
 2.00916934E-06 6.70729179E-09 1.00039506E+10 1.00036234E+10  1032.4039      326133.88    
 2.02262885E-06 6.75222424E-09 1.02080751E+10 1.02077411E+10  1060.8373      332939.15    
 2.03617854E-06 6.79745770E-09 1.04138492E+10 1.04135082E+10  1089.5275      339877.11    
 2.04981899E-06 6.84299417E-09 1.06203141E+10 1.06199662E+10  1118.2546      346749.29    
 2.06355082E-06 6.88883570E-09 1.08404989E+10 1.08401437E+10  1149.8033      353984.30    
 2.07737464E-06 6.93498432E-09 1.10548736E+10 1.10545115E+10  1180.0084      360932.51    
 2.09129106E-06 6.98144209E-09 1.12788437E+10 1.12784744E+10  1212.1650      368098.70    
 2.10530072E-06 7.02821109E-09 1.15077756E+10 1.15073989E+10  1245.2966      375455.41    
 2.11940422E-06 7.07529339E-09 1.17352963E+10 1.17349119E+10  1277.9977      383065.18    
 2.13360221E-06 7.12269110E-09 1.19781538E+10 1.19777612E+10  1313.9600      391264.63    
 2.14789530E-06 7.17040633E-09 1.22160641E+10 1.22156635E+10  1348.7149      399169.25    
 2.16228415E-06 7.21844121E-09 1.24617961E+10 1.24613875E+10  1385.0787      407238.62    
 2.17676939E-06 7.26679787E-09 1.27164748E+10 1.27160579E+10  1423.3345      415483.52    
 2.19135167E-06 7.31547848E-09 1.29678782E+10 1.29674532E+10  1460.7154      423530.16    
 2.20603163E-06 7.36448520E-09 1.32343643E+10 1.32339306E+10  1501.3949      432105.42    
 2.22080994E-06 7.41382021E-09 1.34990727E+10 1.34986301E+10  1541.5400      441017.58    
 2.23568724E-06 7.46348573E-09 1.37686661E+10 1.37682144E+10  1582.6574      450096.97    
 2.25066421E-06 7.51348396E-09 1.40519675E+10 1.40515064E+10  1626.8248      459517.07    
 2.26574151E-06 7.56381713E-09 1.43297572E+10 1.43292869E+10  1669.5551      468625.44    
 2.28091982E-06 7.61448748E-09 1.46221551E+10 1.46216753E+10  1715.5661      478089.70    
 2.29619980E-06 7.66549727E-09 1.49166583E+10 1.49161691E+10  1761.9318      487498.54    
 2.31158215E-06 7.71684879E-09 1.52124125E+10 1.52119137E+10  1808.4192      497047.68    
 2.32706754E-06 7.76854430E-09 1.55275317E+10 1.55270221E+10  1859.4059      507716.09    
 2.34265667E-06 7.82058613E-09 1.58344720E+10 1.58339521E+10  1908.2510      518029.77    
 2.35835023E-06 7.87297659E-09 1.61552837E+10 1.61547531E+10  1960.2872      528690.03    
 2.37414893E-06 7.92571802E-09 1.64829127E+10 1.64823712E+10  2013.8307      539423.59    
 2.39005346E-06 7.97881276E-09 1.68086641E+10 1.68081121E+10  2066.7123      549968.22    
 2.40606454E-06 8.03226319E-09 1.71565081E+10 1.71559449E+10  2124.9057      561056.45    
 2.42218287E-06 8.08607168E-09 1.74969771E+10 1.74964027E+10  2181.0711      572138.43    
 2.43840918E-06 8.14024064E-09 1.78489436E+10 1.78483573E+10  2239.9157      584059.58    
 2.45474420E-06 8.19477248E-09 1.82133980E+10 1.82127994E+10  2301.7408      596320.83    
 2.47118864E-06 8.24966963E-09 1.85733241E+10 1.85727135E+10  2362.1899      608260.97    
 2.48774324E-06 8.30493454E-09 1.89549933E+10 1.89543701E+10  2428.0167      620763.17    
 2.50440875E-06 8.36056967E-09 1.93337898E+10 1.93331544E+10  2492.8936      633002.05    
 2.52118589E-06 8.41657750E-09 1.97199136E+10 1.97192657E+10  2559.4306      645329.12    
 2.53807543E-06 8.47296053E-09 2.01253028E+10 2.01246416E+10  2630.8098      658608.13    
 2.55507811E-06 8.52972128E-09 2.05229820E+10 2.05223072E+10  2699.9093      672075.63    
 2.57219470E-06 8.58686227E-09 2.09417421E+10 2.09410531E+10  2774.3638      686161.96    
 2.58942595E-06 8.64438604E-09 2.13631498E+10 2.13624469E+10  2849.2937      700130.76    
 2.60677263E-06 8.70229518E-09 2.17867220E+10 2.17860050E+10  2924.5211      714001.69    
 2.62423551E-06 8.76059224E-09 2.22376116E+10 2.22368801E+10  3006.9213      728552.06    
 2.64181539E-06 8.81927985E-09 2.26769949E+10 2.26762492E+10  3085.9090      742605.32    
 2.65951303E-06 8.87836060E-09 2.31364233E+10 2.31356625E+10  3170.1138      757724.51    
 2.67732922E-06 8.93783714E-09 2.36052008E+10 2.36044240E+10  3256.6440      773627.91    
 2.69526477E-06 8.99771211E-09 2.40714966E+10 2.40707040E+10  3342.1590      789280.15    
 2.71332047E-06 9.05798819E-09 2.45696054E+10 2.45687962E+10  3436.3254      805799.33    
 2.73149713E-06 9.11866806E-09 2.50567407E+10 2.50559155E+10  3527.0906      821724.82    
 2.74979555E-06 9.17975443E-09 2.55607578E+10 2.55599161E+10  3622.3131      838001.15    
 2.76821656E-06 9.24125002E-09 2.60821895E+10 2.60813311E+10  3722.2274      854686.93    
 2.78676096E-06 9.30315757E-09 2.65973712E+10 2.65964956E+10  3819.9797      871739.29    
 2.80542960E-06 9.36547984E-09 2.71438868E+10 2.71429925E+10  3926.4986      890300.75    
 2.82422330E-06 9.42821962E-09 2.76858242E+10 2.76849117E+10  4031.3423      908473.62    
 2.84314290E-06 9.49137968E-09 2.82387254E+10 2.82377945E+10  4139.0132      926793.86    
 2.86218924E-06 9.55496287E-09 2.88186841E+10 2.88177341E+10  4254.3682      945744.48    
 2.88136318E-06 9.61897199E-09 2.93878656E+10 2.93868971E+10  4366.1087      964115.18    
 2.90066556E-06 9.68340992E-09 2.99874558E+10 2.99864680E+10  4486.5892      983335.26    
 2.92009725E-06 9.74827952E-09 3.05903134E+10 3.05893054E+10  4607.6797      1003425.4    
 2.93965911E-06 9.81358368E-09 3.11968036E+10 3.11957749E+10  4729.4137      1023989.0    
 2.95935202E-06 9.87932532E-09 3.18418106E+10 3.18407601E+10  4862.5804      1045648.0    
 2.97917685E-06 9.94550737E-09 3.24706405E+10 3.24695691E+10  4990.3107      1066449.8    
 2.99913449E-06 1.00121328E-08 3.31284225E+10 3.31273295E+10  5126.5693      1087945.8    
 3.01922583E-06 1.00792045E-08 3.37989961E+10 3.37978813E+10  5266.4070      1109552.2    
 3.03945176E-06 1.01467255E-08 3.44663133E+10 3.44651768E+10  5404.6924      1131011.5    
 3.05981319E-06 1.02146989E-08 3.51794236E+10 3.51782632E+10  5557.0675      1154886.5    
 3.08031101E-06 1.02831276E-08 3.58762390E+10 3.58750547E+10  5703.7457      1178520.2    
 3.10094616E-06 1.03520148E-08 3.65978174E+10 3.65966089E+10  5857.8335      1202722.7    
 3.12171953E-06 1.04213634E-08 3.73436571E+10 3.73424237E+10  6019.3015      1227396.2    
 3.14263207E-06 1.04911766E-08 3.80808829E+10 3.80796253E+10  6177.3751      1251478.2    
 3.16368471E-06 1.05614574E-08 3.88632430E+10 3.88619599E+10  6349.7390      1276672.6    
 3.18487837E-06 1.06322091E-08 3.96383877E+10 3.96370795E+10  6519.1691      1301701.3    
 3.20621402E-06 1.07034348E-08 4.04299011E+10 4.04285662E+10  6693.4013      1328272.9    
 3.22769259E-06 1.07751376E-08 4.12593908E+10 4.12580274E+10  6879.8234      1356467.6    
 3.24931505E-06 1.08473207E-08 4.20738316E+10 4.20724408E+10  7060.5167      1383736.5    
 3.27108236E-06 1.09199874E-08 4.29321165E+10 4.29306972E+10  7255.4731      1412132.6    
 3.29299549E-06 1.09931409E-08 4.37943283E+10 4.37928806E+10  7451.1593      1440259.8    
 3.31505541E-06 1.10667844E-08 4.46624999E+10 4.46610240E+10  7648.1493      1468254.5    
 3.33726312E-06 1.11409213E-08 4.55849476E+10 4.55834416E+10  7863.3571      1498067.7    
 3.35961959E-06 1.12155548E-08 4.64846699E+10 4.64831334E+10  8069.9065      1528475.1    
 3.38212584E-06 1.12906884E-08 4.74261907E+10 4.74246220E+10  8290.3952      1560456.1    
 3.40478285E-06 1.13663252E-08 4.83851729E+10 4.83835718E+10  8516.3786      1592569.8    
 3.42759164E-06 1.14424687E-08 4.93399185E+10 4.93382856E+10  8739.9961      1624138.6    
 3.45055323E-06 1.15191223E-08 5.03605481E+10 5.03588817E+10  8986.5586      1657418.7    
 3.47366865E-06 1.15962894E-08 5.13570236E+10 5.13553248E+10  9223.5906      1689520.4    
 3.49693891E-06 1.16739735E-08 5.23897858E+10 5.23880534E+10  9472.9306      1723003.8    
 3.52036506E-06 1.17521780E-08 5.34563134E+10 5.34545444E+10  9733.8706      1759274.1    
 3.54394814E-06 1.18309064E-08 5.45109941E+10 5.45091890E+10  9989.4863      1795020.4    
 3.56768921E-06 1.19101621E-08 5.56306583E+10 5.56288155E+10  10268.394      1832540.4    
 3.59158932E-06 1.19899488E-08 5.67390541E+10 5.67371744E+10  10542.194      1869143.3    
 3.61564954E-06 1.20702701E-08 5.78718307E+10 5.78699137E+10  10824.133      1906106.4    
 3.63987094E-06 1.21511293E-08 5.90578659E+10 5.90559106E+10  11125.401      1944233.7    
 3.66425460E-06 1.22325303E-08 6.02229112E+10 6.02209175E+10  11417.593      1982246.5    
 3.68880161E-06 1.23144766E-08 6.14511430E+10 6.14491071E+10  11733.059      2024159.7    
 3.71351306E-06 1.23969718E-08 6.26839269E+10 6.26818490E+10  12049.291      2065942.2    
 3.73839005E-06 1.24800197E-08 6.39263246E+10 6.39242047E+10  12368.056      2107528.8    
 3.76343369E-06 1.25636239E-08 6.52451559E+10 6.52429921E+10  12715.845      2151090.9    
 3.78864510E-06 1.26477882E-08 6.65320835E+10 6.65298774E+10  13049.847      2193045.5    
 3.81402541E-06 1.27325163E-08 6.78793217E+10 6.78770719E+10  13406.629      2236388.2    
 3.83957574E-06 1.28178120E-08 6.92503358E+10 6.92480405E+10  13771.823      2281490.1    
 3.86529723E-06 1.29036791E-08 7.06158984E+10 7.06135562E+10  14133.425      2328042.3    
 3.89119103E-06 1.29901214E-08 7.20762062E+10 7.20738141E+10  14532.390      2377629.2    
 3.91725829E-06 1.30771428E-08 7.35007757E+10 7.34983356E+10  14915.429      2425244.5    
 3.94350018E-06 1.31647472E-08 7.49784606E+10 7.49759712E+10  15318.898      2474060.8    
 3.96991787E-06 1.32529384E-08 7.65030775E+10 7.65005380E+10  15740.584      2523715.5    
 3.99651253E-06 1.33417205E-08 7.80114346E+10 7.80088461E+10  16153.927      2572335.2    
 4.02328535E-06 1.34310972E-08 7.96133066E+10 7.96106647E+10  16605.232      2625309.6    
 4.05023752E-06 1.35210728E-08 8.11977216E+10 8.11950251E+10  17047.689      2679450.2    
 4.07737024E-06 1.36116511E-08 8.28183778E+10 8.28156259E+10  17503.908      2734388.9    
 4.10468473E-06 1.37028361E-08 8.45136658E+10 8.45108567E+10  17990.767      2791111.2    
 4.13218219E-06 1.37946320E-08 8.61797076E+10 8.61768430E+10  18463.254      2846108.4    
