 Castelli and Kurucz 2004-2012 Atmosphere
 T     34000.     G    4.50000 [-4.0a] N(He)/Ntot=0.089 VTURB=2.0  L/H=1.25 NOV
 Wavelength  Eddington Hnu
   (nm)    (ergs/s/cm2/Hz/sr)
  9.0900      3.71420E-28
  9.3500      2.20860E-27
  9.6100      1.19270E-26
  9.7700      3.21760E-26
  9.9600      1.00280E-25
  10.200      3.96640E-25
  10.380      1.06650E-24
  10.560      2.77100E-24
  10.770      8.10420E-24
  11.040      3.03070E-23
  11.400      1.59380E-22
  11.780      8.22030E-22
  12.130      3.39550E-21
  12.480      1.29330E-20
  12.710      2.98920E-20
  12.840      4.73520E-20
  13.050      9.76050E-20
  13.240      1.84040E-19
  13.390      2.99700E-19
  13.660      7.01310E-19
  13.980      1.83930E-18
  14.330      5.01980E-18
  14.720      1.45000E-17
  15.100      3.86110E-17
  15.520      1.07610E-16
  15.880      2.47800E-16
  16.200      5.03710E-16
  16.600      1.17480E-15
  17.030      2.78850E-15
  17.340      5.05860E-15
  17.680      9.48240E-15
  18.020      1.73430E-14
  18.170      2.24670E-14
  18.610      4.68200E-14
  19.100      1.01740E-13
  19.390      1.57970E-13
  19.840      3.04510E-13
  20.180      4.89920E-13
  20.500      7.54980E-13
  21.050      1.53730E-12
  21.620      3.08550E-12
  21.980      4.69780E-12
  22.300      6.74470E-12
  22.680      1.02200E-11
  23.000      4.56530E-11
  23.400      2.56460E-10
  24.000      1.02660E-09
  24.650      3.86660E-09
  25.240      7.87320E-09
  25.680      4.88030E-09
  26.000      1.76930E-08
  26.400      2.76530E-08
  26.850      4.23000E-08
  27.350      5.75340E-08
  27.850      7.01740E-08
  28.400      8.48450E-08
  29.000      9.35080E-08
  29.600      7.81270E-08
  30.100      3.77940E-08
  30.800      6.67660E-08
  31.800      1.67280E-07
  32.800      2.23230E-07
  33.800      2.83260E-07
  34.800      3.68930E-07
  35.700      4.61030E-07
  36.600      5.82460E-07
  37.500      7.24140E-07
  38.500      9.32990E-07
  39.500      1.18240E-06
  40.500      1.48650E-06
  41.400      1.81570E-06
  42.200      2.15260E-06
  43.000      2.53790E-06
  44.100      3.16110E-06
  45.100      3.82270E-06
  46.000      4.49460E-06
  47.000      5.37490E-06
  48.000      6.35950E-06
  49.000      7.45760E-06
  50.000      8.73110E-06
  50.600      4.07120E-05
  51.200      1.06950E-04
  52.000      1.09630E-04
  53.000      1.18840E-04
  54.000      1.16900E-04
  55.000      1.25760E-04
  56.000      1.30730E-04
  57.000      1.35040E-04
  58.000      1.33930E-04
  59.000      1.43340E-04
  60.000      1.46880E-04
  61.000      1.52020E-04
  62.000      1.57740E-04
  63.000      1.62810E-04
  64.000      1.67950E-04
  65.000      1.73380E-04
  65.800      1.76610E-04
  66.500      1.81230E-04
  67.500      1.87810E-04
  68.500      1.91580E-04
  69.500      2.00010E-04
  70.500      2.03320E-04
  71.600      2.13110E-04
  72.600      2.19590E-04
  73.500      2.25790E-04
  74.500      2.32250E-04
  75.500      2.38770E-04
  76.500      2.45300E-04
  77.500      2.53090E-04
  78.500      2.60250E-04
  79.500      2.67310E-04
  80.500      2.74360E-04
  81.500      2.81710E-04
  82.500      2.89260E-04
  83.500      2.91130E-04
  84.500      3.04000E-04
  85.500      3.11410E-04
  86.500      3.18890E-04
  87.500      3.26330E-04
  88.500      3.33800E-04
  89.500      3.41270E-04
  90.500      3.48480E-04
  91.500      3.71330E-04
  92.500      1.02970E-03
  93.500      1.55330E-03
  94.500      2.32220E-03
  95.500      2.59740E-03
  96.500      3.10620E-03
  97.500      2.27040E-03
  98.500      3.17800E-03
  99.500      2.99920E-03
  100.50      3.19080E-03
  101.50      3.14660E-03
  102.50      2.19590E-03
  103.50      3.09670E-03
  104.50      3.13500E-03
  105.50      3.12380E-03
  106.50      3.09420E-03
  107.50      3.08050E-03
  108.50      2.91630E-03
  109.50      3.06080E-03
  110.50      3.04280E-03
  111.50      3.02470E-03
  112.50      2.97610E-03
  113.50      2.99230E-03
  114.50      2.97480E-03
  115.50      2.95610E-03
  116.50      2.94020E-03
  117.50      2.80220E-03
  118.50      2.90520E-03
  119.50      2.88490E-03
  120.50      2.83190E-03
  121.50      2.02450E-03
  122.50      2.78830E-03
  123.50      2.81470E-03
  124.50      2.79790E-03
  125.50      2.78690E-03
  126.50      2.76960E-03
  127.50      2.75240E-03
  128.50      2.73520E-03
  129.50      2.71480E-03
  130.50      2.70020E-03
  131.50      2.68420E-03
  132.50      2.66760E-03
  133.50      2.65020E-03
  134.50      2.63410E-03
  135.50      2.61710E-03
  136.50      2.60020E-03
  137.50      2.58330E-03
  138.50      2.56700E-03
  139.50      2.52400E-03
  140.50      2.51400E-03
  141.50      2.51770E-03
  142.50      2.50140E-03
  143.50      2.48540E-03
  144.20      2.47410E-03
  144.70      2.46610E-03
  145.50      2.45320E-03
  146.50      2.43740E-03
  147.50      2.42170E-03
  148.50      2.40630E-03
  149.50      2.39090E-03
  150.50      2.37560E-03
  151.20      2.36520E-03
  151.70      2.35770E-03
  152.50      2.34570E-03
  153.50      2.33040E-03
  154.50      2.29050E-03
  155.50      2.27830E-03
  156.50      2.28530E-03
  157.50      2.27060E-03
  158.50      2.25570E-03
  159.50      2.24100E-03
  160.50      2.22580E-03
  161.50      2.21150E-03
  162.50      2.19650E-03
  163.50      2.14500E-03
  164.50      2.04790E-03
  165.50      2.15540E-03
  166.50      2.14180E-03
  167.20      2.13220E-03
  167.70      2.12590E-03
  168.50      2.11490E-03
  169.50      2.10140E-03
  170.50      2.08800E-03
  171.50      2.07310E-03
  172.50      2.06070E-03
  173.50      2.04830E-03
  174.50      2.03510E-03
  175.50      2.02210E-03
  176.50      2.00940E-03
  177.50      1.99680E-03
  178.50      1.98420E-03
  179.50      1.97180E-03
  180.50      1.95950E-03
  181.50      1.94740E-03
  182.50      1.93520E-03
  183.50      1.92310E-03
  184.50      1.91100E-03
  185.50      1.89900E-03
  186.50      1.88710E-03
  187.50      1.87550E-03
  188.50      1.86390E-03
  189.50      1.85220E-03
  190.50      1.84080E-03
  191.50      1.82920E-03
  192.50      1.81780E-03
  193.50      1.80680E-03
  194.50      1.79570E-03
  195.50      1.78460E-03
  196.70      1.77150E-03
  197.60      1.76180E-03
  198.40      1.75330E-03
  199.50      1.74160E-03
  200.50      1.73110E-03
  201.50      1.72070E-03
  202.50      1.71040E-03
  203.50      1.70030E-03
  204.50      1.69020E-03
  205.50      1.43820E-03
  206.50      1.40690E-03
  207.40      1.41770E-03
  207.80      1.43770E-03
  208.50      1.48980E-03
  209.50      1.59690E-03
  210.50      1.63090E-03
  211.50      1.62480E-03
  212.50      1.61520E-03
  213.50      1.60370E-03
  214.50      1.59560E-03
  215.50      1.59740E-03
  216.50      1.57000E-03
  217.50      1.58520E-03
  218.50      1.54980E-03
  219.50      1.56560E-03
  220.50      1.55760E-03
  221.50      1.52030E-03
  222.50      1.53910E-03
  223.50      1.53000E-03
  224.50      1.52040E-03
  225.50      1.48500E-03
  226.50      1.50320E-03
  227.50      1.49440E-03
  228.50      1.48570E-03
  229.50      1.47150E-03
  230.50      1.44310E-03
  231.50      1.45990E-03
  232.50      1.45170E-03
  233.50      1.44330E-03
  234.50      1.43490E-03
  235.50      1.42660E-03
  236.50      1.41830E-03
  237.50      1.41020E-03
  238.50      1.37890E-03
  239.50      1.39400E-03
  240.50      1.38620E-03
  241.50      1.37830E-03
  242.50      1.37050E-03
  243.50      1.36280E-03
  244.50      1.35520E-03
  245.50      1.34760E-03
  246.50      1.34020E-03
  247.50      1.33270E-03
  248.50      1.32530E-03
  249.50      1.30520E-03
  250.50      1.30870E-03
  251.30      1.25800E-03
  251.80      1.30100E-03
  252.50      1.29630E-03
  253.50      1.28910E-03
  254.50      1.28210E-03
  255.50      1.27510E-03
  256.50      1.26810E-03
  257.50      1.26120E-03
  258.50      1.25430E-03
  259.50      1.24750E-03
  260.50      1.24400E-03
  261.50      1.23720E-03
  262.50      1.23050E-03
  263.50      1.22360E-03
  264.50      1.21670E-03
  265.50      1.20960E-03
  266.50      1.20220E-03
  267.50      1.19490E-03
  268.50      1.19160E-03
  269.50      1.18130E-03
  270.50      1.17910E-03
  271.50      1.17280E-03
  272.50      1.16170E-03
  273.50      1.14390E-03
  274.50      1.15450E-03
  275.50      1.14850E-03
  276.50      1.13680E-03
  277.50      1.13660E-03
  278.50      1.13070E-03
  279.50      1.12490E-03
  280.50      1.11910E-03
  281.50      1.11340E-03
  282.50      1.10090E-03
  283.50      1.09910E-03
  284.50      1.09630E-03
  285.50      1.09070E-03
  286.50      1.08520E-03
  287.50      1.07970E-03
  288.50      1.07420E-03
  289.50      1.06880E-03
  291.00      1.06070E-03
  293.00      1.05010E-03
  295.00      1.03480E-03
  297.00      1.02940E-03
  299.00      1.01930E-03
  301.00      1.00930E-03
  303.00      9.99440E-04
  305.00      9.89720E-04
  307.00      9.80130E-04
  309.00      9.70650E-04
  311.00      9.61330E-04
  313.00      9.52650E-04
  315.00      9.43580E-04
  317.00      9.34610E-04
  319.00      9.20150E-04
  321.00      9.10600E-04
  323.00      9.08290E-04
  325.00      8.99740E-04
  327.00      8.91970E-04
  329.00      8.83040E-04
  331.00      8.75680E-04
  333.00      8.67710E-04
  335.00      8.58870E-04
  337.00      8.52080E-04
  339.00      8.44420E-04
  341.00      8.36860E-04
  343.00      8.27450E-04
  345.00      8.18220E-04
  347.00      8.12550E-04
  349.00      8.05360E-04
  351.00      7.98970E-04
  353.00      7.92770E-04
  355.00      7.85640E-04
  357.00      7.82030E-04
  359.00      7.71350E-04
  361.00      7.66610E-04
  363.00      7.58180E-04
  364.00      7.55920E-04
  365.00      7.35390E-04
  367.00      7.31040E-04
  369.00      7.25280E-04
  371.00      7.14350E-04
  373.00      7.03560E-04
  375.00      7.07520E-04
  377.00      7.01870E-04
  379.00      7.22440E-04
  381.00      7.44690E-04
  383.00      6.82880E-04
  385.00      7.57890E-04
  387.00      7.65470E-04
  389.00      6.63510E-04
  391.00      7.59610E-04
  393.00      7.53880E-04
  395.00      7.48580E-04
  397.00      6.39840E-04
  399.00      7.33570E-04
  401.00      7.31950E-04
  403.00      7.05920E-04
  405.00      7.25540E-04
  407.00      7.17660E-04
  409.00      6.83500E-04
  411.00      6.25020E-04
  413.00      6.94990E-04
  415.00      6.92120E-04
  417.00      6.90040E-04
  419.00      6.84220E-04
  421.00      6.76400E-04
  423.00      6.74340E-04
  425.00      6.68980E-04
  427.00      6.63690E-04
  429.00      6.58450E-04
  431.00      6.51110E-04
  433.00      6.13250E-04
  435.00      5.77470E-04
  437.00      6.35070E-04
  439.00      6.22380E-04
  441.00      6.28330E-04
  443.00      6.22220E-04
  445.00      6.18730E-04
  447.00      5.97030E-04
  449.00      6.09300E-04
  451.00      6.04740E-04
  453.00      6.00030E-04
  455.00      5.91740E-04
  457.00      5.91210E-04
  459.00      5.86790E-04
  461.00      5.82430E-04
  463.00      5.78110E-04
  465.00      5.73820E-04
  467.00      5.69600E-04
  469.00      5.56310E-04
  471.00      5.56890E-04
  473.00      5.57220E-04
  475.00      5.53180E-04
  477.00      5.49180E-04
  479.00      5.45220E-04
  481.00      5.41290E-04
  483.00      5.35410E-04
  485.00      5.10180E-04
  487.00      4.73240E-04
  489.00      5.22970E-04
  491.00      5.21840E-04
  493.00      5.10320E-04
  495.00      5.15040E-04
  497.00      5.11450E-04
  499.00      5.07890E-04
  501.00      5.00340E-04
  503.00      5.00890E-04
  505.00      4.95770E-04
  507.00      4.94030E-04
  509.00      4.90650E-04
  511.00      4.87300E-04
  513.00      4.83990E-04
  515.00      4.80710E-04
  517.00      4.77460E-04
  519.00      4.74250E-04
  521.00      4.71060E-04
  523.00      4.67910E-04
  525.00      4.64800E-04
  527.00      4.61710E-04
  529.00      4.58650E-04
  531.00      4.55630E-04
  533.00      4.52630E-04
  535.00      4.49670E-04
  537.00      4.46730E-04
  539.00      4.43820E-04
  541.00      4.38220E-04
  543.00      4.38090E-04
  545.00      4.35260E-04
  547.00      4.32460E-04
  549.00      4.29690E-04
  551.00      4.26940E-04
  553.00      4.24220E-04
  555.00      4.21520E-04
  557.00      4.18850E-04
  559.00      4.16200E-04
  561.00      4.13580E-04
  563.00      4.10990E-04
  565.00      4.08420E-04
  567.00      4.05870E-04
  569.00      4.02470E-04
  571.00      3.96110E-04
  573.00      3.93730E-04
  575.00      3.91380E-04
  577.00      3.89050E-04
  579.00      3.86740E-04
  581.00      3.84460E-04
  583.00      3.82260E-04
  585.00      3.80200E-04
  587.00      3.70470E-04
  589.00      3.75890E-04
  591.00      3.74460E-04
  593.00      3.72660E-04
  595.00      3.70880E-04
  597.00      3.69120E-04
  599.00      3.67610E-04
  601.00      3.66050E-04
  603.00      3.63880E-04
  605.00      3.61740E-04
  607.00      3.59620E-04
  609.00      3.57520E-04
  611.00      3.55430E-04
  613.00      3.53360E-04
  615.00      3.51310E-04
  617.00      3.49270E-04
  619.00      3.47260E-04
  621.00      3.45260E-04
  623.00      3.43280E-04
  625.00      3.41310E-04
  627.00      3.39370E-04
  629.00      3.37430E-04
  631.00      3.35520E-04
  633.00      3.33620E-04
  635.00      3.31740E-04
  637.00      3.29870E-04
  639.00      3.28020E-04
  641.00      3.26180E-04
  643.00      3.24360E-04
  645.00      3.22560E-04
  647.00      3.20770E-04
  649.00      3.18990E-04
  651.00      3.17220E-04
  653.00      3.14220E-04
  655.00      3.06220E-04
  657.00      2.82700E-04
  659.00      3.08540E-04
  661.00      3.08510E-04
  663.00      3.06960E-04
  665.00      3.05400E-04
  667.00      3.01550E-04
  669.00      2.99580E-04
  671.00      3.00480E-04
  673.00      2.98880E-04
  675.00      2.97280E-04
  677.00      2.95690E-04
  679.00      2.94120E-04
  681.00      2.92560E-04
  683.00      2.91010E-04
  685.00      2.89480E-04
  687.00      2.87950E-04
  689.00      2.86160E-04
  691.00      2.84940E-04
  693.00      2.83450E-04
  695.00      2.81980E-04
  697.00      2.80510E-04
  699.00      2.79060E-04
  701.00      2.77620E-04
  703.00      2.76190E-04
  705.00      2.74770E-04
  707.00      2.70320E-04
  709.00      2.71960E-04
  711.00      2.70570E-04
  713.00      2.69200E-04
  715.00      2.67830E-04
  717.00      2.66190E-04
  719.00      2.65000E-04
  721.00      2.63790E-04
  723.00      2.62470E-04
  725.00      2.61150E-04
  727.00      2.59850E-04
  729.00      2.57060E-04
  731.00      2.57250E-04
  733.00      2.55990E-04
  735.00      2.54720E-04
  737.00      2.53470E-04
  739.00      2.52220E-04
  741.00      2.50980E-04
  743.00      2.49750E-04
  745.00      2.48550E-04
  747.00      2.47330E-04
  749.00      2.46130E-04
  751.00      2.44890E-04
  753.00      2.43750E-04
  755.00      2.42570E-04
  757.00      2.41400E-04
  759.00      2.39860E-04
  761.00      2.39090E-04
  763.00      2.37950E-04
  765.00      2.36810E-04
  767.00      2.35680E-04
  769.00      2.34560E-04
  771.00      2.33450E-04
  773.00      2.32350E-04
  775.00      2.31250E-04
  777.00      2.30160E-04
  779.00      2.29080E-04
  781.00      2.27940E-04
  783.00      2.26940E-04
  785.00      2.26020E-04
  787.00      2.24960E-04
  789.00      2.23900E-04
  791.00      2.22880E-04
  793.00      2.21850E-04
  795.00      2.20830E-04
  797.00      2.19720E-04
  799.00      2.18800E-04
  801.00      2.17800E-04
  803.00      2.16800E-04
  805.00      2.15780E-04
  807.00      2.14820E-04
  809.00      2.13640E-04
  811.00      2.12730E-04
  813.00      2.11850E-04
  815.00      2.10720E-04
  817.00      2.09980E-04
  819.00      2.08800E-04
  821.00      2.06850E-04
  823.00      2.05850E-04
  825.00      2.05280E-04
  827.00      2.03960E-04
  829.00      2.03520E-04
  831.00      2.02670E-04
  833.00      2.01720E-04
  835.00      2.00300E-04
  837.00      1.99810E-04
  839.00      1.99100E-04
  841.00      1.98250E-04
  843.00      1.97300E-04
  845.00      1.95690E-04
  847.00      1.95620E-04
  849.00      1.94530E-04
  851.00      1.93850E-04
  853.00      1.92800E-04
  855.00      1.91610E-04
  857.00      1.92020E-04
  859.00      1.88550E-04
  861.00      1.88810E-04
  863.00      1.90300E-04
  865.00      1.87460E-04
  867.00      1.83210E-04
  869.00      1.87920E-04
  871.00      1.88430E-04
  873.00      1.85100E-04
  875.00      1.76670E-04
  877.00      1.82130E-04
  879.00      1.85860E-04
  881.00      1.85650E-04
  883.00      1.84250E-04
  885.00      1.76790E-04
  887.00      1.69760E-04
  889.00      1.80500E-04
  891.00      1.82020E-04
  893.00      1.81590E-04
  895.00      1.81140E-04
  897.00      1.80030E-04
  899.00      1.76460E-04
  901.00      1.63970E-04
  903.00      1.68870E-04
  905.00      1.75980E-04
  907.00      1.75350E-04
  909.00      1.75850E-04
  911.00      1.75690E-04
  913.00      1.75060E-04
  915.00      1.74340E-04
  917.00      1.72970E-04
  919.00      1.71790E-04
  921.00      1.66270E-04
  923.00      1.53340E-04
  925.00      1.64930E-04
  927.00      1.68850E-04
  929.00      1.68990E-04
  931.00      1.68190E-04
  933.00      1.68090E-04
  935.00      1.66670E-04
  937.00      1.66740E-04
  939.00      1.66080E-04
  941.00      1.65420E-04
  943.00      1.64760E-04
  945.00      1.64100E-04
  947.00      1.62750E-04
  949.00      1.62350E-04
  951.00      1.59980E-04
  953.00      1.54680E-04
  955.00      1.43280E-04
  957.00      1.55940E-04
  959.00      1.58610E-04
  961.00      1.58420E-04
  963.00      1.57800E-04
  965.00      1.57770E-04
  967.00      1.57160E-04
  969.00      1.56470E-04
  971.00      1.55660E-04
  973.00      1.55340E-04
  975.00      1.54740E-04
  977.00      1.54140E-04
  979.00      1.53550E-04
  981.00      1.52960E-04
  983.00      1.52380E-04
  985.00      1.51800E-04
  987.00      1.51220E-04
  989.00      1.50640E-04
  991.00      1.50070E-04
  993.00      1.49500E-04
  995.00      1.48930E-04
  997.00      1.48370E-04
  999.00      1.47500E-04
  1002.5      1.41840E-04
  1007.5      1.39160E-04
  1012.5      1.43090E-04
  1017.5      1.42790E-04
  1022.5      1.41440E-04
  1027.5      1.40180E-04
  1032.5      1.38490E-04
  1037.5      1.37640E-04
  1042.5      1.36390E-04
  1047.5      1.35160E-04
  1052.5      1.33950E-04
  1057.5      1.32760E-04
  1062.5      1.31580E-04
  1067.5      1.30250E-04
  1072.5      1.29270E-04
  1077.5      1.28130E-04
  1082.5      1.26130E-04
  1087.5      1.25580E-04
  1092.5      1.17210E-04
  1097.5      1.21460E-04
  1102.5      1.22140E-04
  1107.5      1.21560E-04
  1112.5      1.20600E-04
  1117.5      1.19580E-04
  1122.5      1.18540E-04
  1127.5      1.17580E-04
  1132.5      1.16590E-04
  1137.5      1.15620E-04
  1142.5      1.14660E-04
  1147.5      1.13720E-04
  1152.5      1.12780E-04
  1157.5      1.11860E-04
  1162.5      1.10790E-04
  1167.5      1.10020E-04
  1172.5      1.09150E-04
  1177.5      1.08270E-04
  1182.5      1.07400E-04
  1187.5      1.06540E-04
  1192.5      1.05690E-04
  1197.5      1.04060E-04
  1202.5      1.04030E-04
  1207.5      1.03210E-04
  1212.5      1.02400E-04
  1217.5      1.01600E-04
  1222.5      1.00810E-04
  1227.5      1.00020E-04
  1232.5      9.92520E-05
  1237.5      9.84890E-05
  1242.5      9.77340E-05
  1247.5      9.69880E-05
  1252.5      9.61170E-05
  1257.5      9.55210E-05
  1262.5      9.48000E-05
  1267.5      9.40870E-05
  1272.5      9.33460E-05
  1277.5      9.13800E-05
  1282.5      8.64490E-05
  1287.5      9.07810E-05
  1292.5      9.06390E-05
  1297.5      8.95280E-05
  1302.5      8.93150E-05
  1307.5      8.86630E-05
  1312.5      8.80180E-05
  1317.5      8.73800E-05
  1322.5      8.67490E-05
  1327.5      8.61250E-05
  1332.5      8.55070E-05
  1337.5      8.48960E-05
  1342.5      8.42460E-05
  1347.5      8.36940E-05
  1352.5      8.31020E-05
  1357.5      8.25170E-05
  1362.5      8.19380E-05
  1367.5      8.13650E-05
  1372.5      8.07970E-05
  1377.5      8.02360E-05
  1382.5      7.96810E-05
  1387.5      7.91310E-05
  1392.5      7.85870E-05
  1397.5      7.80480E-05
