 Castelli and Kurucz 2004-2012 Atmosphere
 T     32000.     G    4.00000 [-4.0a] N(He)/Ntot=0.089 VTURB=2.0  L/H=1.25 NOV
 Wavelength  Eddington Hnu
   (nm)    (ergs/s/cm2/Hz/sr)
  9.0900      1.34140E-30
  9.3500      9.28750E-30
  9.6100      5.79210E-29
  9.7700      1.70040E-28
  9.9600      5.83750E-28
  10.200      2.59700E-27
  10.380      7.60570E-27
  10.560      2.14130E-26
  10.770      6.86220E-26
  11.040      2.87570E-25
  11.400      1.74210E-24
  11.780      1.03620E-23
  12.130      4.83420E-23
  12.480      2.06540E-22
  12.710      5.14000E-22
  12.840      8.47700E-22
  13.050      1.85850E-21
  13.240      3.70160E-21
  13.390      6.29180E-21
  13.660      1.58740E-20
  13.980      4.52770E-20
  14.330      1.34910E-19
  14.720      4.28230E-19
  15.100      1.24300E-18
  15.520      3.79580E-18
  15.880      9.41870E-18
  16.200      2.03900E-17
  16.600      5.13130E-17
  17.030      1.31690E-16
  17.340      2.52120E-16
  17.680      5.00230E-16
  18.020      9.66550E-16
  18.170      1.28210E-15
  18.610      2.85690E-15
  19.100      6.66690E-15
  19.390      1.07810E-14
  19.840      2.20820E-14
  20.180      3.71220E-14
  20.500      5.95420E-14
  21.050      1.29560E-13
  21.620      2.77600E-13
  21.980      4.39710E-13
  22.300      6.53190E-13
  22.680      1.02940E-12
  23.000      6.49460E-12
  23.400      3.70910E-11
  24.000      1.20490E-10
  24.650      3.55150E-10
  25.240      6.36150E-10
  25.680      4.16200E-10
  26.000      1.16390E-09
  26.400      1.59390E-09
  26.850      2.20420E-09
  27.350      2.92110E-09
  27.850      3.66020E-09
  28.400      4.67960E-09
  29.000      5.84250E-09
  29.600      6.63400E-09
  30.100      5.06830E-09
  30.800      7.87740E-09
  31.800      1.85170E-08
  32.800      2.79950E-08
  33.800      4.11680E-08
  34.800      5.95130E-08
  35.700      8.12050E-08
  36.600      1.10410E-07
  37.500      1.46490E-07
  38.500      2.00800E-07
  39.500      2.69230E-07
  40.500      3.56180E-07
  41.400      4.53700E-07
  42.200      5.56980E-07
  43.000      6.78510E-07
  44.100      8.81090E-07
  45.100      1.10410E-06
  46.000      1.33810E-06
  47.000      1.65020E-06
  48.000      2.01110E-06
  49.000      2.42660E-06
  50.000      2.91500E-06
  50.600      1.92660E-05
  51.200      4.88890E-05
  52.000      5.02370E-05
  53.000      5.44810E-05
  54.000      5.36400E-05
  55.000      5.83730E-05
  56.000      6.10880E-05
  57.000      6.35560E-05
  58.000      6.28670E-05
  59.000      6.82880E-05
  60.000      7.05480E-05
  61.000      7.36400E-05
  62.000      7.69340E-05
  63.000      8.01050E-05
  64.000      8.31960E-05
  65.000      8.66290E-05
  65.800      8.87850E-05
  66.500      9.16180E-05
  67.500      9.56730E-05
  68.500      9.82100E-05
  69.500      1.03560E-04
  70.500      1.06030E-04
  71.600      1.12100E-04
  72.600      1.16350E-04
  73.500      1.20570E-04
  74.500      1.24910E-04
  75.500      1.29300E-04
  76.500      1.33840E-04
  77.500      1.39100E-04
  78.500      1.44070E-04
  79.500      1.48950E-04
  80.500      1.53900E-04
  81.500      1.59040E-04
  82.500      1.64370E-04
  83.500      1.66030E-04
  84.500      1.74910E-04
  85.500      1.80260E-04
  86.500      1.85680E-04
  87.500      1.91110E-04
  88.500      1.96600E-04
  89.500      2.02120E-04
  90.500      2.07570E-04
  91.500      2.52650E-04
  92.500      9.01800E-04
  93.500      1.33800E-03
  94.500      1.87700E-03
  95.500      2.05100E-03
  96.500      2.34680E-03
  97.500      1.80730E-03
  98.500      2.36270E-03
  99.500      2.27290E-03
  100.50      2.38380E-03
  101.50      2.36720E-03
  102.50      1.79110E-03
  103.50      2.34800E-03
  104.50      2.36570E-03
  105.50      2.35990E-03
  106.50      2.33920E-03
  107.50      2.33380E-03
  108.50      2.25040E-03
  109.50      2.33360E-03
  110.50      2.32400E-03
  111.50      2.31650E-03
  112.50      2.28270E-03
  113.50      2.30410E-03
  114.50      2.29590E-03
  115.50      2.28650E-03
  116.50      2.27930E-03
  117.50      2.16980E-03
  118.50      2.26070E-03
  119.50      2.25090E-03
  120.50      2.21790E-03
  121.50      1.68630E-03
  122.50      2.20190E-03
  123.50      2.21220E-03
  124.50      2.19920E-03
  125.50      2.19530E-03
  126.50      2.18570E-03
  127.50      2.17570E-03
  128.50      2.16560E-03
  129.50      2.15050E-03
  130.50      2.14410E-03
  131.50      2.13540E-03
  132.50      2.12490E-03
  133.50      2.11340E-03
  134.50      2.10440E-03
  135.50      2.09410E-03
  136.50      2.08360E-03
  137.50      2.07310E-03
  138.50      2.06270E-03
  139.50      2.02760E-03
  140.50      2.02110E-03
  141.50      2.03090E-03
  142.50      2.02040E-03
  143.50      2.01010E-03
  144.20      2.00290E-03
  144.70      1.99770E-03
  145.50      1.98920E-03
  146.50      1.97880E-03
  147.50      1.96840E-03
  148.50      1.95810E-03
  149.50      1.94760E-03
  150.50      1.93740E-03
  151.20      1.93030E-03
  151.70      1.92520E-03
  152.50      1.91690E-03
  153.50      1.90600E-03
  154.50      1.87550E-03
  155.50      1.86750E-03
  156.50      1.87510E-03
  157.50      1.86490E-03
  158.50      1.85460E-03
  159.50      1.84420E-03
  160.50      1.83320E-03
  161.50      1.82300E-03
  162.50      1.81220E-03
  163.50      1.77630E-03
  164.50      1.70090E-03
  165.50      1.78290E-03
  166.50      1.77300E-03
  167.20      1.76610E-03
  167.70      1.76170E-03
  168.50      1.75380E-03
  169.50      1.74420E-03
  170.50      1.73460E-03
  171.50      1.72340E-03
  172.50      1.71470E-03
  173.50      1.70600E-03
  174.50      1.69640E-03
  175.50      1.68670E-03
  176.50      1.67730E-03
  177.50      1.66780E-03
  178.50      1.65840E-03
  179.50      1.64910E-03
  180.50      1.63980E-03
  181.50      1.63060E-03
  182.50      1.62150E-03
  183.50      1.61250E-03
  184.50      1.60350E-03
  185.50      1.59450E-03
  186.50      1.58570E-03
  187.50      1.57700E-03
  188.50      1.56840E-03
  189.50      1.55960E-03
  190.50      1.55100E-03
  191.50      1.54210E-03
  192.50      1.53350E-03
  193.50      1.52500E-03
  194.50      1.51660E-03
  195.50      1.50810E-03
  196.70      1.49820E-03
  197.60      1.49070E-03
  198.40      1.48400E-03
  199.50      1.47480E-03
  200.50      1.46670E-03
  201.50      1.45860E-03
  202.50      1.45050E-03
  203.50      1.44260E-03
  204.50      1.43460E-03
  205.50      1.24430E-03
  206.50      1.22270E-03
  207.40      1.24080E-03
  207.80      1.26030E-03
  208.50      1.31490E-03
  209.50      1.38660E-03
  210.50      1.38990E-03
  211.50      1.38390E-03
  212.50      1.37680E-03
  213.50      1.36810E-03
  214.50      1.36240E-03
  215.50      1.36460E-03
  216.50      1.34340E-03
  217.50      1.35270E-03
  218.50      1.32840E-03
  219.50      1.33770E-03
  220.50      1.33050E-03
  221.50      1.30630E-03
  222.50      1.31600E-03
  223.50      1.30880E-03
  224.50      1.30160E-03
  225.50      1.27810E-03
  226.50      1.28730E-03
  227.50      1.28020E-03
  228.50      1.27320E-03
  229.50      1.26030E-03
  230.50      1.24420E-03
  231.50      1.25250E-03
  232.50      1.24580E-03
  233.50      1.23900E-03
  234.50      1.23230E-03
  235.50      1.22570E-03
  236.50      1.21910E-03
  237.50      1.21260E-03
  238.50      1.19210E-03
  239.50      1.19970E-03
  240.50      1.19340E-03
  241.50      1.18710E-03
  242.50      1.18090E-03
  243.50      1.17470E-03
  244.50      1.16850E-03
  245.50      1.16230E-03
  246.50      1.15620E-03
  247.50      1.15010E-03
  248.50      1.14400E-03
  249.50      1.12570E-03
  250.50      1.13110E-03
  251.30      1.09700E-03
  251.80      1.12410E-03
  252.50      1.12010E-03
  253.50      1.11430E-03
  254.50      1.10850E-03
  255.50      1.10280E-03
  256.50      1.09710E-03
  257.50      1.09150E-03
  258.50      1.08590E-03
  259.50      1.08040E-03
  260.50      1.07780E-03
  261.50      1.07230E-03
  262.50      1.06690E-03
  263.50      1.06080E-03
  264.50      1.05530E-03
  265.50      1.04930E-03
  266.50      1.04330E-03
  267.50      1.03750E-03
  268.50      1.03510E-03
  269.50      1.02640E-03
  270.50      1.02470E-03
  271.50      1.01960E-03
  272.50      1.01020E-03
  273.50      9.98650E-04
  274.50      1.00440E-03
  275.50      9.99390E-04
  276.50      9.89490E-04
  277.50      9.89480E-04
  278.50      9.84590E-04
  279.50      9.79720E-04
  280.50      9.74910E-04
  281.50      9.70130E-04
  282.50      9.59720E-04
  283.50      9.58720E-04
  284.50      9.55990E-04
  285.50      9.51350E-04
  286.50      9.46740E-04
  287.50      9.42140E-04
  288.50      9.37580E-04
  289.50      9.33050E-04
  291.00      9.26320E-04
  293.00      9.17480E-04
  295.00      9.04830E-04
  297.00      9.00190E-04
  299.00      8.91740E-04
  301.00      8.83430E-04
  303.00      8.75160E-04
  305.00      8.66990E-04
  307.00      8.58940E-04
  309.00      8.50990E-04
  311.00      8.43140E-04
  313.00      8.35870E-04
  315.00      8.28230E-04
  317.00      8.20640E-04
  319.00      8.08450E-04
  321.00      8.01500E-04
  323.00      7.98440E-04
  325.00      7.91230E-04
  327.00      7.84720E-04
  329.00      7.77090E-04
  331.00      7.70880E-04
  333.00      7.64100E-04
  335.00      7.56540E-04
  337.00      7.50820E-04
  339.00      7.44300E-04
  341.00      7.37870E-04
  343.00      7.29700E-04
  345.00      7.21750E-04
  347.00      7.17040E-04
  349.00      7.10830E-04
  351.00      7.06230E-04
  353.00      7.00510E-04
  355.00      6.94630E-04
  357.00      6.91370E-04
  359.00      6.82560E-04
  361.00      6.78080E-04
  363.00      6.71200E-04
  364.00      6.69620E-04
  365.00      6.54750E-04
  367.00      6.51080E-04
  369.00      6.45120E-04
  371.00      6.34960E-04
  373.00      6.22740E-04
  375.00      6.37760E-04
  377.00      6.37800E-04
  379.00      6.55660E-04
  381.00      6.75300E-04
  383.00      6.21700E-04
  385.00      6.84760E-04
  387.00      6.86560E-04
  389.00      6.07880E-04
  391.00      6.81320E-04
  393.00      6.73870E-04
  395.00      6.71150E-04
  397.00      5.86420E-04
  399.00      6.58970E-04
  401.00      6.55420E-04
  403.00      6.35320E-04
  405.00      6.48250E-04
  407.00      6.42520E-04
  409.00      6.19930E-04
  411.00      5.69780E-04
  413.00      6.23570E-04
  415.00      6.19640E-04
  417.00      6.17530E-04
  419.00      6.12930E-04
  421.00      6.06290E-04
  423.00      6.03920E-04
  425.00      5.99250E-04
  427.00      5.94640E-04
  429.00      5.90070E-04
  431.00      5.84800E-04
  433.00      5.58470E-04
  435.00      5.26400E-04
  437.00      5.71240E-04
  439.00      5.60370E-04
  441.00      5.63820E-04
  443.00      5.58510E-04
  445.00      5.55470E-04
  447.00      5.38820E-04
  449.00      5.47300E-04
  451.00      5.43290E-04
  453.00      5.39290E-04
  455.00      5.32860E-04
  457.00      5.31440E-04
  459.00      5.27570E-04
  461.00      5.23750E-04
  463.00      5.19970E-04
  465.00      5.16220E-04
  467.00      5.12520E-04
  469.00      5.02280E-04
  471.00      5.01480E-04
  473.00      5.01660E-04
  475.00      4.98110E-04
  477.00      4.94600E-04
  479.00      4.91130E-04
  481.00      4.87690E-04
  483.00      4.83610E-04
  485.00      4.66010E-04
  487.00      4.33140E-04
  489.00      4.72870E-04
  491.00      4.70950E-04
  493.00      4.61430E-04
  495.00      4.64610E-04
  497.00      4.61440E-04
  499.00      4.58300E-04
  501.00      4.51770E-04
  503.00      4.52130E-04
  505.00      4.47640E-04
  507.00      4.46080E-04
  509.00      4.43100E-04
  511.00      4.40140E-04
  513.00      4.37220E-04
  515.00      4.34330E-04
  517.00      4.31460E-04
  519.00      4.28630E-04
  521.00      4.25820E-04
  523.00      4.23030E-04
  525.00      4.20280E-04
  527.00      4.17550E-04
  529.00      4.14840E-04
  531.00      4.12170E-04
  533.00      4.09510E-04
  535.00      4.06880E-04
  537.00      4.04280E-04
  539.00      4.01700E-04
  541.00      3.97450E-04
  543.00      3.96600E-04
  545.00      3.94100E-04
  547.00      3.91610E-04
  549.00      3.89150E-04
  551.00      3.86710E-04
  553.00      3.84300E-04
  555.00      3.81900E-04
  557.00      3.79530E-04
  559.00      3.77190E-04
  561.00      3.74860E-04
  563.00      3.72560E-04
  565.00      3.70280E-04
  567.00      3.68010E-04
  569.00      3.65160E-04
  571.00      3.60200E-04
  573.00      3.58070E-04
  575.00      3.55960E-04
  577.00      3.53870E-04
  579.00      3.51800E-04
  581.00      3.49800E-04
  583.00      3.47860E-04
  585.00      3.46070E-04
  587.00      3.37720E-04
  589.00      3.42390E-04
  591.00      3.40890E-04
  593.00      3.39210E-04
  595.00      3.37550E-04
  597.00      3.36420E-04
  599.00      3.34470E-04
  601.00      3.32520E-04
  603.00      3.30590E-04
  605.00      3.28680E-04
  607.00      3.26790E-04
  609.00      3.24910E-04
  611.00      3.23050E-04
  613.00      3.21200E-04
  615.00      3.19370E-04
  617.00      3.17550E-04
  619.00      3.15750E-04
  621.00      3.13970E-04
  623.00      3.12190E-04
  625.00      3.10440E-04
  627.00      3.08690E-04
  629.00      3.06970E-04
  631.00      3.05250E-04
  633.00      3.03550E-04
  635.00      3.01870E-04
  637.00      3.00200E-04
  639.00      2.98540E-04
  641.00      2.96890E-04
  643.00      2.95260E-04
  645.00      2.93650E-04
  647.00      2.92040E-04
  649.00      2.90450E-04
  651.00      2.88870E-04
  653.00      2.86680E-04
  655.00      2.80990E-04
  657.00      2.60030E-04
  659.00      2.81780E-04
  661.00      2.81160E-04
  663.00      2.79660E-04
  665.00      2.78270E-04
  667.00      2.74970E-04
  669.00      2.73290E-04
  671.00      2.73860E-04
  673.00      2.72420E-04
  675.00      2.70980E-04
  677.00      2.69560E-04
  679.00      2.68150E-04
  681.00      2.66740E-04
  683.00      2.65350E-04
  685.00      2.63970E-04
  687.00      2.62600E-04
  689.00      2.61030E-04
  691.00      2.59900E-04
  693.00      2.58560E-04
  695.00      2.57230E-04
  697.00      2.55910E-04
  699.00      2.54600E-04
  701.00      2.53310E-04
  703.00      2.52020E-04
  705.00      2.50740E-04
  707.00      2.46650E-04
  709.00      2.48220E-04
  711.00      2.46970E-04
  713.00      2.45730E-04
  715.00      2.44500E-04
  717.00      2.43080E-04
  719.00      2.42010E-04
  721.00      2.40870E-04
  723.00      2.39670E-04
  725.00      2.38490E-04
  727.00      2.37310E-04
  729.00      2.34750E-04
  731.00      2.34970E-04
  733.00      2.33840E-04
  735.00      2.32700E-04
  737.00      2.31560E-04
  739.00      2.30440E-04
  741.00      2.29320E-04
  743.00      2.28210E-04
  745.00      2.27120E-04
  747.00      2.26030E-04
  749.00      2.24940E-04
  751.00      2.23820E-04
  753.00      2.22790E-04
  755.00      2.21730E-04
  757.00      2.20680E-04
  759.00      2.19410E-04
  761.00      2.18590E-04
  763.00      2.17550E-04
  765.00      2.16530E-04
  767.00      2.15510E-04
  769.00      2.14500E-04
  771.00      2.13490E-04
  773.00      2.12500E-04
  775.00      2.11510E-04
  777.00      2.10520E-04
  779.00      2.09550E-04
  781.00      2.08500E-04
  783.00      2.07620E-04
  785.00      2.06790E-04
  787.00      2.05840E-04
  789.00      2.04850E-04
  791.00      2.03960E-04
  793.00      2.03020E-04
  795.00      2.02100E-04
  797.00      2.01080E-04
  799.00      2.00260E-04
  801.00      1.99320E-04
  803.00      1.98370E-04
  805.00      1.97470E-04
  807.00      1.96600E-04
  809.00      1.95500E-04
  811.00      1.94720E-04
  813.00      1.93970E-04
  815.00      1.92890E-04
  817.00      1.92280E-04
  819.00      1.91230E-04
  821.00      1.89650E-04
  823.00      1.88910E-04
  825.00      1.88340E-04
  827.00      1.87000E-04
  829.00      1.86640E-04
  831.00      1.85860E-04
  833.00      1.85010E-04
  835.00      1.83640E-04
  837.00      1.83220E-04
  839.00      1.82580E-04
  841.00      1.81800E-04
  843.00      1.80880E-04
  845.00      1.79370E-04
  847.00      1.79230E-04
  849.00      1.78360E-04
  851.00      1.77420E-04
  853.00      1.76950E-04
  855.00      1.74820E-04
  857.00      1.76700E-04
  859.00      1.72400E-04
  861.00      1.72400E-04
  863.00      1.75390E-04
  865.00      1.72420E-04
  867.00      1.65900E-04
  869.00      1.73320E-04
  871.00      1.73880E-04
  873.00      1.70730E-04
  875.00      1.60150E-04
  877.00      1.67940E-04
  879.00      1.71510E-04
  881.00      1.71070E-04
  883.00      1.70010E-04
  885.00      1.63260E-04
  887.00      1.55020E-04
  889.00      1.66860E-04
  891.00      1.67640E-04
  893.00      1.67180E-04
  895.00      1.66870E-04
  897.00      1.65800E-04
  899.00      1.63040E-04
  901.00      1.50680E-04
  903.00      1.56350E-04
  905.00      1.62460E-04
  907.00      1.61550E-04
  909.00      1.61820E-04
  911.00      1.61510E-04
  913.00      1.60910E-04
  915.00      1.60260E-04
  917.00      1.59290E-04
  919.00      1.58380E-04
  921.00      1.54010E-04
  923.00      1.41240E-04
  925.00      1.53110E-04
  927.00      1.55740E-04
  929.00      1.55740E-04
  931.00      1.54730E-04
  933.00      1.54570E-04
  935.00      1.53520E-04
  937.00      1.53340E-04
  939.00      1.52740E-04
  941.00      1.52130E-04
  943.00      1.51530E-04
  945.00      1.50940E-04
  947.00      1.49740E-04
  949.00      1.49660E-04
  951.00      1.47590E-04
  953.00      1.43600E-04
  955.00      1.32400E-04
  957.00      1.44730E-04
  959.00      1.46310E-04
  961.00      1.45950E-04
  963.00      1.45230E-04
  965.00      1.45160E-04
  967.00      1.44610E-04
  969.00      1.43970E-04
  971.00      1.43230E-04
  973.00      1.42950E-04
  975.00      1.42400E-04
  977.00      1.41860E-04
  979.00      1.41320E-04
  981.00      1.40780E-04
  983.00      1.40250E-04
  985.00      1.39720E-04
  987.00      1.39190E-04
  989.00      1.38660E-04
  991.00      1.38140E-04
  993.00      1.37620E-04
  995.00      1.37100E-04
  997.00      1.36590E-04
  999.00      1.36050E-04
  1002.5      1.31380E-04
  1007.5      1.28850E-04
  1012.5      1.32100E-04
  1017.5      1.31490E-04
  1022.5      1.30250E-04
  1027.5      1.29110E-04
  1032.5      1.27580E-04
  1037.5      1.26780E-04
  1042.5      1.25640E-04
  1047.5      1.24520E-04
  1052.5      1.23420E-04
  1057.5      1.22330E-04
  1062.5      1.21250E-04
  1067.5      1.20040E-04
  1072.5      1.19130E-04
  1077.5      1.18100E-04
  1082.5      1.16200E-04
  1087.5      1.15930E-04
  1092.5      1.08660E-04
  1097.5      1.12590E-04
  1102.5      1.12680E-04
  1107.5      1.12120E-04
  1112.5      1.11210E-04
  1117.5      1.10270E-04
  1122.5      1.09310E-04
  1127.5      1.08440E-04
  1132.5      1.07530E-04
  1137.5      1.06640E-04
  1142.5      1.05770E-04
  1147.5      1.04900E-04
  1152.5      1.04040E-04
  1157.5      1.03190E-04
  1162.5      1.02280E-04
  1167.5      1.01520E-04
  1172.5      1.00720E-04
  1177.5      9.99080E-05
  1182.5      9.91110E-05
  1187.5      9.83230E-05
  1192.5      9.75450E-05
  1197.5      9.61370E-05
  1202.5      9.60160E-05
  1207.5      9.52640E-05
  1212.5      9.45220E-05
  1217.5      9.37880E-05
  1222.5      9.30620E-05
  1227.5      9.23450E-05
  1232.5      9.16360E-05
  1237.5      9.09360E-05
  1242.5      9.02430E-05
  1247.5      8.95580E-05
  1252.5      8.87550E-05
  1257.5      8.82110E-05
  1262.5      8.75490E-05
  1267.5      8.68940E-05
  1272.5      8.62450E-05
  1277.5      8.46090E-05
  1282.5      8.03400E-05
  1287.5      8.40670E-05
  1292.5      8.37270E-05
  1297.5      8.27280E-05
  1302.5      8.25100E-05
  1307.5      8.19120E-05
  1312.5      8.13190E-05
  1317.5      8.07330E-05
  1322.5      8.01530E-05
  1327.5      7.95790E-05
  1332.5      7.90120E-05
  1337.5      7.84500E-05
  1342.5      7.78480E-05
  1347.5      7.73450E-05
  1352.5      7.68010E-05
  1357.5      7.62620E-05
  1362.5      7.57300E-05
  1367.5      7.52020E-05
  1372.5      7.46810E-05
  1377.5      7.41650E-05
  1382.5      7.36540E-05
  1387.5      7.31480E-05
  1392.5      7.26470E-05
  1397.5      7.21520E-05
