 Castelli and Kurucz 2004-2012 Atmosphere
 T     35000.     G    5.00000 [-4.0a] N(He)/Ntot=0.089 VTURB=2.0  L/H=1.25 NOV
 Wavelength  Eddington Hnu
   (nm)    (ergs/s/cm2/Hz/sr)
  9.0900      3.16860E-27
  9.3500      1.77320E-26
  9.6100      9.04060E-26
  9.7700      2.35920E-25
  9.9600      7.07330E-25
  10.200      2.66920E-24
  10.380      6.94160E-24
  10.560      1.74580E-23
  10.770      4.92230E-23
  11.040      1.76040E-22
  11.400      8.74480E-22
  11.780      4.26420E-21
  12.130      1.67760E-20
  12.480      6.10080E-20
  12.710      1.36990E-19
  12.840      2.13560E-19
  13.050      4.29230E-19
  13.240      7.91650E-19
  13.390      1.26760E-18
  13.660      2.87980E-18
  13.980      7.30080E-18
  14.330      1.92290E-17
  14.720      5.35060E-17
  15.100      1.37620E-16
  15.520      3.69890E-16
  15.880      8.26820E-16
  16.200      1.63840E-15
  16.600      3.70660E-15
  17.030      8.52860E-15
  17.340      1.51440E-14
  17.680      2.77490E-14
  18.020      4.96470E-14
  18.170      6.37130E-14
  18.610      1.29270E-13
  19.100      2.73090E-13
  19.390      4.17320E-13
  19.840      7.85310E-13
  20.180      1.24160E-12
  20.500      1.88300E-12
  21.050      3.73460E-12
  21.620      7.30610E-12
  21.980      1.09530E-11
  22.300      1.55180E-11
  22.680      2.31560E-11
  23.000      9.35530E-11
  23.400      5.95520E-10
  24.000      2.73010E-09
  24.650      1.10510E-08
  25.240      2.28360E-08
  25.680      1.44960E-08
  26.000      4.98900E-08
  26.400      7.47820E-08
  26.850      1.10460E-07
  27.350      1.46230E-07
  27.850      1.76400E-07
  28.400      2.12300E-07
  29.000      2.35220E-07
  29.600      2.01910E-07
  30.100      9.35780E-08
  30.800      1.58570E-07
  31.800      3.63930E-07
  32.800      4.61520E-07
  33.800      5.55130E-07
  34.800      6.95030E-07
  35.700      8.44550E-07
  36.600      1.03760E-06
  37.500      1.25800E-06
  38.500      1.58210E-06
  39.500      1.96250E-06
  40.500      2.42160E-06
  41.400      2.91250E-06
  42.200      3.40930E-06
  43.000      3.97290E-06
  44.100      4.87480E-06
  45.100      5.82150E-06
  46.000      6.77490E-06
  47.000      8.01020E-06
  48.000      9.38010E-06
  49.000      1.09000E-05
  50.000      1.26370E-05
  50.600      4.70420E-05
  51.200      1.37510E-04
  52.000      1.41010E-04
  53.000      1.54840E-04
  54.000      1.50980E-04
  55.000      1.62960E-04
  56.000      1.68480E-04
  57.000      1.73430E-04
  58.000      1.71740E-04
  59.000      1.82950E-04
  60.000      1.87320E-04
  61.000      1.93220E-04
  62.000      1.99690E-04
  63.000      2.05560E-04
  64.000      2.11470E-04
  65.000      2.17750E-04
  65.800      2.21680E-04
  66.500      2.26940E-04
  67.500      2.34250E-04
  68.500      2.38860E-04
  69.500      2.48250E-04
  70.500      2.51970E-04
  71.600      2.63140E-04
  72.600      2.70510E-04
  73.500      2.77460E-04
  74.500      2.84830E-04
  75.500      2.92280E-04
  76.500      2.99720E-04
  77.500      3.08270E-04
  78.500      3.16260E-04
  79.500      3.24180E-04
  80.500      3.32100E-04
  81.500      3.40240E-04
  82.500      3.48550E-04
  83.500      3.50930E-04
  84.500      3.64890E-04
  85.500      3.73070E-04
  86.500      3.81290E-04
  87.500      3.89470E-04
  88.500      3.97670E-04
  89.500      4.05850E-04
  90.500      4.13730E-04
  91.500      4.17570E-04
  92.500      9.78280E-04
  93.500      1.51600E-03
  94.500      2.43770E-03
  95.500      2.81600E-03
  96.500      3.54690E-03
  97.500      2.41920E-03
  98.500      3.75130E-03
  99.500      3.47960E-03
  100.50      3.77410E-03
  101.50      3.67570E-03
  102.50      2.27330E-03
  103.50      3.58050E-03
  104.50      3.67740E-03
  105.50      3.66690E-03
  106.50      3.62840E-03
  107.50      3.60270E-03
  108.50      3.34500E-03
  109.50      3.56310E-03
  110.50      3.53940E-03
  111.50      3.51400E-03
  112.50      3.45590E-03
  113.50      3.46580E-03
  114.50      3.44080E-03
  115.50      3.41360E-03
  116.50      3.38980E-03
  117.50      3.23340E-03
  118.50      3.33970E-03
  119.50      3.30370E-03
  120.50      3.20910E-03
  121.50      2.08240E-03
  122.50      3.13400E-03
  123.50      3.20360E-03
  124.50      3.18870E-03
  125.50      3.17160E-03
  126.50      3.14810E-03
  127.50      3.12490E-03
  128.50      3.10160E-03
  129.50      3.07570E-03
  130.50      3.05570E-03
  131.50      3.03460E-03
  132.50      3.01260E-03
  133.50      2.99030E-03
  134.50      2.96880E-03
  135.50      2.94660E-03
  136.50      2.92400E-03
  137.50      2.90170E-03
  138.50      2.88010E-03
  139.50      2.83190E-03
  140.50      2.81840E-03
  141.50      2.81650E-03
  142.50      2.79600E-03
  143.50      2.77600E-03
  144.20      2.76200E-03
  144.70      2.75190E-03
  145.50      2.73590E-03
  146.50      2.71620E-03
  147.50      2.69660E-03
  148.50      2.67670E-03
  149.50      2.65700E-03
  150.50      2.63760E-03
  151.20      2.62420E-03
  151.70      2.61470E-03
  152.50      2.59940E-03
  153.50      2.58040E-03
  154.50      2.53630E-03
  155.50      2.52160E-03
  156.50      2.52580E-03
  157.50      2.50770E-03
  158.50      2.48960E-03
  159.50      2.47170E-03
  160.50      2.45370E-03
  161.50      2.43630E-03
  162.50      2.41790E-03
  163.50      2.35410E-03
  164.50      2.24530E-03
  165.50      2.36740E-03
  166.50      2.35090E-03
  167.20      2.33920E-03
  167.70      2.33130E-03
  168.50      2.31830E-03
  169.50      2.30230E-03
  170.50      2.28650E-03
  171.50      2.26980E-03
  172.50      2.25500E-03
  173.50      2.24050E-03
  174.50      2.22510E-03
  175.50      2.20980E-03
  176.50      2.19460E-03
  177.50      2.17910E-03
  178.50      2.16380E-03
  179.50      2.14870E-03
  180.50      2.13380E-03
  181.50      2.11910E-03
  182.50      2.10460E-03
  183.50      2.09040E-03
  184.50      2.07640E-03
  185.50      2.06260E-03
  186.50      2.04900E-03
  187.50      2.03560E-03
  188.50      2.02220E-03
  189.50      2.00880E-03
  190.50      1.99560E-03
  191.50      1.98230E-03
  192.50      1.96890E-03
  193.50      1.95600E-03
  194.50      1.94310E-03
  195.50      1.93040E-03
  196.70      1.91540E-03
  197.60      1.90430E-03
  198.40      1.89450E-03
  199.50      1.88120E-03
  200.50      1.86930E-03
  201.50      1.85760E-03
  202.50      1.84580E-03
  203.50      1.83400E-03
  204.50      1.82230E-03
  205.50      1.55870E-03
  206.50      1.52390E-03
  207.40      1.52440E-03
  207.80      1.53730E-03
  208.50      1.57290E-03
  209.50      1.66500E-03
  210.50      1.74070E-03
  211.50      1.74520E-03
  212.50      1.73570E-03
  213.50      1.72270E-03
  214.50      1.71290E-03
  215.50      1.71030E-03
  216.50      1.68390E-03
  217.50      1.69670E-03
  218.50      1.65960E-03
  219.50      1.67510E-03
  220.50      1.66700E-03
  221.50      1.62470E-03
  222.50      1.64640E-03
  223.50      1.63700E-03
  224.50      1.62570E-03
  225.50      1.58400E-03
  226.50      1.60730E-03
  227.50      1.59750E-03
  228.50      1.58770E-03
  229.50      1.57310E-03
  230.50      1.53640E-03
  231.50      1.55790E-03
  232.50      1.54960E-03
  233.50      1.54010E-03
  234.50      1.53080E-03
  235.50      1.52150E-03
  236.50      1.51230E-03
  237.50      1.50320E-03
  238.50      1.46490E-03
  239.50      1.48510E-03
  240.50      1.47660E-03
  241.50      1.46800E-03
  242.50      1.45940E-03
  243.50      1.45080E-03
  244.50      1.44240E-03
  245.50      1.43410E-03
  246.50      1.42580E-03
  247.50      1.41770E-03
  248.50      1.40960E-03
  249.50      1.38860E-03
  250.50      1.39000E-03
  251.30      1.33120E-03
  251.80      1.38220E-03
  252.50      1.37730E-03
  253.50      1.36940E-03
  254.50      1.36160E-03
  255.50      1.35390E-03
  256.50      1.34620E-03
  257.50      1.33860E-03
  258.50      1.33110E-03
  259.50      1.32370E-03
  260.50      1.31980E-03
  261.50      1.31250E-03
  262.50      1.30520E-03
  263.50      1.29790E-03
  264.50      1.29050E-03
  265.50      1.28280E-03
  266.50      1.27460E-03
  267.50      1.26640E-03
  268.50      1.26290E-03
  269.50      1.25140E-03
  270.50      1.24920E-03
  271.50      1.24240E-03
  272.50      1.22960E-03
  273.50      1.20870E-03
  274.50      1.22230E-03
  275.50      1.21570E-03
  276.50      1.20230E-03
  277.50      1.20260E-03
  278.50      1.19620E-03
  279.50      1.18980E-03
  280.50      1.18350E-03
  281.50      1.17720E-03
  282.50      1.16330E-03
  283.50      1.16070E-03
  284.50      1.15870E-03
  285.50      1.15270E-03
  286.50      1.14670E-03
  287.50      1.14080E-03
  288.50      1.13480E-03
  289.50      1.12900E-03
  291.00      1.12020E-03
  293.00      1.10880E-03
  295.00      1.09140E-03
  297.00      1.08640E-03
  299.00      1.07540E-03
  301.00      1.06450E-03
  303.00      1.05380E-03
  305.00      1.04340E-03
  307.00      1.03300E-03
  309.00      1.02280E-03
  311.00      1.01280E-03
  313.00      1.00350E-03
  315.00      9.93740E-04
  317.00      9.84160E-04
  319.00      9.67750E-04
  321.00      9.58050E-04
  323.00      9.55800E-04
  325.00      9.46560E-04
  327.00      9.38180E-04
  329.00      9.28540E-04
  331.00      9.20650E-04
  333.00      9.12080E-04
  335.00      9.02580E-04
  337.00      8.95340E-04
  339.00      8.87160E-04
  341.00      8.79100E-04
  343.00      8.69020E-04
  345.00      8.59070E-04
  347.00      8.53050E-04
  349.00      8.45450E-04
  351.00      8.38330E-04
  353.00      8.31880E-04
  355.00      8.24040E-04
  357.00      8.20560E-04
  359.00      8.08420E-04
  361.00      8.04080E-04
  363.00      7.94300E-04
  364.00      7.93150E-04
  365.00      7.73470E-04
  367.00      7.68850E-04
  369.00      7.63070E-04
  371.00      7.50910E-04
  373.00      7.42850E-04
  375.00      7.38410E-04
  377.00      7.25420E-04
  379.00      7.40930E-04
  381.00      7.64280E-04
  383.00      6.98160E-04
  385.00      7.80940E-04
  387.00      7.95090E-04
  389.00      6.73590E-04
  391.00      7.89630E-04
  393.00      7.89260E-04
  395.00      7.78890E-04
  397.00      6.48900E-04
  399.00      7.61310E-04
  401.00      7.65050E-04
  403.00      7.32760E-04
  405.00      7.58800E-04
  407.00      7.50070E-04
  409.00      7.01980E-04
  411.00      6.37910E-04
  413.00      7.24820E-04
  415.00      7.23660E-04
  417.00      7.22930E-04
  419.00      7.16470E-04
  421.00      7.08820E-04
  423.00      7.06290E-04
  425.00      7.00580E-04
  427.00      6.94950E-04
  429.00      6.88620E-04
  431.00      6.79300E-04
  433.00      6.28110E-04
  435.00      5.90170E-04
  437.00      6.61620E-04
  439.00      6.47580E-04
  441.00      6.57130E-04
  443.00      6.50620E-04
  445.00      6.47000E-04
  447.00      6.18650E-04
  449.00      6.36570E-04
  451.00      6.32130E-04
  453.00      6.26960E-04
  455.00      6.18310E-04
  457.00      6.17790E-04
  459.00      6.13120E-04
  461.00      6.08510E-04
  463.00      6.03940E-04
  465.00      5.99390E-04
  467.00      5.94890E-04
  469.00      5.80580E-04
  471.00      5.80870E-04
  473.00      5.81760E-04
  475.00      5.77480E-04
  477.00      5.73240E-04
  479.00      5.69050E-04
  481.00      5.64080E-04
  483.00      5.56920E-04
  485.00      5.22410E-04
  487.00      4.82970E-04
  489.00      5.42920E-04
  491.00      5.42800E-04
  493.00      5.29700E-04
  495.00      5.37100E-04
  497.00      5.33310E-04
  499.00      5.29560E-04
  501.00      5.21030E-04
  503.00      5.22140E-04
  505.00      5.16560E-04
  507.00      5.14890E-04
  509.00      5.11320E-04
  511.00      5.07790E-04
  513.00      5.04300E-04
  515.00      5.00840E-04
  517.00      4.97420E-04
  519.00      4.94030E-04
  521.00      4.90680E-04
  523.00      4.87370E-04
  525.00      4.84080E-04
  527.00      4.80820E-04
  529.00      4.77600E-04
  531.00      4.74420E-04
  533.00      4.71260E-04
  535.00      4.68130E-04
  537.00      4.65030E-04
  539.00      4.61960E-04
  541.00      4.55820E-04
  543.00      4.55910E-04
  545.00      4.52940E-04
  547.00      4.49990E-04
  549.00      4.47070E-04
  551.00      4.44180E-04
  553.00      4.41310E-04
  555.00      4.38480E-04
  557.00      4.35680E-04
  559.00      4.32900E-04
  561.00      4.30150E-04
  563.00      4.27420E-04
  565.00      4.24720E-04
  567.00      4.22050E-04
  569.00      4.18640E-04
  571.00      4.12600E-04
  573.00      4.10100E-04
  575.00      4.07610E-04
  577.00      4.05140E-04
  579.00      4.02700E-04
  581.00      4.00280E-04
  583.00      3.97900E-04
  585.00      3.95520E-04
  587.00      3.83910E-04
  589.00      3.90380E-04
  591.00      3.89090E-04
  593.00      3.87090E-04
  595.00      3.85090E-04
  597.00      3.83150E-04
  599.00      3.81240E-04
  601.00      3.79320E-04
  603.00      3.77910E-04
  605.00      3.75700E-04
  607.00      3.73470E-04
  609.00      3.71270E-04
  611.00      3.69080E-04
  613.00      3.66910E-04
  615.00      3.64760E-04
  617.00      3.62630E-04
  619.00      3.60510E-04
  621.00      3.58420E-04
  623.00      3.56340E-04
  625.00      3.54290E-04
  627.00      3.52250E-04
  629.00      3.50230E-04
  631.00      3.48220E-04
  633.00      3.46240E-04
  635.00      3.44270E-04
  637.00      3.42310E-04
  639.00      3.40370E-04
  641.00      3.38450E-04
  643.00      3.36540E-04
  645.00      3.34650E-04
  647.00      3.32780E-04
  649.00      3.30920E-04
  651.00      3.28790E-04
  653.00      3.25390E-04
  655.00      3.14160E-04
  657.00      2.88860E-04
  659.00      3.18740E-04
  661.00      3.19490E-04
  663.00      3.18340E-04
  665.00      3.16710E-04
  667.00      3.12230E-04
  669.00      3.10270E-04
  671.00      3.11580E-04
  673.00      3.09890E-04
  675.00      3.08230E-04
  677.00      3.06570E-04
  679.00      3.04920E-04
  681.00      3.03290E-04
  683.00      3.01680E-04
  685.00      3.00070E-04
  687.00      2.98480E-04
  689.00      2.96710E-04
  691.00      2.95330E-04
  693.00      2.93780E-04
  695.00      2.92240E-04
  697.00      2.90710E-04
  699.00      2.89190E-04
  701.00      2.87690E-04
  703.00      2.86200E-04
  705.00      2.84720E-04
  707.00      2.79900E-04
  709.00      2.81790E-04
  711.00      2.80340E-04
  713.00      2.78900E-04
  715.00      2.77480E-04
  717.00      2.75850E-04
  719.00      2.74550E-04
  721.00      2.73260E-04
  723.00      2.71880E-04
  725.00      2.70510E-04
  727.00      2.69150E-04
  729.00      2.66180E-04
  731.00      2.66440E-04
  733.00      2.65120E-04
  735.00      2.63800E-04
  737.00      2.62490E-04
  739.00      2.61190E-04
  741.00      2.59900E-04
  743.00      2.58610E-04
  745.00      2.57360E-04
  747.00      2.56100E-04
  749.00      2.54840E-04
  751.00      2.53550E-04
  753.00      2.52360E-04
  755.00      2.51140E-04
  757.00      2.49920E-04
  759.00      2.48400E-04
  761.00      2.47500E-04
  763.00      2.46310E-04
  765.00      2.45130E-04
  767.00      2.43960E-04
  769.00      2.42790E-04
  771.00      2.41630E-04
  773.00      2.40480E-04
  775.00      2.39340E-04
  777.00      2.38200E-04
  779.00      2.37080E-04
  781.00      2.35890E-04
  783.00      2.34850E-04
  785.00      2.33890E-04
  787.00      2.32790E-04
  789.00      2.31700E-04
  791.00      2.30620E-04
  793.00      2.29550E-04
  795.00      2.28490E-04
  797.00      2.27380E-04
  799.00      2.26380E-04
  801.00      2.25330E-04
  803.00      2.24300E-04
  805.00      2.23270E-04
  807.00      2.22240E-04
  809.00      2.21070E-04
  811.00      2.20090E-04
  813.00      2.19180E-04
  815.00      2.18020E-04
  817.00      2.17200E-04
  819.00      2.15950E-04
  821.00      2.14100E-04
  823.00      2.13050E-04
  825.00      2.12390E-04
  827.00      2.11100E-04
  829.00      2.10610E-04
  831.00      2.09740E-04
  833.00      2.08730E-04
  835.00      2.07320E-04
  837.00      2.06780E-04
  839.00      2.06040E-04
  841.00      2.05150E-04
  843.00      2.04180E-04
  845.00      2.02550E-04
  847.00      2.02460E-04
  849.00      2.01370E-04
  851.00      2.00710E-04
  853.00      1.99490E-04
  855.00      1.98710E-04
  857.00      1.98280E-04
  859.00      1.95460E-04
  861.00      1.95860E-04
  863.00      1.96220E-04
  865.00      1.93750E-04
  867.00      1.91300E-04
  869.00      1.93710E-04
  871.00      1.93910E-04
  873.00      1.90670E-04
  875.00      1.84930E-04
  877.00      1.87870E-04
  879.00      1.91070E-04
  881.00      1.91030E-04
  883.00      1.89340E-04
  885.00      1.82040E-04
  887.00      1.76810E-04
  889.00      1.85350E-04
  891.00      1.87340E-04
  893.00      1.87180E-04
  895.00      1.86710E-04
  897.00      1.85310E-04
  899.00      1.80970E-04
  901.00      1.69490E-04
  903.00      1.73360E-04
  905.00      1.80650E-04
  907.00      1.80530E-04
  909.00      1.81360E-04
  911.00      1.81130E-04
  913.00      1.80480E-04
  915.00      1.79630E-04
  917.00      1.78280E-04
  919.00      1.76620E-04
  921.00      1.70090E-04
  923.00      1.58040E-04
  925.00      1.68500E-04
  927.00      1.73490E-04
  929.00      1.74160E-04
  931.00      1.73420E-04
  933.00      1.73560E-04
  935.00      1.72080E-04
  937.00      1.72230E-04
  939.00      1.71540E-04
  941.00      1.70850E-04
  943.00      1.70170E-04
  945.00      1.69420E-04
  947.00      1.67680E-04
  949.00      1.67290E-04
  951.00      1.64320E-04
  953.00      1.57860E-04
  955.00      1.47000E-04
  957.00      1.59180E-04
  959.00      1.63010E-04
  961.00      1.63250E-04
  963.00      1.62660E-04
  965.00      1.62910E-04
  967.00      1.62280E-04
  969.00      1.61550E-04
  971.00      1.60710E-04
  973.00      1.60390E-04
  975.00      1.59770E-04
  977.00      1.59150E-04
  979.00      1.58540E-04
  981.00      1.57930E-04
  983.00      1.57320E-04
  985.00      1.56720E-04
  987.00      1.56120E-04
  989.00      1.55520E-04
  991.00      1.54930E-04
  993.00      1.54330E-04
  995.00      1.53750E-04
  997.00      1.52870E-04
  999.00      1.51900E-04
  1002.5      1.45170E-04
  1007.5      1.42420E-04
  1012.5      1.47430E-04
  1017.5      1.47370E-04
  1022.5      1.45970E-04
  1027.5      1.44670E-04
  1032.5      1.42860E-04
  1037.5      1.42030E-04
  1042.5      1.40740E-04
  1047.5      1.39470E-04
  1052.5      1.38220E-04
  1057.5      1.36980E-04
  1062.5      1.35760E-04
  1067.5      1.34380E-04
  1072.5      1.33360E-04
  1077.5      1.32190E-04
  1082.5      1.30080E-04
  1087.5      1.29190E-04
  1092.5      1.19810E-04
  1097.5      1.24290E-04
  1102.5      1.25770E-04
  1107.5      1.25330E-04
  1112.5      1.24380E-04
  1117.5      1.23330E-04
  1122.5      1.22240E-04
  1127.5      1.21250E-04
  1132.5      1.20240E-04
  1137.5      1.19230E-04
  1142.5      1.18240E-04
  1147.5      1.17260E-04
  1152.5      1.16290E-04
  1157.5      1.15330E-04
  1162.5      1.14230E-04
  1167.5      1.13450E-04
  1172.5      1.12530E-04
  1177.5      1.11620E-04
  1182.5      1.10720E-04
  1187.5      1.09830E-04
  1192.5      1.08950E-04
  1197.5      1.07090E-04
  1202.5      1.07230E-04
  1207.5      1.06380E-04
  1212.5      1.05550E-04
  1217.5      1.04720E-04
  1222.5      1.03900E-04
  1227.5      1.03090E-04
  1232.5      1.02290E-04
  1237.5      1.01500E-04
  1242.5      1.00720E-04
  1247.5      9.99530E-05
  1252.5      9.90370E-05
  1257.5      9.84360E-05
  1262.5      9.76910E-05
  1267.5      9.69530E-05
  1272.5      9.60720E-05
  1277.5      9.37500E-05
  1282.5      8.82370E-05
  1287.5      9.32030E-05
  1292.5      9.32840E-05
  1297.5      9.21670E-05
  1302.5      9.20210E-05
  1307.5      9.13470E-05
  1312.5      9.06810E-05
  1317.5      9.00220E-05
  1322.5      8.93700E-05
  1327.5      8.87250E-05
  1332.5      8.80870E-05
  1337.5      8.74550E-05
  1342.5      8.67830E-05
  1347.5      8.62130E-05
  1352.5      8.56020E-05
  1357.5      8.49970E-05
  1362.5      8.43990E-05
  1367.5      8.38070E-05
  1372.5      8.32210E-05
  1377.5      8.26410E-05
  1382.5      8.20670E-05
  1387.5      8.15000E-05
  1392.5      8.09380E-05
  1397.5      8.03820E-05
