 Castelli and Kurucz 2004-2012 Atmosphere
 T     35000.     G    4.50000 [-4.0a] N(He)/Ntot=0.089 VTURB=2.0  L/H=1.25 NOV
 Wavelength  Eddington Hnu
   (nm)    (ergs/s/cm2/Hz/sr)
  9.0900      1.32980E-26
  9.3500      7.17020E-26
  9.6100      3.52720E-25
  9.7700      9.01070E-25
  9.9600      2.63880E-24
  10.200      9.67930E-24
  10.380      2.46520E-23
  10.560      6.07940E-23
  10.770      1.67670E-22
  11.040      5.83470E-22
  11.400      2.80280E-21
  11.780      1.32200E-20
  12.130      5.05470E-20
  12.480      1.78970E-19
  12.710      3.95250E-19
  12.840      6.10620E-19
  13.050      1.21000E-18
  13.240      2.20400E-18
  13.390      3.49490E-18
  13.660      7.80780E-18
  13.980      1.94240E-17
  14.330      5.01720E-17
  14.720      1.36760E-16
  15.100      3.45100E-16
  15.520      9.09130E-16
  15.880      1.99940E-15
  16.200      3.90760E-15
  16.600      8.69630E-15
  17.030      1.96740E-14
  17.340      3.45270E-14
  17.680      6.24900E-14
  18.020      1.10490E-13
  18.170      1.41070E-13
  18.610      2.82090E-13
  19.100      5.86780E-13
  19.390      8.88780E-13
  19.840      1.65050E-12
  20.180      2.58460E-12
  20.500      3.88580E-12
  21.050      7.59630E-12
  21.620      1.46490E-11
  21.980      2.17710E-11
  22.300      3.06110E-11
  22.680      4.52770E-11
  23.000      1.73410E-10
  23.400      8.05140E-10
  24.000      3.13420E-09
  24.650      1.34110E-08
  25.240      3.11950E-08
  25.680      1.93930E-08
  26.000      9.44900E-08
  26.400      1.72260E-07
  26.850      2.98980E-07
  27.350      4.36610E-07
  27.850      5.50090E-07
  28.400      6.75820E-07
  29.000      7.33970E-07
  29.600      5.11750E-07
  30.100      1.32280E-07
  30.800      3.40620E-07
  31.800      1.07220E-06
  32.800      1.34750E-06
  33.800      1.49710E-06
  34.800      1.76690E-06
  35.700      1.98530E-06
  36.600      2.29240E-06
  37.500      2.62510E-06
  38.500      3.14760E-06
  39.500      3.74650E-06
  40.500      4.46920E-06
  41.400      5.23390E-06
  42.200      5.99310E-06
  43.000      6.84840E-06
  44.100      8.21450E-06
  45.100      9.62480E-06
  46.000      1.10200E-05
  47.000      1.28480E-05
  48.000      1.48330E-05
  49.000      1.69680E-05
  50.000      1.94830E-05
  50.600      7.58880E-05
  51.200      1.80280E-04
  52.000      1.85000E-04
  53.000      1.98560E-04
  54.000      1.96820E-04
  55.000      2.09450E-04
  56.000      2.17810E-04
  57.000      2.24580E-04
  58.000      2.23770E-04
  59.000      2.37320E-04
  60.000      2.42130E-04
  61.000      2.49520E-04
  62.000      2.58360E-04
  63.000      2.65580E-04
  64.000      2.73170E-04
  65.000      2.80380E-04
  65.800      2.84190E-04
  66.500      2.91040E-04
  67.500      3.00610E-04
  68.500      3.05110E-04
  69.500      3.16890E-04
  70.500      3.20500E-04
  71.600      3.34440E-04
  72.600      3.42950E-04
  73.500      3.50910E-04
  74.500      3.59140E-04
  75.500      3.67440E-04
  76.500      3.75360E-04
  77.500      3.85830E-04
  78.500      3.94720E-04
  79.500      4.03680E-04
  80.500      4.12430E-04
  81.500      4.21720E-04
  82.500      4.31230E-04
  83.500      4.32270E-04
  84.500      4.49330E-04
  85.500      4.58330E-04
  86.500      4.67480E-04
  87.500      4.76480E-04
  88.500      4.85460E-04
  89.500      4.94400E-04
  90.500      5.02550E-04
  91.500      5.11950E-04
  92.500      1.25090E-03
  93.500      1.79890E-03
  94.500      2.56490E-03
  95.500      2.84400E-03
  96.500      3.35190E-03
  97.500      2.53600E-03
  98.500      3.41180E-03
  99.500      3.22130E-03
  100.50      3.42310E-03
  101.50      3.38020E-03
  102.50      2.46580E-03
  103.50      3.33160E-03
  104.50      3.36260E-03
  105.50      3.34950E-03
  106.50      3.32050E-03
  107.50      3.30610E-03
  108.50      3.12850E-03
  109.50      3.28160E-03
  110.50      3.26280E-03
  111.50      3.24370E-03
  112.50      3.19450E-03
  113.50      3.20930E-03
  114.50      3.19100E-03
  115.50      3.17110E-03
  116.50      3.15430E-03
  117.50      3.01550E-03
  118.50      3.11790E-03
  119.50      3.09810E-03
  120.50      3.04990E-03
  121.50      2.27580E-03
  122.50      3.00360E-03
  123.50      3.02260E-03
  124.50      3.00360E-03
  125.50      2.99140E-03
  126.50      2.97320E-03
  127.50      2.95510E-03
  128.50      2.93720E-03
  129.50      2.91780E-03
  130.50      2.90090E-03
  131.50      2.88340E-03
  132.50      2.86540E-03
  133.50      2.84720E-03
  134.50      2.82990E-03
  135.50      2.81190E-03
  136.50      2.79410E-03
  137.50      2.77620E-03
  138.50      2.75910E-03
  139.50      2.71640E-03
  140.50      2.70570E-03
  141.50      2.70660E-03
  142.50      2.68900E-03
  143.50      2.67190E-03
  144.20      2.65980E-03
  144.70      2.65130E-03
  145.50      2.63770E-03
  146.50      2.62100E-03
  147.50      2.60430E-03
  148.50      2.58800E-03
  149.50      2.57170E-03
  150.50      2.55550E-03
  151.20      2.54430E-03
  151.70      2.53630E-03
  152.50      2.52350E-03
  153.50      2.50720E-03
  154.50      2.46320E-03
  155.50      2.44980E-03
  156.50      2.45910E-03
  157.50      2.44370E-03
  158.50      2.42810E-03
  159.50      2.41240E-03
  160.50      2.39640E-03
  161.50      2.38110E-03
  162.50      2.36510E-03
  163.50      2.30610E-03
  164.50      2.20010E-03
  165.50      2.32110E-03
  166.50      2.30660E-03
  167.20      2.29630E-03
  167.70      2.28940E-03
  168.50      2.27770E-03
  169.50      2.26330E-03
  170.50      2.24900E-03
  171.50      2.23290E-03
  172.50      2.22010E-03
  173.50      2.20680E-03
  174.50      2.19280E-03
  175.50      2.17880E-03
  176.50      2.16530E-03
  177.50      2.15170E-03
  178.50      2.13830E-03
  179.50      2.12490E-03
  180.50      2.11180E-03
  181.50      2.09880E-03
  182.50      2.08580E-03
  183.50      2.07290E-03
  184.50      2.06010E-03
  185.50      2.04730E-03
  186.50      2.03470E-03
  187.50      2.02220E-03
  188.50      2.00970E-03
  189.50      1.99740E-03
  190.50      1.98520E-03
  191.50      1.97290E-03
  192.50      1.96070E-03
  193.50      1.94870E-03
  194.50      1.93680E-03
  195.50      1.92500E-03
  196.70      1.91090E-03
  197.60      1.90050E-03
  198.40      1.89120E-03
  199.50      1.87870E-03
  200.50      1.86740E-03
  201.50      1.85620E-03
  202.50      1.84520E-03
  203.50      1.83420E-03
  204.50      1.82330E-03
  205.50      1.51520E-03
  206.50      1.47850E-03
  207.40      1.49600E-03
  207.80      1.52170E-03
  208.50      1.58900E-03
  209.50      1.72090E-03
  210.50      1.76040E-03
  211.50      1.75420E-03
  212.50      1.74410E-03
  213.50      1.73140E-03
  214.50      1.72320E-03
  215.50      1.72810E-03
  216.50      1.69440E-03
  217.50      1.71650E-03
  218.50      1.67280E-03
  219.50      1.69540E-03
  220.50      1.68720E-03
  221.50      1.64100E-03
  222.50      1.66710E-03
  223.50      1.65740E-03
  224.50      1.64690E-03
  225.50      1.60320E-03
  226.50      1.62830E-03
  227.50      1.61870E-03
  228.50      1.60930E-03
  229.50      1.59440E-03
  230.50      1.55820E-03
  231.50      1.58080E-03
  232.50      1.57230E-03
  233.50      1.56330E-03
  234.50      1.55440E-03
  235.50      1.54550E-03
  236.50      1.53670E-03
  237.50      1.52800E-03
  238.50      1.48940E-03
  239.50      1.51050E-03
  240.50      1.50200E-03
  241.50      1.49340E-03
  242.50      1.48500E-03
  243.50      1.47660E-03
  244.50      1.46820E-03
  245.50      1.46000E-03
  246.50      1.45180E-03
  247.50      1.44370E-03
  248.50      1.43570E-03
  249.50      1.41450E-03
  250.50      1.41720E-03
  251.30      1.35340E-03
  251.80      1.40930E-03
  252.50      1.40420E-03
  253.50      1.39660E-03
  254.50      1.38900E-03
  255.50      1.38140E-03
  256.50      1.37390E-03
  257.50      1.36650E-03
  258.50      1.35900E-03
  259.50      1.35170E-03
  260.50      1.34710E-03
  261.50      1.33980E-03
  262.50      1.33260E-03
  263.50      1.32520E-03
  264.50      1.31790E-03
  265.50      1.31020E-03
  266.50      1.30240E-03
  267.50      1.29470E-03
  268.50      1.29040E-03
  269.50      1.28000E-03
  270.50      1.27680E-03
  271.50      1.27000E-03
  272.50      1.25880E-03
  273.50      1.23450E-03
  274.50      1.25010E-03
  275.50      1.24360E-03
  276.50      1.23180E-03
  277.50      1.23060E-03
  278.50      1.22420E-03
  279.50      1.21790E-03
  280.50      1.21160E-03
  281.50      1.20540E-03
  282.50      1.19320E-03
  283.50      1.19050E-03
  284.50      1.18700E-03
  285.50      1.18090E-03
  286.50      1.17490E-03
  287.50      1.16900E-03
  288.50      1.16310E-03
  289.50      1.15720E-03
  291.00      1.14840E-03
  293.00      1.13690E-03
  295.00      1.12100E-03
  297.00      1.11430E-03
  299.00      1.10330E-03
  301.00      1.09240E-03
  303.00      1.08170E-03
  305.00      1.07120E-03
  307.00      1.06080E-03
  309.00      1.05060E-03
  311.00      1.04050E-03
  313.00      1.03100E-03
  315.00      1.02110E-03
  317.00      1.01140E-03
  319.00      9.96300E-04
  321.00      9.83520E-04
  323.00      9.82740E-04
  325.00      9.73440E-04
  327.00      9.64890E-04
  329.00      9.55320E-04
  331.00      9.47180E-04
  333.00      9.38510E-04
  335.00      9.29070E-04
  337.00      9.21530E-04
  339.00      9.13190E-04
  341.00      9.04970E-04
  343.00      8.95160E-04
  345.00      8.85420E-04
  347.00      8.79040E-04
  349.00      8.71220E-04
  351.00      8.64560E-04
  353.00      8.57260E-04
  355.00      8.49410E-04
  357.00      8.45010E-04
  359.00      8.33920E-04
  361.00      8.28520E-04
  363.00      8.19550E-04
  364.00      8.14680E-04
  365.00      7.84660E-04
  367.00      7.79750E-04
  369.00      7.73870E-04
  371.00      7.64500E-04
  373.00      7.56240E-04
  375.00      7.61060E-04
  377.00      7.56830E-04
  379.00      7.76280E-04
  381.00      7.97380E-04
  383.00      7.36970E-04
  385.00      8.07930E-04
  387.00      8.14660E-04
  389.00      7.16020E-04
  391.00      8.07530E-04
  393.00      8.00260E-04
  395.00      7.95750E-04
  397.00      6.90560E-04
  399.00      7.80290E-04
  401.00      7.77760E-04
  403.00      7.51840E-04
  405.00      7.70190E-04
  407.00      7.62270E-04
  409.00      7.29570E-04
  411.00      6.71910E-04
  413.00      7.39120E-04
  415.00      7.35390E-04
  417.00      7.32760E-04
  419.00      7.26020E-04
  421.00      7.16850E-04
  423.00      7.15980E-04
  425.00      7.10300E-04
  427.00      7.04680E-04
  429.00      6.99120E-04
  431.00      6.91790E-04
  433.00      6.55290E-04
  435.00      6.19870E-04
  437.00      6.74840E-04
  439.00      6.62660E-04
  441.00      6.67160E-04
  443.00      6.60950E-04
  445.00      6.57000E-04
  447.00      6.36340E-04
  449.00      6.47050E-04
  451.00      6.42170E-04
  453.00      6.37010E-04
  455.00      6.27060E-04
  457.00      6.27820E-04
  459.00      6.23140E-04
  461.00      6.18520E-04
  463.00      6.13940E-04
  465.00      6.09400E-04
  467.00      6.04870E-04
  469.00      5.88560E-04
  471.00      5.92010E-04
  473.00      5.91770E-04
  475.00      5.87480E-04
  477.00      5.83240E-04
  479.00      5.79040E-04
  481.00      5.74880E-04
  483.00      5.69150E-04
  485.00      5.44720E-04
  487.00      5.08040E-04
  489.00      5.55920E-04
  491.00      5.54500E-04
  493.00      5.43070E-04
  495.00      5.47000E-04
  497.00      5.43180E-04
  499.00      5.39400E-04
  501.00      5.31870E-04
  503.00      5.31960E-04
  505.00      5.26780E-04
  507.00      5.24670E-04
  509.00      5.21090E-04
  511.00      5.17540E-04
  513.00      5.14020E-04
  515.00      5.10540E-04
  517.00      5.07100E-04
  519.00      5.03680E-04
  521.00      5.00300E-04
  523.00      4.96960E-04
  525.00      4.93640E-04
  527.00      4.90360E-04
  529.00      4.87110E-04
  531.00      4.83900E-04
  533.00      4.80710E-04
  535.00      4.77560E-04
  537.00      4.74440E-04
  539.00      4.71340E-04
  541.00      4.64300E-04
  543.00      4.65250E-04
  545.00      4.62250E-04
  547.00      4.59280E-04
  549.00      4.56340E-04
  551.00      4.53420E-04
  553.00      4.50530E-04
  555.00      4.47670E-04
  557.00      4.44830E-04
  559.00      4.42020E-04
  561.00      4.39240E-04
  563.00      4.36480E-04
  565.00      4.33740E-04
  567.00      4.31040E-04
  569.00      4.26880E-04
  571.00      4.17650E-04
  573.00      4.15170E-04
  575.00      4.12720E-04
  577.00      4.10280E-04
  579.00      4.07880E-04
  581.00      4.05540E-04
  583.00      4.03320E-04
  585.00      4.01340E-04
  587.00      3.92270E-04
  589.00      3.97330E-04
  591.00      3.96000E-04
  593.00      3.94370E-04
  595.00      3.92790E-04
  597.00      3.91250E-04
  599.00      3.89790E-04
  601.00      3.88470E-04
  603.00      3.86480E-04
  605.00      3.84210E-04
  607.00      3.81950E-04
  609.00      3.79710E-04
  611.00      3.77490E-04
  613.00      3.75280E-04
  615.00      3.73100E-04
  617.00      3.70940E-04
  619.00      3.68800E-04
  621.00      3.66670E-04
  623.00      3.64560E-04
  625.00      3.62470E-04
  627.00      3.60400E-04
  629.00      3.58350E-04
  631.00      3.56300E-04
  633.00      3.54290E-04
  635.00      3.52290E-04
  637.00      3.50300E-04
  639.00      3.48330E-04
  641.00      3.46150E-04
  643.00      3.44440E-04
  645.00      3.42530E-04
  647.00      3.40620E-04
  649.00      3.38730E-04
  651.00      3.36850E-04
  653.00      3.33510E-04
  655.00      3.26010E-04
  657.00      3.02600E-04
  659.00      3.27880E-04
  661.00      3.27720E-04
  663.00      3.25940E-04
  665.00      3.24270E-04
  667.00      3.20370E-04
  669.00      3.17970E-04
  671.00      3.19040E-04
  673.00      3.17330E-04
  675.00      3.15630E-04
  677.00      3.13940E-04
  679.00      3.12270E-04
  681.00      3.10610E-04
  683.00      3.08960E-04
  685.00      3.07330E-04
  687.00      3.05710E-04
  689.00      3.03430E-04
  691.00      3.02510E-04
  693.00      3.00930E-04
  695.00      2.99360E-04
  697.00      2.97800E-04
  699.00      2.96250E-04
  701.00      2.94720E-04
  703.00      2.93200E-04
  705.00      2.91690E-04
  707.00      2.87270E-04
  709.00      2.88700E-04
  711.00      2.87230E-04
  713.00      2.85760E-04
  715.00      2.84310E-04
  717.00      2.82340E-04
  719.00      2.81160E-04
  721.00      2.80010E-04
  723.00      2.78600E-04
  725.00      2.77210E-04
  727.00      2.75820E-04
  729.00      2.73010E-04
  731.00      2.73050E-04
  733.00      2.71710E-04
  735.00      2.70370E-04
  737.00      2.69030E-04
  739.00      2.67700E-04
  741.00      2.66380E-04
  743.00      2.65080E-04
  745.00      2.63790E-04
  747.00      2.62510E-04
  749.00      2.61230E-04
  751.00      2.59910E-04
  753.00      2.58690E-04
  755.00      2.57440E-04
  757.00      2.56200E-04
  759.00      2.54170E-04
  761.00      2.53740E-04
  763.00      2.52520E-04
  765.00      2.51310E-04
  767.00      2.50120E-04
  769.00      2.48930E-04
  771.00      2.47740E-04
  773.00      2.46570E-04
  775.00      2.45400E-04
  777.00      2.44250E-04
  779.00      2.43100E-04
  781.00      2.41890E-04
  783.00      2.40820E-04
  785.00      2.39820E-04
  787.00      2.38700E-04
  789.00      2.37590E-04
  791.00      2.36490E-04
  793.00      2.35390E-04
  795.00      2.34310E-04
  797.00      2.33180E-04
  799.00      2.32150E-04
  801.00      2.31090E-04
  803.00      2.30030E-04
  805.00      2.28980E-04
  807.00      2.27930E-04
  809.00      2.26730E-04
  811.00      2.25730E-04
  813.00      2.24830E-04
  815.00      2.23640E-04
  817.00      2.22810E-04
  819.00      2.21470E-04
  821.00      2.18710E-04
  823.00      2.17380E-04
  825.00      2.16960E-04
  827.00      2.15700E-04
  829.00      2.15160E-04
  831.00      2.14260E-04
  833.00      2.13270E-04
  835.00      2.11870E-04
  837.00      2.11290E-04
  839.00      2.10510E-04
  841.00      2.09630E-04
  843.00      2.08660E-04
  845.00      2.07110E-04
  847.00      2.06910E-04
  849.00      2.05840E-04
  851.00      2.05120E-04
  853.00      2.04080E-04
  855.00      2.02920E-04
  857.00      2.03160E-04
  859.00      1.99970E-04
  861.00      2.00110E-04
  863.00      2.01330E-04
  865.00      1.98690E-04
  867.00      1.94780E-04
  869.00      1.98930E-04
  871.00      1.99310E-04
  873.00      1.96200E-04
  875.00      1.88330E-04
  877.00      1.93300E-04
  879.00      1.96670E-04
  881.00      1.96420E-04
  883.00      1.95070E-04
  885.00      1.87930E-04
  887.00      1.81180E-04
  889.00      1.91290E-04
  891.00      1.92640E-04
  893.00      1.92140E-04
  895.00      1.91630E-04
  897.00      1.90510E-04
  899.00      1.87040E-04
  901.00      1.75010E-04
  903.00      1.79610E-04
  905.00      1.86340E-04
  907.00      1.85670E-04
  909.00      1.86090E-04
  911.00      1.85810E-04
  913.00      1.85130E-04
  915.00      1.84380E-04
  917.00      1.83080E-04
  919.00      1.81820E-04
  921.00      1.76470E-04
  923.00      1.63940E-04
  925.00      1.75030E-04
  927.00      1.78720E-04
  929.00      1.78840E-04
  931.00      1.77980E-04
  933.00      1.77760E-04
  935.00      1.75830E-04
  937.00      1.76340E-04
  939.00      1.75640E-04
  941.00      1.74940E-04
  943.00      1.74240E-04
  945.00      1.73550E-04
  947.00      1.72210E-04
  949.00      1.71810E-04
  951.00      1.69420E-04
  953.00      1.64280E-04
  955.00      1.53200E-04
  957.00      1.65350E-04
  959.00      1.67850E-04
  961.00      1.67670E-04
  963.00      1.66980E-04
  965.00      1.66840E-04
  967.00      1.66190E-04
  969.00      1.65480E-04
  971.00      1.64650E-04
  973.00      1.64270E-04
  975.00      1.63640E-04
  977.00      1.63000E-04
  979.00      1.62380E-04
  981.00      1.61760E-04
  983.00      1.61140E-04
  985.00      1.60520E-04
  987.00      1.59910E-04
  989.00      1.59300E-04
  991.00      1.58690E-04
  993.00      1.58090E-04
  995.00      1.57490E-04
  997.00      1.56900E-04
  999.00      1.56040E-04
  1002.5      1.50490E-04
  1007.5      1.47770E-04
  1012.5      1.51120E-04
  1017.5      1.50990E-04
  1022.5      1.49560E-04
  1027.5      1.48220E-04
  1032.5      1.46480E-04
  1037.5      1.45540E-04
  1042.5      1.44190E-04
  1047.5      1.42920E-04
  1052.5      1.41640E-04
  1057.5      1.40370E-04
  1062.5      1.39130E-04
  1067.5      1.37750E-04
  1072.5      1.36680E-04
  1077.5      1.35480E-04
  1082.5      1.33460E-04
  1087.5      1.32820E-04
  1092.5      1.24670E-04
  1097.5      1.28660E-04
  1102.5      1.29220E-04
  1107.5      1.28540E-04
  1112.5      1.27510E-04
  1117.5      1.26440E-04
  1122.5      1.25340E-04
  1127.5      1.24320E-04
  1132.5      1.23280E-04
  1137.5      1.22250E-04
  1142.5      1.21230E-04
  1147.5      1.20230E-04
  1152.5      1.19240E-04
  1157.5      1.18270E-04
  1162.5      1.17010E-04
  1167.5      1.16270E-04
  1172.5      1.15400E-04
  1177.5      1.14470E-04
  1182.5      1.13550E-04
  1187.5      1.12640E-04
  1192.5      1.11750E-04
  1197.5      1.10110E-04
  1202.5      1.09980E-04
  1207.5      1.09120E-04
  1212.5      1.08260E-04
  1217.5      1.07410E-04
  1222.5      1.06580E-04
  1227.5      1.05750E-04
  1232.5      1.04930E-04
  1237.5      1.04130E-04
  1242.5      1.03330E-04
  1247.5      1.02540E-04
  1252.5      1.01630E-04
  1257.5      1.00990E-04
  1262.5      1.00220E-04
  1267.5      9.94690E-05
  1272.5      9.87210E-05
  1277.5      9.67490E-05
  1282.5      9.19450E-05
  1287.5      9.60370E-05
  1292.5      9.58220E-05
  1297.5      9.47200E-05
  1302.5      9.44220E-05
  1307.5      9.37320E-05
  1312.5      9.30500E-05
  1317.5      9.23760E-05
  1322.5      9.17090E-05
  1327.5      9.10480E-05
  1332.5      9.03950E-05
  1337.5      8.97490E-05
  1342.5      8.90680E-05
  1347.5      8.84780E-05
  1352.5      8.78520E-05
  1357.5      8.72330E-05
  1362.5      8.66200E-05
  1367.5      8.60140E-05
  1372.5      8.54140E-05
  1377.5      8.48210E-05
  1382.5      8.42340E-05
  1387.5      8.36520E-05
  1392.5      8.30770E-05
  1397.5      8.25080E-05
