 Castelli and Kurucz 2004-2012 Atmosphere
 T     32000.     G    4.50000 [-4.0a] N(He)/Ntot=0.089 VTURB=2.0  L/H=1.25 NOV
 Wavelength  Eddington Hnu
   (nm)    (ergs/s/cm2/Hz/sr)
  9.0900      5.00950E-32
  9.3500      3.84850E-31
  9.6100      2.64770E-30
  9.7700      8.23950E-30
  9.9600      3.02350E-29
  10.200      1.45700E-28
  10.380      4.51500E-28
  10.560      1.34510E-27
  10.770      4.58800E-27
  11.040      2.07350E-26
  11.400      1.38360E-25
  11.780      9.02710E-25
  12.130      4.56690E-24
  12.480      2.10560E-23
  12.710      5.48570E-23
  12.840      9.28140E-23
  13.050      2.12120E-22
  13.240      4.37870E-22
  13.390      7.64470E-22
  13.660      2.01950E-21
  13.980      6.07530E-21
  14.330      1.91310E-20
  14.720      6.42750E-20
  15.100      1.96820E-19
  15.520      6.34850E-19
  15.880      1.64590E-18
  16.200      3.70130E-18
  16.600      9.74120E-18
  17.030      2.61530E-17
  17.340      5.16500E-17
  17.680      1.05910E-16
  18.020      2.11130E-16
  18.170      2.83790E-16
  18.610      6.56780E-16
  19.100      1.59530E-15
  19.390      2.63860E-15
  19.840      5.58700E-15
  20.180      9.62380E-15
  20.500      1.57820E-14
  21.050      3.55940E-14
  21.620      7.90030E-14
  21.980      1.27840E-13
  22.300      1.93410E-13
  22.680      3.11220E-13
  23.000      1.93370E-12
  23.400      1.09420E-11
  24.000      2.75760E-11
  24.650      5.90010E-11
  25.240      9.66600E-11
  25.680      8.69620E-11
  26.000      1.63440E-10
  26.400      2.12020E-10
  26.850      2.83630E-10
  27.350      3.83680E-10
  27.850      5.15330E-10
  28.400      7.10330E-10
  29.000      9.91730E-10
  29.600      1.34360E-09
  30.100      1.48090E-09
  30.800      2.04240E-09
  31.800      4.25310E-09
  32.800      6.84040E-09
  33.800      1.07100E-08
  34.800      1.63620E-08
  35.700      2.34390E-08
  36.600      3.31800E-08
  37.500      4.59530E-08
  38.500      6.52570E-08
  39.500      9.07330E-08
  40.500      1.24160E-07
  41.400      1.62630E-07
  42.200      2.04460E-07
  43.000      2.54780E-07
  44.100      3.40550E-07
  45.100      4.37530E-07
  46.000      5.42280E-07
  47.000      6.82780E-07
  48.000      8.49830E-07
  49.000      1.04770E-06
  50.000      1.28060E-06
  50.600      7.64490E-06
  51.200      2.38650E-05
  52.000      2.46960E-05
  53.000      2.77120E-05
  54.000      2.70650E-05
  55.000      3.02160E-05
  56.000      3.16760E-05
  57.000      3.31920E-05
  58.000      3.29210E-05
  59.000      3.63120E-05
  60.000      3.80250E-05
  61.000      4.01120E-05
  62.000      4.21690E-05
  63.000      4.43280E-05
  64.000      4.64700E-05
  65.000      4.89080E-05
  65.800      5.06980E-05
  66.500      5.25460E-05
  67.500      5.51660E-05
  68.500      5.73120E-05
  69.500      6.08060E-05
  70.500      6.28940E-05
  71.600      6.68950E-05
  72.600      6.99700E-05
  73.500      7.30400E-05
  74.500      7.62960E-05
  75.500      7.96080E-05
  76.500      8.30380E-05
  77.500      8.67100E-05
  78.500      9.03680E-05
  79.500      9.40370E-05
  80.500      9.78120E-05
  81.500      1.01650E-04
  82.500      1.05600E-04
  83.500      1.07610E-04
  84.500      1.13620E-04
  85.500      1.17720E-04
  86.500      1.21880E-04
  87.500      1.26080E-04
  88.500      1.30340E-04
  89.500      1.34640E-04
  90.500      1.38940E-04
  91.500      1.60330E-04
  92.500      6.13410E-04
  93.500      1.06190E-03
  94.500      1.81150E-03
  95.500      2.08350E-03
  96.500      2.58310E-03
  97.500      1.71980E-03
  98.500      2.68790E-03
  99.500      2.53880E-03
  100.50      2.70810E-03
  101.50      2.65220E-03
  102.50      1.62650E-03
  103.50      2.59550E-03
  104.50      2.65510E-03
  105.50      2.64930E-03
  106.50      2.61840E-03
  107.50      2.60600E-03
  108.50      2.46700E-03
  109.50      2.59070E-03
  110.50      2.57030E-03
  111.50      2.55680E-03
  112.50      2.51290E-03
  113.50      2.52940E-03
  114.50      2.51280E-03
  115.50      2.49600E-03
  116.50      2.48150E-03
  117.50      2.35500E-03
  118.50      2.44900E-03
  119.50      2.42530E-03
  120.50      2.35130E-03
  121.50      1.48580E-03
  122.50      2.31600E-03
  123.50      2.36390E-03
  124.50      2.35270E-03
  125.50      2.34320E-03
  126.50      2.32750E-03
  127.50      2.31180E-03
  128.50      2.29630E-03
  129.50      2.27020E-03
  130.50      2.26280E-03
  131.50      2.25060E-03
  132.50      2.23520E-03
  133.50      2.21700E-03
  134.50      2.20530E-03
  135.50      2.19070E-03
  136.50      2.17580E-03
  137.50      2.16110E-03
  138.50      2.14670E-03
  139.50      2.10710E-03
  140.50      2.09730E-03
  141.50      2.10300E-03
  142.50      2.08860E-03
  143.50      2.07460E-03
  144.20      2.06480E-03
  144.70      2.05790E-03
  145.50      2.04680E-03
  146.50      2.03310E-03
  147.50      2.01940E-03
  148.50      2.00590E-03
  149.50      1.99250E-03
  150.50      1.97890E-03
  151.20      1.96970E-03
  151.70      1.96280E-03
  152.50      1.95200E-03
  153.50      1.93830E-03
  154.50      1.90750E-03
  155.50      1.89650E-03
  156.50      1.89880E-03
  157.50      1.88600E-03
  158.50      1.87340E-03
  159.50      1.86070E-03
  160.50      1.84770E-03
  161.50      1.83530E-03
  162.50      1.82260E-03
  163.50      1.78560E-03
  164.50      1.71090E-03
  165.50      1.78760E-03
  166.50      1.77590E-03
  167.20      1.76750E-03
  167.70      1.76190E-03
  168.50      1.75230E-03
  169.50      1.74060E-03
  170.50      1.72900E-03
  171.50      1.71670E-03
  172.50      1.70570E-03
  173.50      1.69520E-03
  174.50      1.68410E-03
  175.50      1.67320E-03
  176.50      1.66230E-03
  177.50      1.65150E-03
  178.50      1.64070E-03
  179.50      1.63010E-03
  180.50      1.61960E-03
  181.50      1.60910E-03
  182.50      1.59870E-03
  183.50      1.58840E-03
  184.50      1.57800E-03
  185.50      1.56760E-03
  186.50      1.55760E-03
  187.50      1.54780E-03
  188.50      1.53790E-03
  189.50      1.52800E-03
  190.50      1.51860E-03
  191.50      1.50880E-03
  192.50      1.49940E-03
  193.50      1.49010E-03
  194.50      1.48100E-03
  195.50      1.47170E-03
  196.70      1.46100E-03
  197.60      1.45290E-03
  198.40      1.44570E-03
  199.50      1.43590E-03
  200.50      1.42730E-03
  201.50      1.41850E-03
  202.50      1.40970E-03
  203.50      1.40110E-03
  204.50      1.39260E-03
  205.50      1.24930E-03
  206.50      1.22940E-03
  207.40      1.23080E-03
  207.80      1.24050E-03
  208.50      1.26610E-03
  209.50      1.32240E-03
  210.50      1.34220E-03
  211.50      1.33670E-03
  212.50      1.32870E-03
  213.50      1.31990E-03
  214.50      1.31260E-03
  215.50      1.31040E-03
  216.50      1.29380E-03
  217.50      1.29790E-03
  218.50      1.27760E-03
  219.50      1.28190E-03
  220.50      1.27480E-03
  221.50      1.25370E-03
  222.50      1.25960E-03
  223.50      1.25220E-03
  224.50      1.24470E-03
  225.50      1.22410E-03
  226.50      1.23020E-03
  227.50      1.22300E-03
  228.50      1.21590E-03
  229.50      1.20420E-03
  230.50      1.18940E-03
  231.50      1.19500E-03
  232.50      1.18820E-03
  233.50      1.18140E-03
  234.50      1.17470E-03
  235.50      1.16800E-03
  236.50      1.16140E-03
  237.50      1.15490E-03
  238.50      1.13710E-03
  239.50      1.14180E-03
  240.50      1.13530E-03
  241.50      1.12890E-03
  242.50      1.12260E-03
  243.50      1.11630E-03
  244.50      1.11000E-03
  245.50      1.10390E-03
  246.50      1.09770E-03
  247.50      1.09170E-03
  248.50      1.08570E-03
  249.50      1.06850E-03
  250.50      1.07310E-03
  251.30      1.04680E-03
  251.80      1.06630E-03
  252.50      1.06230E-03
  253.50      1.05650E-03
  254.50      1.05080E-03
  255.50      1.04520E-03
  256.50      1.03960E-03
  257.50      1.03410E-03
  258.50      1.02860E-03
  259.50      1.02310E-03
  260.50      1.02150E-03
  261.50      1.01610E-03
  262.50      1.01070E-03
  263.50      1.00480E-03
  264.50      9.99180E-04
  265.50      9.93100E-04
  266.50      9.86750E-04
  267.50      9.80620E-04
  268.50      9.79190E-04
  269.50      9.69480E-04
  270.50      9.69070E-04
  271.50      9.64050E-04
  272.50      9.53540E-04
  273.50      9.46570E-04
  274.50      9.49190E-04
  275.50      9.44330E-04
  276.50      9.33440E-04
  277.50      9.34730E-04
  278.50      9.29990E-04
  279.50      9.25270E-04
  280.50      9.20620E-04
  281.50      9.16010E-04
  282.50      9.04170E-04
  283.50      9.03520E-04
  284.50      9.02290E-04
  285.50      8.97790E-04
  286.50      8.93310E-04
  287.50      8.88870E-04
  288.50      8.84460E-04
  289.50      8.80070E-04
  291.00      8.73560E-04
  293.00      8.65000E-04
  295.00      8.51590E-04
  297.00      8.48300E-04
  299.00      8.40150E-04
  301.00      8.32130E-04
  303.00      8.24230E-04
  305.00      8.16410E-04
  307.00      8.08690E-04
  309.00      8.01090E-04
  311.00      7.93610E-04
  313.00      7.86790E-04
  315.00      7.79490E-04
  317.00      7.72240E-04
  319.00      7.59540E-04
  321.00      7.55290E-04
  323.00      7.50900E-04
  325.00      7.43970E-04
  327.00      7.37860E-04
  329.00      7.30450E-04
  331.00      7.24720E-04
  333.00      7.18290E-04
  335.00      7.10930E-04
  337.00      7.05690E-04
  339.00      6.99530E-04
  341.00      6.93440E-04
  343.00      6.85240E-04
  345.00      6.77370E-04
  347.00      6.73140E-04
  349.00      6.67340E-04
  351.00      6.62450E-04
  353.00      6.57760E-04
  355.00      6.52050E-04
  357.00      6.49810E-04
  359.00      6.40460E-04
  361.00      6.36990E-04
  363.00      6.29860E-04
  364.00      6.30640E-04
  365.00      6.22600E-04
  367.00      6.19450E-04
  369.00      6.14320E-04
  371.00      6.02020E-04
  373.00      5.88410E-04
  375.00      5.93090E-04
  377.00      5.87320E-04
  379.00      6.09340E-04
  381.00      6.32790E-04
  383.00      5.71390E-04
  385.00      6.50030E-04
  387.00      6.59030E-04
  389.00      5.55280E-04
  391.00      6.55660E-04
  393.00      6.52750E-04
  395.00      6.46350E-04
  397.00      5.35590E-04
  399.00      6.32600E-04
  401.00      6.32800E-04
  403.00      6.07160E-04
  405.00      6.28330E-04
  407.00      6.21040E-04
  409.00      5.85540E-04
  411.00      5.27670E-04
  413.00      6.00380E-04
  415.00      5.98720E-04
  417.00      5.97880E-04
  419.00      5.93670E-04
  421.00      5.88110E-04
  423.00      5.84660E-04
  425.00      5.80030E-04
  427.00      5.75450E-04
  429.00      5.70720E-04
  431.00      5.63720E-04
  433.00      5.24590E-04
  435.00      4.89440E-04
  437.00      5.49700E-04
  439.00      5.36810E-04
  441.00      5.44900E-04
  443.00      5.39200E-04
  445.00      5.36620E-04
  447.00      5.13870E-04
  449.00      5.28300E-04
  451.00      5.24540E-04
  453.00      5.20600E-04
  455.00      5.15250E-04
  457.00      5.12880E-04
  459.00      5.09070E-04
  461.00      5.05300E-04
  463.00      5.01580E-04
  465.00      4.97890E-04
  467.00      4.94260E-04
  469.00      4.86290E-04
  471.00      4.82420E-04
  473.00      4.83580E-04
  475.00      4.80100E-04
  477.00      4.76650E-04
  479.00      4.73240E-04
  481.00      4.69590E-04
  483.00      4.64170E-04
  485.00      4.37960E-04
  487.00      4.01500E-04
  489.00      4.53120E-04
  491.00      4.52290E-04
  493.00      4.41300E-04
  495.00      4.47240E-04
  497.00      4.44140E-04
  499.00      4.41080E-04
  501.00      4.33790E-04
  503.00      4.35030E-04
  505.00      4.30210E-04
  507.00      4.29120E-04
  509.00      4.26210E-04
  511.00      4.23320E-04
  513.00      4.20470E-04
  515.00      4.17650E-04
  517.00      4.14850E-04
  519.00      4.12080E-04
  521.00      4.09340E-04
  523.00      4.06630E-04
  525.00      4.03940E-04
  527.00      4.01270E-04
  529.00      3.98640E-04
  531.00      3.96030E-04
  533.00      3.93440E-04
  535.00      3.90880E-04
  537.00      3.88350E-04
  539.00      3.85840E-04
  541.00      3.82390E-04
  543.00      3.80890E-04
  545.00      3.78450E-04
  547.00      3.76030E-04
  549.00      3.73640E-04
  551.00      3.71270E-04
  553.00      3.68930E-04
  555.00      3.66600E-04
  557.00      3.64300E-04
  559.00      3.62020E-04
  561.00      3.59760E-04
  563.00      3.57520E-04
  565.00      3.55310E-04
  567.00      3.53110E-04
  569.00      3.50720E-04
  571.00      3.47650E-04
  573.00      3.45540E-04
  575.00      3.43460E-04
  577.00      3.41390E-04
  579.00      3.39340E-04
  581.00      3.37310E-04
  583.00      3.35310E-04
  585.00      3.33320E-04
  587.00      3.23080E-04
  589.00      3.29060E-04
  591.00      3.28020E-04
  593.00      3.26330E-04
  595.00      3.24400E-04
  597.00      3.22480E-04
  599.00      3.20580E-04
  601.00      3.18700E-04
  603.00      3.16840E-04
  605.00      3.14990E-04
  607.00      3.13150E-04
  609.00      3.11340E-04
  611.00      3.09540E-04
  613.00      3.07750E-04
  615.00      3.05980E-04
  617.00      3.04220E-04
  619.00      3.02480E-04
  621.00      3.00750E-04
  623.00      2.99040E-04
  625.00      2.97340E-04
  627.00      2.95660E-04
  629.00      2.93990E-04
  631.00      2.92340E-04
  633.00      2.90700E-04
  635.00      2.89070E-04
  637.00      2.87460E-04
  639.00      2.85860E-04
  641.00      2.84270E-04
  643.00      2.82700E-04
  645.00      2.81140E-04
  647.00      2.79590E-04
  649.00      2.78060E-04
  651.00      2.76530E-04
  653.00      2.73970E-04
  655.00      2.65400E-04
  657.00      2.41880E-04
  659.00      2.68550E-04
  661.00      2.68860E-04
  663.00      2.67660E-04
  665.00      2.66340E-04
  667.00      2.62610E-04
  669.00      2.61180E-04
  671.00      2.62090E-04
  673.00      2.60700E-04
  675.00      2.59320E-04
  677.00      2.57950E-04
  679.00      2.56590E-04
  681.00      2.55240E-04
  683.00      2.53900E-04
  685.00      2.52570E-04
  687.00      2.51250E-04
  689.00      2.49940E-04
  691.00      2.48650E-04
  693.00      2.47360E-04
  695.00      2.46090E-04
  697.00      2.44820E-04
  699.00      2.43560E-04
  701.00      2.42320E-04
  703.00      2.41080E-04
  705.00      2.39850E-04
  707.00      2.35440E-04
  709.00      2.37420E-04
  711.00      2.36220E-04
  713.00      2.35030E-04
  715.00      2.33850E-04
  717.00      2.32620E-04
  719.00      2.31500E-04
  721.00      2.30350E-04
  723.00      2.29200E-04
  725.00      2.28060E-04
  727.00      2.26930E-04
  729.00      2.24240E-04
  731.00      2.24670E-04
  733.00      2.23590E-04
  735.00      2.22490E-04
  737.00      2.21400E-04
  739.00      2.20320E-04
  741.00      2.19250E-04
  743.00      2.18180E-04
  745.00      2.17140E-04
  747.00      2.16090E-04
  749.00      2.15050E-04
  751.00      2.13960E-04
  753.00      2.12980E-04
  755.00      2.11960E-04
  757.00      2.10950E-04
  759.00      2.09900E-04
  761.00      2.08940E-04
  763.00      2.07950E-04
  765.00      2.06970E-04
  767.00      2.05990E-04
  769.00      2.05020E-04
  771.00      2.04050E-04
  773.00      2.03090E-04
  775.00      2.02140E-04
  777.00      2.01200E-04
  779.00      2.00260E-04
  781.00      1.99250E-04
  783.00      1.98410E-04
  785.00      1.97640E-04
  787.00      1.96720E-04
  789.00      1.95770E-04
  791.00      1.94920E-04
  793.00      1.94020E-04
  795.00      1.93130E-04
  797.00      1.92150E-04
  799.00      1.91370E-04
  801.00      1.90470E-04
  803.00      1.89530E-04
  805.00      1.88660E-04
  807.00      1.87820E-04
  809.00      1.86750E-04
  811.00      1.86030E-04
  813.00      1.85290E-04
  815.00      1.84300E-04
  817.00      1.83680E-04
  819.00      1.82640E-04
  821.00      1.81510E-04
  823.00      1.80970E-04
  825.00      1.80300E-04
  827.00      1.78910E-04
  829.00      1.78660E-04
  831.00      1.77930E-04
  833.00      1.77080E-04
  835.00      1.75660E-04
  837.00      1.75350E-04
  839.00      1.74780E-04
  841.00      1.74030E-04
  843.00      1.73170E-04
  845.00      1.71520E-04
  847.00      1.71650E-04
  849.00      1.70600E-04
  851.00      1.70000E-04
  853.00      1.69050E-04
  855.00      1.67770E-04
  857.00      1.68590E-04
  859.00      1.64720E-04
  861.00      1.65170E-04
  863.00      1.67210E-04
  865.00      1.64130E-04
  867.00      1.59300E-04
  869.00      1.65050E-04
  871.00      1.65810E-04
  873.00      1.62220E-04
  875.00      1.52880E-04
  877.00      1.59250E-04
  879.00      1.63560E-04
  881.00      1.63470E-04
  883.00      1.62060E-04
  885.00      1.54160E-04
  887.00      1.46630E-04
  889.00      1.58450E-04
  891.00      1.60240E-04
  893.00      1.59950E-04
  895.00      1.59610E-04
  897.00      1.58560E-04
  899.00      1.54850E-04
  901.00      1.41660E-04
  903.00      1.47090E-04
  905.00      1.54780E-04
  907.00      1.54250E-04
  909.00      1.54900E-04
  911.00      1.54900E-04
  913.00      1.54390E-04
  915.00      1.53640E-04
  917.00      1.52370E-04
  919.00      1.51280E-04
  921.00      1.45530E-04
  923.00      1.31980E-04
  925.00      1.44400E-04
  927.00      1.48660E-04
  929.00      1.48960E-04
  931.00      1.48190E-04
  933.00      1.48270E-04
  935.00      1.47450E-04
  937.00      1.47090E-04
  939.00      1.46510E-04
  941.00      1.45930E-04
  943.00      1.45350E-04
  945.00      1.44770E-04
  947.00      1.43250E-04
  949.00      1.43130E-04
  951.00      1.40700E-04
  953.00      1.35220E-04
  955.00      1.23300E-04
  957.00      1.36780E-04
  959.00      1.39720E-04
  961.00      1.39610E-04
  963.00      1.39020E-04
  965.00      1.39210E-04
  967.00      1.38670E-04
  969.00      1.38040E-04
  971.00      1.37280E-04
  973.00      1.37080E-04
  975.00      1.36550E-04
  977.00      1.36030E-04
  979.00      1.35510E-04
  981.00      1.34990E-04
  983.00      1.34470E-04
  985.00      1.33960E-04
  987.00      1.33450E-04
  989.00      1.32950E-04
  991.00      1.32440E-04
  993.00      1.31940E-04
  995.00      1.31450E-04
  997.00      1.30900E-04
  999.00      1.30050E-04
  1002.5      1.24290E-04
  1007.5      1.21680E-04
  1012.5      1.26530E-04
  1017.5      1.26040E-04
  1022.5      1.24840E-04
  1027.5      1.23750E-04
  1032.5      1.22180E-04
  1037.5      1.21510E-04
  1042.5      1.20420E-04
  1047.5      1.19340E-04
  1052.5      1.18270E-04
  1057.5      1.17220E-04
  1062.5      1.16180E-04
  1067.5      1.14970E-04
  1072.5      1.14150E-04
  1077.5      1.13150E-04
  1082.5      1.11200E-04
  1087.5      1.10780E-04
  1092.5      1.02130E-04
  1097.5      1.06820E-04
  1102.5      1.07690E-04
  1107.5      1.07350E-04
  1112.5      1.06520E-04
  1117.5      1.05620E-04
  1122.5      1.04690E-04
  1127.5      1.03860E-04
  1132.5      1.02990E-04
  1137.5      1.02140E-04
  1142.5      1.01290E-04
  1147.5      1.00460E-04
  1152.5      9.96340E-05
  1157.5      9.88200E-05
  1162.5      9.79880E-05
  1167.5      9.72210E-05
  1172.5      9.64370E-05
  1177.5      9.56620E-05
  1182.5      9.48960E-05
  1187.5      9.41390E-05
  1192.5      9.33910E-05
  1197.5      9.17790E-05
  1202.5      9.19220E-05
  1207.5      9.12010E-05
  1212.5      9.04880E-05
  1217.5      8.97830E-05
  1222.5      8.90860E-05
  1227.5      8.83980E-05
  1232.5      8.77170E-05
  1237.5      8.70440E-05
  1242.5      8.63790E-05
  1247.5      8.57210E-05
  1252.5      8.49160E-05
  1257.5      8.44280E-05
  1262.5      8.37920E-05
  1267.5      8.31620E-05
  1272.5      8.24850E-05
  1277.5      8.05040E-05
  1282.5      7.53470E-05
  1287.5      8.01250E-05
  1292.5      8.00930E-05
  1297.5      7.90320E-05
  1302.5      7.89540E-05
  1307.5      7.83800E-05
  1312.5      7.78110E-05
  1317.5      7.72480E-05
  1322.5      7.66920E-05
  1327.5      7.61410E-05
  1332.5      7.55960E-05
  1337.5      7.50570E-05
  1342.5      7.44710E-05
  1347.5      7.39960E-05
  1352.5      7.34740E-05
  1357.5      7.29580E-05
  1362.5      7.24470E-05
  1367.5      7.19410E-05
  1372.5      7.14400E-05
  1377.5      7.09450E-05
  1382.5      7.04550E-05
  1387.5      6.99690E-05
  1392.5      6.94890E-05
  1397.5      6.90140E-05
