 Castelli and Kurucz 2004-2012 Atmosphere
 T     39000.     G    4.00000 [-4.0a] N(He)/Ntot=0.089 VTURB=2.0  L/H=1.25 NOV
 Wavelength  Eddington Hnu
   (nm)    (ergs/s/cm2/Hz/sr)
  9.0900      4.64920E-22
  9.3500      1.84480E-21
  9.6100      6.79500E-21
  9.7700      1.46410E-20
  9.9600      3.52800E-20
  10.200      1.02200E-19
  10.380      2.19690E-19
  10.560      4.60040E-19
  10.770      1.05580E-18
  11.040      2.93020E-18
  11.400      1.05910E-17
  11.780      3.77060E-17
  12.130      1.13020E-16
  12.480      3.18160E-16
  12.710      6.08380E-16
  12.840      8.68430E-16
  13.050      1.51960E-15
  13.240      2.48190E-15
  13.390      3.61880E-15
  13.660      6.98460E-15
  13.980      1.47190E-14
  14.330      3.19790E-14
  14.720      7.25910E-14
  15.100      1.54690E-13
  15.520      3.41360E-13
  15.880      6.49900E-13
  16.200      1.12360E-12
  16.600      2.15960E-12
  17.030      4.20610E-12
  17.340      6.65720E-12
  17.680      1.08050E-11
  18.020      1.72020E-11
  18.170      2.09970E-11
  18.610      3.69630E-11
  19.100      6.71830E-11
  19.390      9.42610E-11
  19.840      1.56160E-10
  20.180      2.25090E-10
  20.500      3.13840E-10
  21.050      5.42020E-10
  21.620      9.25630E-10
  21.980      1.27830E-09
  22.300      1.68730E-09
  22.680      2.32090E-09
  23.000      1.27680E-08
  23.400      4.30090E-08
  24.000      1.36490E-07
  24.650      2.25110E-06
  25.240      6.87510E-06
  25.680      2.98610E-06
  26.000      1.90940E-05
  26.400      3.09110E-05
  26.850      4.38410E-05
  27.350      5.59730E-05
  27.850      6.54390E-05
  28.400      7.43440E-05
  29.000      8.01970E-05
  29.600      5.71310E-05
  30.100      7.30640E-06
  30.800      3.25860E-05
  31.800      1.17050E-04
  32.800      1.47840E-04
  33.800      1.63840E-04
  34.800      1.83260E-04
  35.700      1.96130E-04
  36.600      2.11080E-04
  37.500      2.20090E-04
  38.500      2.29610E-04
  39.500      2.49550E-04
  40.500      2.64740E-04
  41.400      2.76140E-04
  42.200      2.83330E-04
  43.000      2.95260E-04
  44.100      3.11780E-04
  45.100      3.24470E-04
  46.000      3.34400E-04
  47.000      3.48730E-04
  48.000      3.65520E-04
  49.000      3.74930E-04
  50.000      3.96180E-04
  50.600      5.02870E-04
  51.200      6.57910E-04
  52.000      6.76330E-04
  53.000      7.06200E-04
  54.000      7.16810E-04
  55.000      7.39930E-04
  56.000      7.73290E-04
  57.000      7.99120E-04
  58.000      8.08920E-04
  59.000      8.42350E-04
  60.000      8.54870E-04
  61.000      8.71830E-04
  62.000      9.01700E-04
  63.000      9.20660E-04
  64.000      9.48370E-04
  65.000      9.65080E-04
  65.800      9.71850E-04
  66.500      9.97640E-04
  67.500      1.02180E-03
  68.500      1.03300E-03
  69.500      1.06210E-03
  70.500      1.06510E-03
  71.600      1.10340E-03
  72.600      1.12320E-03
  73.500      1.14050E-03
  74.500      1.15810E-03
  75.500      1.17500E-03
  76.500      1.18720E-03
  77.500      1.21340E-03
  78.500      1.22160E-03
  79.500      1.24000E-03
  80.500      1.26430E-03
  81.500      1.28200E-03
  82.500      1.29990E-03
  83.500      1.29590E-03
  84.500      1.33100E-03
  85.500      1.34210E-03
  86.500      1.36240E-03
  87.500      1.37740E-03
  88.500      1.39170E-03
  89.500      1.40550E-03
  90.500      1.40900E-03
  91.500      1.23770E-03
  92.500      2.26520E-03
  93.500      2.77380E-03
  94.500      3.20630E-03
  95.500      3.39130E-03
  96.500      3.61710E-03
  97.500      3.21500E-03
  98.500      3.61450E-03
  99.500      3.50160E-03
  100.50      3.60650E-03
  101.50      3.59590E-03
  102.50      3.18660E-03
  103.50      3.57400E-03
  104.50      3.57070E-03
  105.50      3.56050E-03
  106.50      3.54660E-03
  107.50      3.53650E-03
  108.50      3.42570E-03
  109.50      3.51520E-03
  110.50      3.50270E-03
  111.50      3.48970E-03
  112.50      3.46150E-03
  113.50      3.46440E-03
  114.50      3.45110E-03
  115.50      3.43640E-03
  116.50      3.42320E-03
  117.50      3.36200E-03
  118.50      3.39570E-03
  119.50      3.38090E-03
  120.50      3.36430E-03
  121.50      2.97730E-03
  122.50      3.33260E-03
  123.50      3.31470E-03
  124.50      3.29950E-03
  125.50      3.29150E-03
  126.50      3.27600E-03
  127.50      3.26050E-03
  128.50      3.24490E-03
  129.50      3.22920E-03
  130.50      3.21350E-03
  131.50      3.19780E-03
  132.50      3.18200E-03
  133.50      3.16640E-03
  134.50      3.15070E-03
  135.50      3.13480E-03
  136.50      3.11890E-03
  137.50      3.10090E-03
  138.50      3.08730E-03
  139.50      3.06500E-03
  140.50      3.05040E-03
  141.50      3.03990E-03
  142.50      3.02400E-03
  143.50      3.00820E-03
  144.20      2.99670E-03
  144.70      2.98880E-03
  145.50      2.97610E-03
  146.50      2.96010E-03
  147.50      2.94430E-03
  148.50      2.92850E-03
  149.50      2.91250E-03
  150.50      2.89670E-03
  151.20      2.88570E-03
  151.70      2.87780E-03
  152.50      2.86530E-03
  153.50      2.84950E-03
  154.50      2.80720E-03
  155.50      2.79330E-03
  156.50      2.80270E-03
  157.50      2.78740E-03
  158.50      2.77180E-03
  159.50      2.75650E-03
  160.50      2.74100E-03
  161.50      2.72590E-03
  162.50      2.71030E-03
  163.50      2.65460E-03
  164.50      2.54930E-03
  165.50      2.66540E-03
  166.50      2.65040E-03
  167.20      2.63990E-03
  167.70      2.63270E-03
  168.50      2.62080E-03
  169.50      2.60610E-03
  170.50      2.59150E-03
  171.50      2.57260E-03
  172.50      2.56210E-03
  173.50      2.54810E-03
  174.50      2.53380E-03
  175.50      2.51950E-03
  176.50      2.50530E-03
  177.50      2.49120E-03
  178.50      2.47720E-03
  179.50      2.46330E-03
  180.50      2.44940E-03
  181.50      2.43570E-03
  182.50      2.42200E-03
  183.50      2.40830E-03
  184.50      2.39470E-03
  185.50      2.38130E-03
  186.50      2.36790E-03
  187.50      2.35460E-03
  188.50      2.34140E-03
  189.50      2.32830E-03
  190.50      2.31530E-03
  191.50      2.30240E-03
  192.50      2.28960E-03
  193.50      2.27680E-03
  194.50      2.26420E-03
  195.50      2.25170E-03
  196.70      2.23670E-03
  197.60      2.22560E-03
  198.40      2.21580E-03
  199.50      2.20230E-03
  200.50      2.19020E-03
  201.50      2.17790E-03
  202.50      2.16580E-03
  203.50      2.15370E-03
  204.50      2.14170E-03
  205.50      1.72350E-03
  206.50      1.69300E-03
  207.40      1.74860E-03
  207.80      1.80150E-03
  208.50      1.94550E-03
  209.50      2.07540E-03
  210.50      2.07370E-03
  211.50      2.06990E-03
  212.50      2.05980E-03
  213.50      2.04620E-03
  214.50      2.03890E-03
  215.50      2.05430E-03
  216.50      2.01010E-03
  217.50      2.03790E-03
  218.50      1.98860E-03
  219.50      2.01510E-03
  220.50      2.00490E-03
  221.50      1.95620E-03
  222.50      1.98320E-03
  223.50      1.97230E-03
  224.50      1.96150E-03
  225.50      1.91490E-03
  226.50      1.94020E-03
  227.50      1.92960E-03
  228.50      1.91920E-03
  229.50      1.90770E-03
  230.50      1.86440E-03
  231.50      1.88820E-03
  232.50      1.87810E-03
  233.50      1.86800E-03
  234.50      1.85800E-03
  235.50      1.84810E-03
  236.50      1.83830E-03
  237.50      1.82850E-03
  238.50      1.78680E-03
  239.50      1.80910E-03
  240.50      1.79960E-03
  241.50      1.79010E-03
  242.50      1.78060E-03
  243.50      1.77120E-03
  244.50      1.76190E-03
  245.50      1.75270E-03
  246.50      1.74350E-03
  247.50      1.73440E-03
  248.50      1.72540E-03
  249.50      1.70560E-03
  250.50      1.70530E-03
  251.30      1.62810E-03
  251.80      1.69600E-03
  252.50      1.68980E-03
  253.50      1.68110E-03
  254.50      1.67250E-03
  255.50      1.66380E-03
  256.50      1.65530E-03
  257.50      1.64680E-03
  258.50      1.63840E-03
  259.50      1.63010E-03
  260.50      1.62210E-03
  261.50      1.61380E-03
  262.50      1.60550E-03
  263.50      1.59740E-03
  264.50      1.58920E-03
  265.50      1.58110E-03
  266.50      1.57300E-03
  267.50      1.56500E-03
  268.50      1.55740E-03
  269.50      1.54920E-03
  270.50      1.54190E-03
  271.50      1.53420E-03
  272.50      1.52580E-03
  273.50      1.49090E-03
  274.50      1.51140E-03
  275.50      1.50390E-03
  276.50      1.49560E-03
  277.50      1.48910E-03
  278.50      1.48180E-03
  279.50      1.47450E-03
  280.50      1.46720E-03
  281.50      1.46000E-03
  282.50      1.45190E-03
  283.50      1.44560E-03
  284.50      1.43870E-03
  285.50      1.43170E-03
  286.50      1.42480E-03
  287.50      1.41790E-03
  288.50      1.41100E-03
  289.50      1.40420E-03
  291.00      1.39400E-03
  293.00      1.38070E-03
  295.00      1.36670E-03
  297.00      1.35460E-03
  299.00      1.34170E-03
  301.00      1.32910E-03
  303.00      1.31660E-03
  305.00      1.30420E-03
  307.00      1.29200E-03
  309.00      1.28000E-03
  311.00      1.26810E-03
  313.00      1.25650E-03
  315.00      1.24500E-03
  317.00      1.23360E-03
  319.00      1.22070E-03
  321.00      1.19850E-03
  323.00      1.20040E-03
  325.00      1.18960E-03
  327.00      1.17900E-03
  329.00      1.16840E-03
  331.00      1.15810E-03
  333.00      1.14790E-03
  335.00      1.13760E-03
  337.00      1.12770E-03
  339.00      1.11790E-03
  341.00      1.10810E-03
  343.00      1.09880E-03
  345.00      1.08900E-03
  347.00      1.07990E-03
  349.00      1.07040E-03
  351.00      1.06110E-03
  353.00      1.05190E-03
  355.00      1.04290E-03
  357.00      1.03460E-03
  359.00      1.02510E-03
  361.00      1.01680E-03
  363.00      1.00780E-03
  364.00      9.89200E-04
  365.00      9.24160E-04
  367.00      9.17700E-04
  369.00      9.14430E-04
  371.00      9.16500E-04
  373.00      9.20730E-04
  375.00      9.36470E-04
  377.00      9.42490E-04
  379.00      9.46820E-04
  381.00      9.54450E-04
  383.00      9.21600E-04
  385.00      9.48380E-04
  387.00      9.47310E-04
  389.00      8.97670E-04
  391.00      9.35230E-04
  393.00      9.21560E-04
  395.00      9.21050E-04
  397.00      8.68470E-04
  399.00      9.05900E-04
  401.00      8.99750E-04
  403.00      8.81420E-04
  405.00      8.86300E-04
  407.00      8.79350E-04
  409.00      8.64380E-04
  411.00      8.28640E-04
  413.00      8.58310E-04
  415.00      8.51480E-04
  417.00      8.45730E-04
  419.00      8.37910E-04
  421.00      8.25780E-04
  423.00      8.26580E-04
  425.00      8.20320E-04
  427.00      8.14130E-04
  429.00      8.08000E-04
  431.00      8.01930E-04
  433.00      7.84010E-04
  435.00      7.60900E-04
  437.00      7.84150E-04
  439.00      7.76760E-04
  441.00      7.72650E-04
  443.00      7.66850E-04
  445.00      7.61360E-04
  447.00      7.51540E-04
  449.00      7.50330E-04
  451.00      7.44900E-04
  453.00      7.39210E-04
  455.00      7.26920E-04
  457.00      7.28940E-04
  459.00      7.23730E-04
  461.00      7.18570E-04
  463.00      7.13470E-04
  465.00      7.08420E-04
  467.00      7.03130E-04
  469.00      6.81970E-04
  471.00      6.92500E-04
  473.00      6.88750E-04
  475.00      6.83960E-04
  477.00      6.79210E-04
  479.00      6.74500E-04
  481.00      6.69850E-04
  483.00      6.65230E-04
  485.00      6.53860E-04
  487.00      6.28680E-04
  489.00      6.51650E-04
  491.00      6.47290E-04
  493.00      6.40890E-04
  495.00      6.38590E-04
  497.00      6.34300E-04
  499.00      6.30060E-04
  501.00      6.24700E-04
  503.00      6.21700E-04
  505.00      6.17320E-04
  507.00      6.13480E-04
  509.00      6.09430E-04
  511.00      6.05420E-04
  513.00      6.01450E-04
  515.00      5.97520E-04
  517.00      5.93620E-04
  519.00      5.89760E-04
  521.00      5.85940E-04
  523.00      5.82160E-04
  525.00      5.78420E-04
  527.00      5.74710E-04
  529.00      5.71030E-04
  531.00      5.67390E-04
  533.00      5.63790E-04
  535.00      5.60220E-04
  537.00      5.56680E-04
  539.00      5.53170E-04
  541.00      5.43660E-04
  543.00      5.46250E-04
  545.00      5.42840E-04
  547.00      5.39460E-04
  549.00      5.36110E-04
  551.00      5.32780E-04
  553.00      5.29490E-04
  555.00      5.26230E-04
  557.00      5.23000E-04
  559.00      5.19800E-04
  561.00      5.16630E-04
  563.00      5.13490E-04
  565.00      5.10370E-04
  567.00      5.07290E-04
  569.00      4.99950E-04
  571.00      4.77660E-04
  573.00      4.74960E-04
  575.00      4.72300E-04
  577.00      4.69770E-04
  579.00      4.67570E-04
  581.00      4.65950E-04
  583.00      4.64630E-04
  585.00      4.63640E-04
  587.00      4.60250E-04
  589.00      4.62170E-04
  591.00      4.61810E-04
  593.00      4.61730E-04
  595.00      4.62060E-04
  597.00      4.61800E-04
  599.00      4.61210E-04
  601.00      4.59250E-04
  603.00      4.56580E-04
  605.00      4.54230E-04
  607.00      4.51190E-04
  609.00      4.49200E-04
  611.00      4.46170E-04
  613.00      4.43650E-04
  615.00      4.41640E-04
  617.00      4.37940E-04
  619.00      4.36670E-04
  621.00      4.34230E-04
  623.00      4.30390E-04
  625.00      4.29230E-04
  627.00      4.27000E-04
  629.00      4.24630E-04
  631.00      4.20400E-04
  633.00      4.19940E-04
  635.00      4.17640E-04
  637.00      4.15350E-04
  639.00      4.13060E-04
  641.00      4.08550E-04
  643.00      4.08580E-04
  645.00      4.06360E-04
  647.00      4.04160E-04
  649.00      4.01980E-04
  651.00      3.99800E-04
  653.00      3.94770E-04
  655.00      3.93090E-04
  657.00      3.75950E-04
  659.00      3.91150E-04
  661.00      3.89230E-04
  663.00      3.87170E-04
  665.00      3.85130E-04
  667.00      3.82150E-04
  669.00      3.77290E-04
  671.00      3.79080E-04
  673.00      3.77090E-04
  675.00      3.75120E-04
  677.00      3.73170E-04
  679.00      3.71230E-04
  681.00      3.69310E-04
  683.00      3.67400E-04
  685.00      3.65500E-04
  687.00      3.63620E-04
  689.00      3.58730E-04
  691.00      3.59890E-04
  693.00      3.58060E-04
  695.00      3.56230E-04
  697.00      3.54420E-04
  699.00      3.52620E-04
  701.00      3.50840E-04
  703.00      3.49070E-04
  705.00      3.47310E-04
  707.00      3.44350E-04
  709.00      3.43840E-04
  711.00      3.42120E-04
  713.00      3.40420E-04
  715.00      3.38720E-04
  717.00      3.35000E-04
  719.00      3.34440E-04
  721.00      3.33720E-04
  723.00      3.32070E-04
  725.00      3.30440E-04
  727.00      3.28820E-04
  729.00      3.26760E-04
  731.00      3.25620E-04
  733.00      3.24030E-04
  735.00      3.22460E-04
  737.00      3.20900E-04
  739.00      3.19350E-04
  741.00      3.17810E-04
  743.00      3.16280E-04
  745.00      3.14770E-04
  747.00      3.13260E-04
  749.00      3.11770E-04
  751.00      3.10280E-04
  753.00      3.08810E-04
  755.00      3.07340E-04
  757.00      3.05890E-04
  759.00      3.01700E-04
  761.00      3.02980E-04
  763.00      3.01590E-04
  765.00      3.00170E-04
  767.00      2.98770E-04
  769.00      2.97370E-04
  771.00      2.95990E-04
  773.00      2.94610E-04
  775.00      2.93250E-04
  777.00      2.91890E-04
  779.00      2.90550E-04
  781.00      2.89200E-04
  783.00      2.87880E-04
  785.00      2.86580E-04
  787.00      2.85280E-04
  789.00      2.83970E-04
  791.00      2.82680E-04
  793.00      2.81400E-04
  795.00      2.80130E-04
  797.00      2.78860E-04
  799.00      2.77600E-04
  801.00      2.76350E-04
  803.00      2.75110E-04
  805.00      2.73880E-04
  807.00      2.72660E-04
  809.00      2.71440E-04
  811.00      2.70230E-04
  813.00      2.69030E-04
  815.00      2.67840E-04
  817.00      2.66660E-04
  819.00      2.64670E-04
  821.00      2.56720E-04
  823.00      2.54580E-04
  825.00      2.54430E-04
  827.00      2.53460E-04
  829.00      2.52450E-04
  831.00      2.51400E-04
  833.00      2.50350E-04
  835.00      2.49270E-04
  837.00      2.48340E-04
  839.00      2.47400E-04
  841.00      2.46550E-04
  843.00      2.45690E-04
  845.00      2.44770E-04
  847.00      2.44020E-04
  849.00      2.43270E-04
  851.00      2.42410E-04
  853.00      2.41810E-04
  855.00      2.40620E-04
  857.00      2.40610E-04
  859.00      2.39040E-04
  861.00      2.38390E-04
  863.00      2.38820E-04
  865.00      2.37620E-04
  867.00      2.34750E-04
  869.00      2.37000E-04
  871.00      2.36830E-04
  873.00      2.35640E-04
  875.00      2.30170E-04
  877.00      2.33660E-04
  879.00      2.34410E-04
  881.00      2.33690E-04
  883.00      2.32800E-04
  885.00      2.29260E-04
  887.00      2.23750E-04
  889.00      2.29510E-04
  891.00      2.29520E-04
  893.00      2.28400E-04
  895.00      2.27710E-04
  897.00      2.26780E-04
  899.00      2.24880E-04
  901.00      2.17250E-04
  903.00      2.20020E-04
  905.00      2.22750E-04
  907.00      2.21920E-04
  909.00      2.21260E-04
  911.00      2.20070E-04
  913.00      2.19550E-04
  915.00      2.18670E-04
  917.00      2.17740E-04
  919.00      2.16840E-04
  921.00      2.14290E-04
  923.00      2.05750E-04
  925.00      2.12450E-04
  927.00      2.13360E-04
  929.00      2.12650E-04
  931.00      2.11740E-04
  933.00      2.10970E-04
  935.00      2.07420E-04
  937.00      2.08600E-04
  939.00      2.08500E-04
  941.00      2.07690E-04
  943.00      2.06880E-04
  945.00      2.06070E-04
  947.00      2.05160E-04
  949.00      2.04470E-04
  951.00      2.03260E-04
  953.00      2.00700E-04
  955.00      1.92870E-04
  957.00      2.00080E-04
  959.00      2.00540E-04
  961.00      1.99760E-04
  963.00      1.98940E-04
  965.00      1.98270E-04
  967.00      1.97510E-04
  969.00      1.96760E-04
  971.00      1.95970E-04
  973.00      1.95270E-04
  975.00      1.94440E-04
  977.00      1.92870E-04
  979.00      1.93070E-04
  981.00      1.92340E-04
  983.00      1.91620E-04
  985.00      1.90900E-04
  987.00      1.90190E-04
  989.00      1.89470E-04
  991.00      1.88770E-04
  993.00      1.88070E-04
  995.00      1.87370E-04
  997.00      1.86670E-04
  999.00      1.85980E-04
  1002.5      1.82860E-04
  1007.5      1.80190E-04
  1012.5      1.79560E-04
  1017.5      1.79760E-04
  1022.5      1.78130E-04
  1027.5      1.76530E-04
  1032.5      1.74830E-04
  1037.5      1.73390E-04
  1042.5      1.71300E-04
  1047.5      1.70330E-04
  1052.5      1.68830E-04
  1057.5      1.67350E-04
  1062.5      1.65880E-04
  1067.5      1.64420E-04
  1072.5      1.63020E-04
  1077.5      1.61610E-04
  1082.5      1.59830E-04
  1087.5      1.58850E-04
  1092.5      1.53750E-04
  1097.5      1.55530E-04
  1102.5      1.54770E-04
  1107.5      1.53540E-04
  1112.5      1.52260E-04
  1117.5      1.51050E-04
  1122.5      1.49790E-04
  1127.5      1.48550E-04
  1132.5      1.47330E-04
  1137.5      1.46120E-04
  1142.5      1.44930E-04
  1147.5      1.43750E-04
  1152.5      1.42580E-04
  1157.5      1.41430E-04
  1162.5      1.39470E-04
  1167.5      1.38610E-04
  1172.5      1.38060E-04
  1177.5      1.36960E-04
  1182.5      1.35880E-04
  1187.5      1.34810E-04
  1192.5      1.33750E-04
  1197.5      1.32510E-04
  1202.5      1.31670E-04
  1207.5      1.30640E-04
  1212.5      1.29630E-04
  1217.5      1.28640E-04
  1222.5      1.27650E-04
  1227.5      1.26670E-04
  1232.5      1.25710E-04
  1237.5      1.24750E-04
  1242.5      1.23810E-04
  1247.5      1.22880E-04
  1252.5      1.21930E-04
  1257.5      1.21040E-04
  1262.5      1.20140E-04
  1267.5      1.19250E-04
  1272.5      1.18370E-04
  1277.5      1.17100E-04
  1282.5      1.13730E-04
  1287.5      1.15700E-04
  1292.5      1.14940E-04
  1297.5      1.14010E-04
  1302.5      1.13270E-04
  1307.5      1.12460E-04
  1312.5      1.11650E-04
  1317.5      1.10850E-04
  1322.5      1.10060E-04
  1327.5      1.09280E-04
  1332.5      1.08500E-04
  1337.5      1.07740E-04
  1342.5      1.06970E-04
  1347.5      1.06230E-04
  1352.5      1.05490E-04
  1357.5      1.04750E-04
  1362.5      1.04020E-04
  1367.5      1.03300E-04
  1372.5      1.02590E-04
  1377.5      1.01890E-04
  1382.5      1.01190E-04
  1387.5      1.00500E-04
  1392.5      9.98170E-05
  1397.5      9.91400E-05
