 Castelli and Kurucz 2004-2012 Atmosphere
 T     41000.     G    4.50000 [-4.0a] N(He)/Ntot=0.089 VTURB=2.0  L/H=1.25 NOV
 Wavelength  Eddington Hnu
   (nm)    (ergs/s/cm2/Hz/sr)
  9.0900      4.30500E-21
  9.3500      1.60330E-20
  9.6100      5.56170E-20
  9.7700      1.15710E-19
  9.9600      2.67850E-19
  10.200      7.39410E-19
  10.380      1.53540E-18
  10.560      3.10920E-18
  10.770      6.87190E-18
  11.040      1.82140E-17
  11.400      6.21150E-17
  11.780      2.08840E-16
  12.130      5.95780E-16
  12.480      1.60050E-15
  12.710      2.97220E-15
  12.840      4.17500E-15
  13.050      7.12290E-15
  13.240      1.13770E-14
  13.390      1.63080E-14
  13.660      3.05500E-14
  13.980      6.22400E-14
  14.330      1.30540E-13
  14.720      2.85440E-13
  15.100      5.87600E-13
  15.520      1.25050E-12
  15.880      2.31120E-12
  16.200      3.89640E-12
  16.600      7.26680E-12
  17.030      1.37230E-11
  17.340      2.12630E-11
  17.680      3.37410E-11
  18.020      5.25690E-11
  18.170      6.35690E-11
  18.610      1.08980E-10
  19.100      1.92600E-10
  19.390      2.65960E-10
  19.840      4.30230E-10
  20.180      6.09500E-10
  20.500      8.36550E-10
  21.050      1.40770E-09
  21.620      2.34320E-09
  21.980      3.18620E-09
  22.300      4.15000E-09
  22.680      5.62110E-09
  23.000      2.49930E-08
  23.400      7.88680E-08
  24.000      2.46540E-07
  24.650      3.98930E-06
  25.240      1.32350E-05
  25.680      7.00160E-06
  26.000      3.68030E-05
  26.400      5.65170E-05
  26.850      7.86070E-05
  27.350      9.86380E-05
  27.850      1.15030E-04
  28.400      1.30980E-04
  29.000      1.43520E-04
  29.600      1.14040E-04
  30.100      2.17050E-05
  30.800      6.74840E-05
  31.800      1.96850E-04
  32.800      2.35370E-04
  33.800      2.52420E-04
  34.800      2.77350E-04
  35.700      2.91100E-04
  36.600      3.07900E-04
  37.500      3.16290E-04
  38.500      3.26800E-04
  39.500      3.48730E-04
  40.500      3.65100E-04
  41.400      3.77270E-04
  42.200      3.84590E-04
  43.000      3.98160E-04
  44.100      4.15630E-04
  45.100      4.29300E-04
  46.000      4.40220E-04
  47.000      4.56610E-04
  48.000      4.75150E-04
  49.000      4.85820E-04
  50.000      5.10690E-04
  50.600      6.36710E-04
  51.200      8.51060E-04
  52.000      8.71370E-04
  53.000      9.09470E-04
  54.000      9.17410E-04
  55.000      9.44330E-04
  56.000      9.81000E-04
  57.000      1.00850E-03
  58.000      1.01720E-03
  59.000      1.05490E-03
  60.000      1.06800E-03
  61.000      1.08650E-03
  62.000      1.11930E-03
  63.000      1.14000E-03
  64.000      1.16960E-03
  65.000      1.18790E-03
  65.800      1.19530E-03
  66.500      1.22260E-03
  67.500      1.24810E-03
  68.500      1.26130E-03
  69.500      1.29130E-03
  70.500      1.29460E-03
  71.600      1.33560E-03
  72.600      1.35660E-03
  73.500      1.37490E-03
  74.500      1.39390E-03
  75.500      1.41220E-03
  76.500      1.42530E-03
  77.500      1.45230E-03
  78.500      1.46070E-03
  79.500      1.48010E-03
  80.500      1.50580E-03
  81.500      1.52410E-03
  82.500      1.54240E-03
  83.500      1.53890E-03
  84.500      1.57500E-03
  85.500      1.58700E-03
  86.500      1.60700E-03
  87.500      1.62200E-03
  88.500      1.63660E-03
  89.500      1.65070E-03
  90.500      1.65360E-03
  91.500      1.39090E-03
  92.500      2.45120E-03
  93.500      3.11590E-03
  94.500      3.87800E-03
  95.500      4.18080E-03
  96.500      4.67360E-03
  97.500      3.91430E-03
  98.500      4.69430E-03
  99.500      4.46100E-03
  100.50      4.67210E-03
  101.50      4.62980E-03
  102.50      3.81390E-03
  103.50      4.56810E-03
  104.50      4.57420E-03
  105.50      4.54930E-03
  106.50      4.51930E-03
  107.50      4.49560E-03
  108.50      4.27780E-03
  109.50      4.44690E-03
  110.50      4.42070E-03
  111.50      4.39390E-03
  112.50      4.34910E-03
  113.50      4.34210E-03
  114.50      4.31580E-03
  115.50      4.28750E-03
  116.50      4.26170E-03
  117.50      4.17860E-03
  118.50      4.20960E-03
  119.50      4.18260E-03
  120.50      4.14170E-03
  121.50      3.46650E-03
  122.50      4.08200E-03
  123.50      4.07030E-03
  124.50      4.04500E-03
  125.50      4.02750E-03
  126.50      4.00150E-03
  127.50      3.97530E-03
  128.50      3.94910E-03
  129.50      3.92300E-03
  130.50      3.89710E-03
  131.50      3.87130E-03
  132.50      3.84560E-03
  133.50      3.82030E-03
  134.50      3.79500E-03
  135.50      3.76990E-03
  136.50      3.74480E-03
  137.50      3.71780E-03
  138.50      3.69530E-03
  139.50      3.66290E-03
  140.50      3.64040E-03
  141.50      3.62240E-03
  142.50      3.59840E-03
  143.50      3.57470E-03
  144.20      3.55770E-03
  144.70      3.54590E-03
  145.50      3.52700E-03
  146.50      3.50360E-03
  147.50      3.48050E-03
  148.50      3.45740E-03
  149.50      3.43420E-03
  150.50      3.41130E-03
  151.20      3.39540E-03
  151.70      3.38410E-03
  152.50      3.36600E-03
  153.50      3.34350E-03
  154.50      3.28980E-03
  155.50      3.26990E-03
  156.50      3.27760E-03
  157.50      3.25600E-03
  158.50      3.23420E-03
  159.50      3.21280E-03
  160.50      3.19130E-03
  161.50      3.17020E-03
  162.50      3.14870E-03
  163.50      3.06440E-03
  164.50      2.93320E-03
  165.50      3.08750E-03
  166.50      3.06740E-03
  167.20      3.05320E-03
  167.70      3.04340E-03
  168.50      3.02740E-03
  169.50      3.00760E-03
  170.50      2.98790E-03
  171.50      2.96410E-03
  172.50      2.94860E-03
  173.50      2.92970E-03
  174.50      2.91060E-03
  175.50      2.89170E-03
  176.50      2.87310E-03
  177.50      2.85450E-03
  178.50      2.83620E-03
  179.50      2.81800E-03
  180.50      2.80000E-03
  181.50      2.78210E-03
  182.50      2.76440E-03
  183.50      2.74680E-03
  184.50      2.72950E-03
  185.50      2.71220E-03
  186.50      2.69500E-03
  187.50      2.67790E-03
  188.50      2.66090E-03
  189.50      2.64410E-03
  190.50      2.62740E-03
  191.50      2.61080E-03
  192.50      2.59440E-03
  193.50      2.57810E-03
  194.50      2.56200E-03
  195.50      2.54600E-03
  196.70      2.52700E-03
  197.60      2.51290E-03
  198.40      2.50050E-03
  199.50      2.48350E-03
  200.50      2.46810E-03
  201.50      2.45300E-03
  202.50      2.43790E-03
  203.50      2.42300E-03
  204.50      2.40830E-03
  205.50      1.88830E-03
  206.50      1.83530E-03
  207.40      1.88100E-03
  207.80      1.92810E-03
  208.50      2.06070E-03
  209.50      2.27390E-03
  210.50      2.32430E-03
  211.50      2.31780E-03
  212.50      2.30550E-03
  213.50      2.28730E-03
  214.50      2.27830E-03
  215.50      2.29950E-03
  216.50      2.23750E-03
  217.50      2.28760E-03
  218.50      2.20980E-03
  219.50      2.25920E-03
  220.50      2.24870E-03
  221.50      2.16930E-03
  222.50      2.22130E-03
  223.50      2.20890E-03
  224.50      2.19430E-03
  225.50      2.12070E-03
  226.50      2.16990E-03
  227.50      2.15710E-03
  228.50      2.14440E-03
  229.50      2.13050E-03
  230.50      2.06150E-03
  231.50      2.10550E-03
  232.50      2.09470E-03
  233.50      2.08250E-03
  234.50      2.07040E-03
  235.50      2.05840E-03
  236.50      2.04650E-03
  237.50      2.03460E-03
  238.50      1.96970E-03
  239.50      2.01090E-03
  240.50      1.99980E-03
  241.50      1.98840E-03
  242.50      1.97700E-03
  243.50      1.96580E-03
  244.50      1.95470E-03
  245.50      1.94370E-03
  246.50      1.93270E-03
  247.50      1.92180E-03
  248.50      1.91110E-03
  249.50      1.88820E-03
  250.50      1.88410E-03
  251.30      1.77500E-03
  251.80      1.87470E-03
  252.50      1.86870E-03
  253.50      1.85830E-03
  254.50      1.84810E-03
  255.50      1.83790E-03
  256.50      1.82770E-03
  257.50      1.81770E-03
  258.50      1.80780E-03
  259.50      1.79790E-03
  260.50      1.78870E-03
  261.50      1.77900E-03
  262.50      1.76930E-03
  263.50      1.75970E-03
  264.50      1.75020E-03
  265.50      1.74060E-03
  266.50      1.73100E-03
  267.50      1.72150E-03
  268.50      1.71290E-03
  269.50      1.70290E-03
  270.50      1.69460E-03
  271.50      1.68560E-03
  272.50      1.67530E-03
  273.50      1.62630E-03
  274.50      1.65890E-03
  275.50      1.65020E-03
  276.50      1.64000E-03
  277.50      1.63290E-03
  278.50      1.62440E-03
  279.50      1.61590E-03
  280.50      1.60760E-03
  281.50      1.59920E-03
  282.50      1.58930E-03
  283.50      1.58220E-03
  284.50      1.57460E-03
  285.50      1.56650E-03
  286.50      1.55850E-03
  287.50      1.55050E-03
  288.50      1.54260E-03
  289.50      1.53480E-03
  291.00      1.52310E-03
  293.00      1.50770E-03
  295.00      1.49110E-03
  297.00      1.47760E-03
  299.00      1.46290E-03
  301.00      1.44840E-03
  303.00      1.43410E-03
  305.00      1.42000E-03
  307.00      1.40610E-03
  309.00      1.39240E-03
  311.00      1.37890E-03
  313.00      1.36570E-03
  315.00      1.35260E-03
  317.00      1.33960E-03
  319.00      1.32420E-03
  321.00      1.29700E-03
  323.00      1.30180E-03
  325.00      1.28960E-03
  327.00      1.27760E-03
  329.00      1.26560E-03
  331.00      1.25400E-03
  333.00      1.24240E-03
  335.00      1.23070E-03
  337.00      1.21970E-03
  339.00      1.20860E-03
  341.00      1.19760E-03
  343.00      1.18750E-03
  345.00      1.17630E-03
  347.00      1.16620E-03
  349.00      1.15550E-03
  351.00      1.14510E-03
  353.00      1.13460E-03
  355.00      1.12450E-03
  357.00      1.11550E-03
  359.00      1.10450E-03
  361.00      1.09550E-03
  363.00      1.08510E-03
  364.00      1.06370E-03
  365.00      9.86330E-04
  367.00      9.79200E-04
  369.00      9.73850E-04
  371.00      9.73910E-04
  373.00      9.78270E-04
  375.00      9.91700E-04
  377.00      9.99440E-04
  379.00      1.01220E-03
  381.00      1.02430E-03
  383.00      9.80810E-04
  385.00      1.02150E-03
  387.00      1.02490E-03
  389.00      9.50960E-04
  391.00      1.01170E-03
  393.00      9.97910E-04
  395.00      9.96750E-04
  397.00      9.18740E-04
  399.00      9.79210E-04
  401.00      9.75140E-04
  403.00      9.49760E-04
  405.00      9.61030E-04
  407.00      9.52630E-04
  409.00      9.26970E-04
  411.00      8.80670E-04
  413.00      9.27990E-04
  415.00      9.21400E-04
  417.00      9.15340E-04
  419.00      9.05050E-04
  421.00      8.90150E-04
  423.00      8.93900E-04
  425.00      8.86880E-04
  427.00      8.79940E-04
  429.00      8.73060E-04
  431.00      8.65670E-04
  433.00      8.36850E-04
  435.00      8.08220E-04
  437.00      8.45250E-04
  439.00      8.36950E-04
  441.00      8.33450E-04
  443.00      8.26880E-04
  445.00      8.20850E-04
  447.00      8.07810E-04
  449.00      8.08520E-04
  451.00      8.02460E-04
  453.00      7.95580E-04
  455.00      7.79200E-04
  457.00      7.84670E-04
  459.00      7.78870E-04
  461.00      7.73140E-04
  463.00      7.67460E-04
  465.00      7.61840E-04
  467.00      7.55680E-04
  469.00      7.29370E-04
  471.00      7.43620E-04
  473.00      7.39990E-04
  475.00      7.34670E-04
  477.00      7.29410E-04
  479.00      7.24210E-04
  481.00      7.19060E-04
  483.00      7.13490E-04
  485.00      6.94960E-04
  487.00      6.64200E-04
  489.00      6.97820E-04
  491.00      6.94140E-04
  493.00      6.86050E-04
  495.00      6.84540E-04
  497.00      6.79810E-04
  499.00      6.75130E-04
  501.00      6.68820E-04
  503.00      6.65890E-04
  505.00      6.60920E-04
  507.00      6.56840E-04
  509.00      6.52390E-04
  511.00      6.47970E-04
  513.00      6.43610E-04
  515.00      6.39290E-04
  517.00      6.35010E-04
  519.00      6.30770E-04
  521.00      6.26570E-04
  523.00      6.22420E-04
  525.00      6.18310E-04
  527.00      6.14240E-04
  529.00      6.10200E-04
  531.00      6.06210E-04
  533.00      6.02260E-04
  535.00      5.98340E-04
  537.00      5.94460E-04
  539.00      5.90620E-04
  541.00      5.78010E-04
  543.00      5.83040E-04
  545.00      5.79320E-04
  547.00      5.75630E-04
  549.00      5.71970E-04
  551.00      5.68340E-04
  553.00      5.64750E-04
  555.00      5.61190E-04
  557.00      5.57670E-04
  559.00      5.54170E-04
  561.00      5.50710E-04
  563.00      5.47290E-04
  565.00      5.43890E-04
  567.00      5.40530E-04
  569.00      5.32010E-04
  571.00      5.05420E-04
  573.00      5.02540E-04
  575.00      4.99680E-04
  577.00      4.96910E-04
  579.00      4.94320E-04
  581.00      4.92100E-04
  583.00      4.90360E-04
  585.00      4.89210E-04
  587.00      4.85210E-04
  589.00      4.87480E-04
  591.00      4.87070E-04
  593.00      4.86900E-04
  595.00      4.87070E-04
  597.00      4.87260E-04
  599.00      4.87730E-04
  601.00      4.86370E-04
  603.00      4.84250E-04
  605.00      4.82750E-04
  607.00      4.79670E-04
  609.00      4.77430E-04
  611.00      4.74190E-04
  613.00      4.71460E-04
  615.00      4.69200E-04
  617.00      4.65290E-04
  619.00      4.63820E-04
  621.00      4.61180E-04
  623.00      4.57140E-04
  625.00      4.55650E-04
  627.00      4.53350E-04
  629.00      4.50780E-04
  631.00      4.46180E-04
  633.00      4.45640E-04
  635.00      4.43220E-04
  637.00      4.40740E-04
  639.00      4.38240E-04
  641.00      4.33230E-04
  643.00      4.33420E-04
  645.00      4.31020E-04
  647.00      4.28640E-04
  649.00      4.26280E-04
  651.00      4.23780E-04
  653.00      4.17900E-04
  655.00      4.14520E-04
  657.00      3.94140E-04
  659.00      4.14010E-04
  661.00      4.12520E-04
  663.00      4.10290E-04
  665.00      4.08100E-04
  667.00      4.04510E-04
  669.00      3.98970E-04
  671.00      4.01570E-04
  673.00      3.99430E-04
  675.00      3.97310E-04
  677.00      3.95200E-04
  679.00      3.93110E-04
  681.00      3.91030E-04
  683.00      3.88970E-04
  685.00      3.86930E-04
  687.00      3.84900E-04
  689.00      3.78810E-04
  691.00      3.80820E-04
  693.00      3.78920E-04
  695.00      3.76960E-04
  697.00      3.75010E-04
  699.00      3.73080E-04
  701.00      3.71160E-04
  703.00      3.69260E-04
  705.00      3.67370E-04
  707.00      3.63980E-04
  709.00      3.63640E-04
  711.00      3.61790E-04
  713.00      3.59960E-04
  715.00      3.58140E-04
  717.00      3.53630E-04
  719.00      3.53050E-04
  721.00      3.52770E-04
  723.00      3.51000E-04
  725.00      3.49250E-04
  727.00      3.47510E-04
  729.00      3.45190E-04
  731.00      3.44070E-04
  733.00      3.42370E-04
  735.00      3.40690E-04
  737.00      3.39010E-04
  739.00      3.37350E-04
  741.00      3.35700E-04
  743.00      3.34060E-04
  745.00      3.32440E-04
  747.00      3.30820E-04
  749.00      3.29220E-04
  751.00      3.27620E-04
  753.00      3.26050E-04
  755.00      3.24480E-04
  757.00      3.22920E-04
  759.00      3.17490E-04
  761.00      3.19680E-04
  763.00      3.18310E-04
  765.00      3.16800E-04
  767.00      3.15300E-04
  769.00      3.13810E-04
  771.00      3.12320E-04
  773.00      3.10850E-04
  775.00      3.09390E-04
  777.00      3.07940E-04
  779.00      3.06500E-04
  781.00      3.05060E-04
  783.00      3.03650E-04
  785.00      3.02270E-04
  787.00      3.00870E-04
  789.00      2.99480E-04
  791.00      2.98100E-04
  793.00      2.96730E-04
  795.00      2.95370E-04
  797.00      2.94010E-04
  799.00      2.92670E-04
  801.00      2.91330E-04
  803.00      2.90010E-04
  805.00      2.88690E-04
  807.00      2.87380E-04
  809.00      2.86080E-04
  811.00      2.84790E-04
  813.00      2.83510E-04
  815.00      2.82230E-04
  817.00      2.80970E-04
  819.00      2.78750E-04
  821.00      2.69660E-04
  823.00      2.67160E-04
  825.00      2.67110E-04
  827.00      2.66200E-04
  829.00      2.65150E-04
  831.00      2.64040E-04
  833.00      2.62920E-04
  835.00      2.61750E-04
  837.00      2.60740E-04
  839.00      2.59710E-04
  841.00      2.58740E-04
  843.00      2.57770E-04
  845.00      2.56700E-04
  847.00      2.55910E-04
  849.00      2.55080E-04
  851.00      2.54250E-04
  853.00      2.53470E-04
  855.00      2.52470E-04
  857.00      2.52140E-04
  859.00      2.50670E-04
  861.00      2.50100E-04
  863.00      2.50190E-04
  865.00      2.48900E-04
  867.00      2.46700E-04
  869.00      2.48170E-04
  871.00      2.48010E-04
  873.00      2.46600E-04
  875.00      2.42060E-04
  877.00      2.44580E-04
  879.00      2.45710E-04
  881.00      2.45280E-04
  883.00      2.44390E-04
  885.00      2.40100E-04
  887.00      2.35020E-04
  889.00      2.40760E-04
  891.00      2.41000E-04
  893.00      2.40130E-04
  895.00      2.39700E-04
  897.00      2.38330E-04
  899.00      2.35910E-04
  901.00      2.27460E-04
  903.00      2.30100E-04
  905.00      2.33800E-04
  907.00      2.33290E-04
  909.00      2.32810E-04
  911.00      2.31630E-04
  913.00      2.31090E-04
  915.00      2.30150E-04
  917.00      2.29100E-04
  919.00      2.27700E-04
  921.00      2.24280E-04
  923.00      2.14720E-04
  925.00      2.22150E-04
  927.00      2.23940E-04
  929.00      2.23740E-04
  931.00      2.22720E-04
  933.00      2.21810E-04
  935.00      2.17340E-04
  937.00      2.19420E-04
  939.00      2.19330E-04
  941.00      2.18460E-04
  943.00      2.17600E-04
  945.00      2.16740E-04
  947.00      2.15720E-04
  949.00      2.15040E-04
  951.00      2.13160E-04
  953.00      2.09620E-04
  955.00      2.00760E-04
  957.00      2.09240E-04
  959.00      2.10400E-04
  961.00      2.09980E-04
  963.00      2.09110E-04
  965.00      2.08440E-04
  967.00      2.07640E-04
  969.00      2.06840E-04
  971.00      2.05980E-04
  973.00      2.05260E-04
  975.00      2.04270E-04
  977.00      2.02760E-04
  979.00      2.02910E-04
  981.00      2.02140E-04
  983.00      2.01370E-04
  985.00      2.00610E-04
  987.00      1.99850E-04
  989.00      1.99100E-04
  991.00      1.98350E-04
  993.00      1.97600E-04
  995.00      1.96860E-04
  997.00      1.96120E-04
  999.00      1.95380E-04
  1002.5      1.91100E-04
  1007.5      1.88180E-04
  1012.5      1.88150E-04
  1017.5      1.88790E-04
  1022.5      1.87060E-04
  1027.5      1.85360E-04
  1032.5      1.83530E-04
  1037.5      1.82030E-04
  1042.5      1.79740E-04
  1047.5      1.78780E-04
  1052.5      1.77190E-04
  1057.5      1.75620E-04
  1062.5      1.74070E-04
  1067.5      1.72510E-04
  1072.5      1.71040E-04
  1077.5      1.69550E-04
  1082.5      1.67620E-04
  1087.5      1.66520E-04
  1092.5      1.60140E-04
  1097.5      1.62510E-04
  1102.5      1.62290E-04
  1107.5      1.61000E-04
  1112.5      1.59650E-04
  1117.5      1.58370E-04
  1122.5      1.57030E-04
  1127.5      1.55730E-04
  1132.5      1.54440E-04
  1137.5      1.53160E-04
  1142.5      1.51890E-04
  1147.5      1.50650E-04
  1152.5      1.49420E-04
  1157.5      1.48200E-04
  1162.5      1.45880E-04
  1167.5      1.45060E-04
  1172.5      1.44630E-04
  1177.5      1.43480E-04
  1182.5      1.42330E-04
  1187.5      1.41200E-04
  1192.5      1.40080E-04
  1197.5      1.38700E-04
  1202.5      1.37880E-04
  1207.5      1.36800E-04
  1212.5      1.35740E-04
  1217.5      1.34680E-04
  1222.5      1.33640E-04
  1227.5      1.32610E-04
  1232.5      1.31590E-04
  1237.5      1.30590E-04
  1242.5      1.29590E-04
  1247.5      1.28610E-04
  1252.5      1.27600E-04
  1257.5      1.26670E-04
  1262.5      1.25720E-04
  1267.5      1.24780E-04
  1272.5      1.23850E-04
  1277.5      1.22290E-04
  1282.5      1.18130E-04
  1287.5      1.20920E-04
  1292.5      1.20230E-04
  1297.5      1.19250E-04
  1302.5      1.18490E-04
  1307.5      1.17620E-04
  1312.5      1.16770E-04
  1317.5      1.15930E-04
  1322.5      1.15100E-04
  1327.5      1.14270E-04
  1332.5      1.13460E-04
  1337.5      1.12650E-04
  1342.5      1.11840E-04
  1347.5      1.11060E-04
  1352.5      1.10280E-04
  1357.5      1.09510E-04
  1362.5      1.08740E-04
  1367.5      1.07990E-04
  1372.5      1.07240E-04
  1377.5      1.06500E-04
  1382.5      1.05760E-04
  1387.5      1.05030E-04
  1392.5      1.04320E-04
  1397.5      1.03600E-04
