 Castelli and Kurucz 2004-2012 Atmosphere
 T     43000.     G    4.50000 [-4.0a] N(He)/Ntot=0.089 VTURB=2.0  L/H=1.25 NOV
 Wavelength  Eddington Hnu
   (nm)    (ergs/s/cm2/Hz/sr)
  9.0900      3.57350E-20
  9.3500      1.24090E-19
  9.6100      4.03330E-19
  9.7700      8.07780E-19
  9.9600      1.79070E-18
  10.200      4.69370E-18
  10.380      9.39220E-18
  10.560      1.83560E-17
  10.770      3.89990E-17
  11.040      9.84930E-17
  11.400      3.16270E-16
  11.780      1.00240E-15
  12.130      2.71860E-15
  12.480      6.96480E-15
  12.710      1.25580E-14
  12.840      1.73570E-14
  13.050      2.88700E-14
  13.240      4.51000E-14
  13.390      6.35540E-14
  13.660      1.15590E-13
  13.980      2.27730E-13
  14.330      4.61310E-13
  14.720      9.72400E-13
  15.100      1.93540E-12
  15.520      3.97640E-12
  15.880      7.14270E-12
  16.200      1.17530E-11
  16.600      2.12940E-11
  17.030      3.90430E-11
  17.340      5.92770E-11
  17.680      9.20760E-11
  18.020      1.40540E-10
  18.170      1.68460E-10
  18.610      2.81700E-10
  19.100      4.84910E-10
  19.390      6.59670E-10
  19.840      1.04360E-09
  20.180      1.45490E-09
  20.500      1.96770E-09
  21.050      3.23230E-09
  21.620      5.25510E-09
  21.980      7.04450E-09
  22.300      9.06370E-09
  22.680      1.21060E-08
  23.000      5.66220E-08
  23.400      1.84880E-07
  24.000      1.13330E-06
  24.650      1.85880E-05
  25.240      4.85540E-05
  25.680      2.48830E-05
  26.000      1.00210E-04
  26.400      1.37840E-04
  26.850      1.75250E-04
  27.350      2.07800E-04
  27.850      2.34530E-04
  28.400      2.58730E-04
  29.000      2.81300E-04
  29.600      2.39250E-04
  30.100      6.24610E-05
  30.800      1.45640E-04
  31.800      3.69060E-04
  32.800      4.27530E-04
  33.800      4.56730E-04
  34.800      4.96880E-04
  35.700      5.20000E-04
  36.600      5.49680E-04
  37.500      5.64880E-04
  38.500      5.80450E-04
  39.500      6.19180E-04
  40.500      6.47280E-04
  41.400      6.67170E-04
  42.200      6.78920E-04
  43.000      7.01730E-04
  44.100      7.28900E-04
  45.100      7.50040E-04
  46.000      7.64960E-04
  47.000      7.86580E-04
  48.000      8.14890E-04
  49.000      8.26870E-04
  50.000      8.62640E-04
  50.600      9.42050E-04
  51.200      1.13730E-03
  52.000      1.16020E-03
  53.000      1.20480E-03
  54.000      1.21290E-03
  55.000      1.24210E-03
  56.000      1.28610E-03
  57.000      1.31820E-03
  58.000      1.32740E-03
  59.000      1.37110E-03
  60.000      1.38440E-03
  61.000      1.40300E-03
  62.000      1.43920E-03
  63.000      1.46090E-03
  64.000      1.49720E-03
  65.000      1.51660E-03
  65.800      1.52290E-03
  66.500      1.55550E-03
  67.500      1.58200E-03
  68.500      1.59670E-03
  69.500      1.62820E-03
  70.500      1.62920E-03
  71.600      1.67480E-03
  72.600      1.69660E-03
  73.500      1.71570E-03
  74.500      1.73570E-03
  75.500      1.75460E-03
  76.500      1.76650E-03
  77.500      1.79600E-03
  78.500      1.80090E-03
  79.500      1.82030E-03
  80.500      1.85000E-03
  81.500      1.86810E-03
  82.500      1.88650E-03
  83.500      1.88080E-03
  84.500      1.91870E-03
  85.500      1.92840E-03
  86.500      1.94980E-03
  87.500      1.96460E-03
  88.500      1.97870E-03
  89.500      1.99230E-03
  90.500      1.99120E-03
  91.500      1.64050E-03
  92.500      2.82610E-03
  93.500      3.53350E-03
  94.500      4.30810E-03
  95.500      4.61920E-03
  96.500      5.10590E-03
  97.500      4.34390E-03
  98.500      5.11400E-03
  99.500      4.87510E-03
  100.50      5.08050E-03
  101.50      5.03760E-03
  102.50      4.22480E-03
  103.50      4.96950E-03
  104.50      4.96930E-03
  105.50      4.94070E-03
  106.50      4.90800E-03
  107.50      4.88070E-03
  108.50      4.65630E-03
  109.50      4.82340E-03
  110.50      4.79340E-03
  111.50      4.76340E-03
  112.50      4.71850E-03
  113.50      4.70500E-03
  114.50      4.67550E-03
  115.50      4.64450E-03
  116.50      4.61520E-03
  117.50      4.54670E-03
  118.50      4.55740E-03
  119.50      4.52720E-03
  120.50      4.48520E-03
  121.50      3.80960E-03
  122.50      4.41870E-03
  123.50      4.39770E-03
  124.50      4.37000E-03
  125.50      4.35070E-03
  126.50      4.32140E-03
  127.50      4.29230E-03
  128.50      4.26330E-03
  129.50      4.23450E-03
  130.50      4.20580E-03
  131.50      4.17730E-03
  132.50      4.14880E-03
  133.50      4.12080E-03
  134.50      4.09290E-03
  135.50      4.06500E-03
  136.50      4.03730E-03
  137.50      4.00660E-03
  138.50      3.98250E-03
  139.50      3.94960E-03
  140.50      3.92320E-03
  141.50      3.90160E-03
  142.50      3.87490E-03
  143.50      3.84840E-03
  144.20      3.82950E-03
  144.70      3.81650E-03
  145.50      3.79550E-03
  146.50      3.76950E-03
  147.50      3.74390E-03
  148.50      3.71850E-03
  149.50      3.69300E-03
  150.50      3.66790E-03
  151.20      3.65040E-03
  151.70      3.63790E-03
  152.50      3.61800E-03
  153.50      3.59320E-03
  154.50      3.53600E-03
  155.50      3.51370E-03
  156.50      3.52010E-03
  157.50      3.49620E-03
  158.50      3.47240E-03
  159.50      3.44890E-03
  160.50      3.42540E-03
  161.50      3.40240E-03
  162.50      3.37910E-03
  163.50      3.29190E-03
  164.50      3.15320E-03
  165.50      3.31140E-03
  166.50      3.28920E-03
  167.20      3.27350E-03
  167.70      3.26260E-03
  168.50      3.24500E-03
  169.50      3.22330E-03
  170.50      3.20170E-03
  171.50      3.17530E-03
  172.50      3.15870E-03
  173.50      3.13820E-03
  174.50      3.11730E-03
  175.50      3.09670E-03
  176.50      3.07630E-03
  177.50      3.05610E-03
  178.50      3.03610E-03
  179.50      3.01620E-03
  180.50      2.99650E-03
  181.50      2.97690E-03
  182.50      2.95750E-03
  183.50      2.93820E-03
  184.50      2.91910E-03
  185.50      2.90010E-03
  186.50      2.88130E-03
  187.50      2.86260E-03
  188.50      2.84410E-03
  189.50      2.82570E-03
  190.50      2.80750E-03
  191.50      2.78950E-03
  192.50      2.77160E-03
  193.50      2.75390E-03
  194.50      2.73640E-03
  195.50      2.71890E-03
  196.70      2.69820E-03
  197.60      2.68290E-03
  198.40      2.66930E-03
  199.50      2.65090E-03
  200.50      2.63420E-03
  201.50      2.61780E-03
  202.50      2.60140E-03
  203.50      2.58520E-03
  204.50      2.56910E-03
  205.50      2.01490E-03
  206.50      1.95880E-03
  207.40      2.00680E-03
  207.80      2.05640E-03
  208.50      2.19880E-03
  209.50      2.42540E-03
  210.50      2.47700E-03
  211.50      2.46990E-03
  212.50      2.45650E-03
  213.50      2.43680E-03
  214.50      2.42700E-03
  215.50      2.45010E-03
  216.50      2.38330E-03
  217.50      2.43670E-03
  218.50      2.35360E-03
  219.50      2.40620E-03
  220.50      2.39470E-03
  221.50      2.31000E-03
  222.50      2.36550E-03
  223.50      2.35170E-03
  224.50      2.33590E-03
  225.50      2.25740E-03
  226.50      2.30950E-03
  227.50      2.29570E-03
  228.50      2.28200E-03
  229.50      2.26750E-03
  230.50      2.19350E-03
  231.50      2.24000E-03
  232.50      2.22830E-03
  233.50      2.21510E-03
  234.50      2.20200E-03
  235.50      2.18910E-03
  236.50      2.17630E-03
  237.50      2.16350E-03
  238.50      2.09450E-03
  239.50      2.13800E-03
  240.50      2.12600E-03
  241.50      2.11370E-03
  242.50      2.10160E-03
  243.50      2.08940E-03
  244.50      2.07740E-03
  245.50      2.06550E-03
  246.50      2.05370E-03
  247.50      2.04200E-03
  248.50      2.03040E-03
  249.50      2.00700E-03
  250.50      2.00150E-03
  251.30      1.88550E-03
  251.80      1.99140E-03
  252.50      1.98490E-03
  253.50      1.97370E-03
  254.50      1.96270E-03
  255.50      1.95170E-03
  256.50      1.94080E-03
  257.50      1.93010E-03
  258.50      1.91940E-03
  259.50      1.90870E-03
  260.50      1.89860E-03
  261.50      1.88810E-03
  262.50      1.87770E-03
  263.50      1.86740E-03
  264.50      1.85720E-03
  265.50      1.84700E-03
  266.50      1.83680E-03
  267.50      1.82660E-03
  268.50      1.81700E-03
  269.50      1.80670E-03
  270.50      1.79750E-03
  271.50      1.78780E-03
  272.50      1.77730E-03
  273.50      1.72440E-03
  274.50      1.75920E-03
  275.50      1.74980E-03
  276.50      1.73960E-03
  277.50      1.73130E-03
  278.50      1.72220E-03
  279.50      1.71310E-03
  280.50      1.70410E-03
  281.50      1.69520E-03
  282.50      1.68530E-03
  283.50      1.67720E-03
  284.50      1.66880E-03
  285.50      1.66010E-03
  286.50      1.65150E-03
  287.50      1.64290E-03
  288.50      1.63450E-03
  289.50      1.62600E-03
  291.00      1.61350E-03
  293.00      1.59700E-03
  295.00      1.57990E-03
  297.00      1.56480E-03
  299.00      1.54910E-03
  301.00      1.53350E-03
  303.00      1.51820E-03
  305.00      1.50320E-03
  307.00      1.48830E-03
  309.00      1.47370E-03
  311.00      1.45920E-03
  313.00      1.44510E-03
  315.00      1.43110E-03
  317.00      1.41720E-03
  319.00      1.40170E-03
  321.00      1.37160E-03
  323.00      1.37690E-03
  325.00      1.36380E-03
  327.00      1.35100E-03
  329.00      1.33820E-03
  331.00      1.32580E-03
  333.00      1.31340E-03
  335.00      1.30100E-03
  337.00      1.28920E-03
  339.00      1.27730E-03
  341.00      1.26560E-03
  343.00      1.25450E-03
  345.00      1.24280E-03
  347.00      1.23180E-03
  349.00      1.22060E-03
  351.00      1.20950E-03
  353.00      1.19860E-03
  355.00      1.18780E-03
  357.00      1.17780E-03
  359.00      1.16660E-03
  361.00      1.15680E-03
  363.00      1.14610E-03
  364.00      1.12180E-03
  365.00      1.03700E-03
  367.00      1.02940E-03
  369.00      1.02390E-03
  371.00      1.02490E-03
  373.00      1.03040E-03
  375.00      1.04510E-03
  377.00      1.05470E-03
  379.00      1.06700E-03
  381.00      1.07810E-03
  383.00      1.03630E-03
  385.00      1.07330E-03
  387.00      1.07620E-03
  389.00      1.00390E-03
  391.00      1.06180E-03
  393.00      1.04690E-03
  395.00      1.04590E-03
  397.00      9.69910E-04
  399.00      1.02780E-03
  401.00      1.02330E-03
  403.00      9.97620E-04
  405.00      1.00780E-03
  407.00      9.99150E-04
  409.00      9.73730E-04
  411.00      9.27860E-04
  413.00      9.73690E-04
  415.00      9.66550E-04
  417.00      9.59710E-04
  419.00      9.48620E-04
  421.00      9.32830E-04
  423.00      9.37060E-04
  425.00      9.29660E-04
  427.00      9.22330E-04
  429.00      9.15090E-04
  431.00      9.07380E-04
  433.00      8.78990E-04
  435.00      8.50610E-04
  437.00      8.86080E-04
  439.00      8.78270E-04
  441.00      8.73390E-04
  443.00      8.66590E-04
  445.00      8.60130E-04
  447.00      8.48170E-04
  449.00      8.47150E-04
  451.00      8.40760E-04
  453.00      8.33500E-04
  455.00      8.16210E-04
  457.00      8.22030E-04
  459.00      8.15930E-04
  461.00      8.09890E-04
  463.00      8.03920E-04
  465.00      7.98010E-04
  467.00      7.91520E-04
  469.00      7.63880E-04
  471.00      7.79500E-04
  473.00      7.75030E-04
  475.00      7.69440E-04
  477.00      7.63920E-04
  479.00      7.58440E-04
  481.00      7.53030E-04
  483.00      7.47360E-04
  485.00      7.29120E-04
  487.00      6.98450E-04
  489.00      7.30950E-04
  491.00      7.26830E-04
  493.00      7.19330E-04
  495.00      7.16730E-04
  497.00      7.11760E-04
  499.00      7.06830E-04
  501.00      7.00700E-04
  503.00      6.97120E-04
  505.00      6.92080E-04
  507.00      6.87610E-04
  509.00      6.82930E-04
  511.00      6.78300E-04
  513.00      6.73710E-04
  515.00      6.69170E-04
  517.00      6.64670E-04
  519.00      6.60220E-04
  521.00      6.55820E-04
  523.00      6.51450E-04
  525.00      6.47130E-04
  527.00      6.42860E-04
  529.00      6.38620E-04
  531.00      6.34430E-04
  533.00      6.30270E-04
  535.00      6.26160E-04
  537.00      6.22090E-04
  539.00      6.18050E-04
  541.00      6.04700E-04
  543.00      6.10090E-04
  545.00      6.06190E-04
  547.00      6.02310E-04
  549.00      5.98470E-04
  551.00      5.94660E-04
  553.00      5.90890E-04
  555.00      5.87150E-04
  557.00      5.83450E-04
  559.00      5.79790E-04
  561.00      5.76150E-04
  563.00      5.72560E-04
  565.00      5.68990E-04
  567.00      5.65460E-04
  569.00      5.56250E-04
  571.00      5.27170E-04
  573.00      5.24150E-04
  575.00      5.21160E-04
  577.00      5.18270E-04
  579.00      5.15600E-04
  581.00      5.13350E-04
  583.00      5.11640E-04
  585.00      5.10490E-04
  587.00      5.07090E-04
  589.00      5.08860E-04
  591.00      5.08510E-04
  593.00      5.08490E-04
  595.00      5.08880E-04
  597.00      5.09250E-04
  599.00      5.09980E-04
  601.00      5.08510E-04
  603.00      5.06390E-04
  605.00      5.04920E-04
  607.00      5.01520E-04
  609.00      4.99190E-04
  611.00      4.95800E-04
  613.00      4.93020E-04
  615.00      4.90730E-04
  617.00      4.86370E-04
  619.00      4.85080E-04
  621.00      4.82310E-04
  623.00      4.77800E-04
  625.00      4.76480E-04
  627.00      4.74100E-04
  629.00      4.71410E-04
  631.00      4.66310E-04
  633.00      4.66000E-04
  635.00      4.63480E-04
  637.00      4.60880E-04
  639.00      4.58210E-04
  641.00      4.52610E-04
  643.00      4.53200E-04
  645.00      4.50700E-04
  647.00      4.48200E-04
  649.00      4.45730E-04
  651.00      4.43100E-04
  653.00      4.36660E-04
  655.00      4.33840E-04
  657.00      4.13410E-04
  659.00      4.33030E-04
  661.00      4.31300E-04
  663.00      4.28970E-04
  665.00      4.26660E-04
  667.00      4.23100E-04
  669.00      4.17000E-04
  671.00      4.19810E-04
  673.00      4.17570E-04
  675.00      4.15350E-04
  677.00      4.13140E-04
  679.00      4.10950E-04
  681.00      4.08770E-04
  683.00      4.06610E-04
  685.00      4.04470E-04
  687.00      4.02340E-04
  689.00      3.95620E-04
  691.00      3.98000E-04
  693.00      3.96080E-04
  695.00      3.94020E-04
  697.00      3.91980E-04
  699.00      3.89960E-04
  701.00      3.87950E-04
  703.00      3.85950E-04
  705.00      3.83980E-04
  707.00      3.80790E-04
  709.00      3.80060E-04
  711.00      3.78130E-04
  713.00      3.76210E-04
  715.00      3.74310E-04
  717.00      3.69360E-04
  719.00      3.68860E-04
  721.00      3.68680E-04
  723.00      3.66830E-04
  725.00      3.65000E-04
  727.00      3.63180E-04
  729.00      3.60940E-04
  731.00      3.59570E-04
  733.00      3.57790E-04
  735.00      3.56030E-04
  737.00      3.54270E-04
  739.00      3.52530E-04
  741.00      3.50800E-04
  743.00      3.49080E-04
  745.00      3.47380E-04
  747.00      3.45690E-04
  749.00      3.44010E-04
  751.00      3.42340E-04
  753.00      3.40690E-04
  755.00      3.39050E-04
  757.00      3.37420E-04
  759.00      3.31520E-04
  761.00      3.33960E-04
  763.00      3.32600E-04
  765.00      3.31010E-04
  767.00      3.29440E-04
  769.00      3.27880E-04
  771.00      3.26330E-04
  773.00      3.24790E-04
  775.00      3.23260E-04
  777.00      3.21740E-04
  779.00      3.20230E-04
  781.00      3.18730E-04
  783.00      3.17250E-04
  785.00      3.15790E-04
  787.00      3.14320E-04
  789.00      3.12870E-04
  791.00      3.11420E-04
  793.00      3.09980E-04
  795.00      3.08560E-04
  797.00      3.07140E-04
  799.00      3.05740E-04
  801.00      3.04340E-04
  803.00      3.02950E-04
  805.00      3.01570E-04
  807.00      3.00200E-04
  809.00      2.98840E-04
  811.00      2.97490E-04
  813.00      2.96150E-04
  815.00      2.94820E-04
  817.00      2.93490E-04
  819.00      2.91120E-04
  821.00      2.80970E-04
  823.00      2.78380E-04
  825.00      2.78300E-04
  827.00      2.77370E-04
  829.00      2.76240E-04
  831.00      2.75080E-04
  833.00      2.73920E-04
  835.00      2.72740E-04
  837.00      2.71660E-04
  839.00      2.70580E-04
  841.00      2.69590E-04
  843.00      2.68610E-04
  845.00      2.67570E-04
  847.00      2.66710E-04
  849.00      2.65890E-04
  851.00      2.65020E-04
  853.00      2.64270E-04
  855.00      2.63250E-04
  857.00      2.62860E-04
  859.00      2.61560E-04
  861.00      2.60890E-04
  863.00      2.60870E-04
  865.00      2.59730E-04
  867.00      2.57650E-04
  869.00      2.58880E-04
  871.00      2.58650E-04
  873.00      2.57440E-04
  875.00      2.53180E-04
  877.00      2.55510E-04
  879.00      2.56370E-04
  881.00      2.55910E-04
  883.00      2.55060E-04
  885.00      2.51080E-04
  887.00      2.46080E-04
  889.00      2.51360E-04
  891.00      2.51460E-04
  893.00      2.50520E-04
  895.00      2.50110E-04
  897.00      2.48740E-04
  899.00      2.46360E-04
  901.00      2.38220E-04
  903.00      2.40670E-04
  905.00      2.44010E-04
  907.00      2.43550E-04
  909.00      2.42910E-04
  911.00      2.41540E-04
  913.00      2.41040E-04
  915.00      2.40060E-04
  917.00      2.39030E-04
  919.00      2.37660E-04
  921.00      2.34410E-04
  923.00      2.25000E-04
  925.00      2.32120E-04
  927.00      2.33740E-04
  929.00      2.33370E-04
  931.00      2.32370E-04
  933.00      2.31340E-04
  935.00      2.26560E-04
  937.00      2.28750E-04
  939.00      2.28760E-04
  941.00      2.27860E-04
  943.00      2.26960E-04
  945.00      2.26060E-04
  947.00      2.25060E-04
  949.00      2.24280E-04
  951.00      2.22600E-04
  953.00      2.19160E-04
  955.00      2.10320E-04
  957.00      2.18540E-04
  959.00      2.19540E-04
  961.00      2.19050E-04
  963.00      2.18160E-04
  965.00      2.17400E-04
  967.00      2.16560E-04
  969.00      2.15720E-04
  971.00      2.14850E-04
  973.00      2.14070E-04
  975.00      2.13010E-04
  977.00      2.11270E-04
  979.00      2.11620E-04
  981.00      2.10820E-04
  983.00      2.10010E-04
  985.00      2.09220E-04
  987.00      2.08430E-04
  989.00      2.07640E-04
  991.00      2.06850E-04
  993.00      2.06070E-04
  995.00      2.05300E-04
  997.00      2.04530E-04
  999.00      2.03760E-04
  1002.5      1.99660E-04
  1007.5      1.96590E-04
  1012.5      1.96170E-04
  1017.5      1.96880E-04
  1022.5      1.95070E-04
  1027.5      1.93300E-04
  1032.5      1.91440E-04
  1037.5      1.89820E-04
  1042.5      1.87310E-04
  1047.5      1.86430E-04
  1052.5      1.84770E-04
  1057.5      1.83130E-04
  1062.5      1.81520E-04
  1067.5      1.79900E-04
  1072.5      1.78350E-04
  1077.5      1.76790E-04
  1082.5      1.74880E-04
  1087.5      1.73670E-04
  1092.5      1.67400E-04
  1097.5      1.69630E-04
  1102.5      1.69250E-04
  1107.5      1.67880E-04
  1112.5      1.66460E-04
  1117.5      1.65130E-04
  1122.5      1.63740E-04
  1127.5      1.62380E-04
  1132.5      1.61030E-04
  1137.5      1.59700E-04
  1142.5      1.58380E-04
  1147.5      1.57080E-04
  1152.5      1.55790E-04
  1157.5      1.54520E-04
  1162.5      1.52040E-04
  1167.5      1.51140E-04
  1172.5      1.50800E-04
  1177.5      1.49590E-04
  1182.5      1.48400E-04
  1187.5      1.47210E-04
  1192.5      1.46050E-04
  1197.5      1.44710E-04
  1202.5      1.43750E-04
  1207.5      1.42630E-04
  1212.5      1.41510E-04
  1217.5      1.40410E-04
  1222.5      1.39330E-04
  1227.5      1.38250E-04
  1232.5      1.37190E-04
  1237.5      1.36140E-04
  1242.5      1.35100E-04
  1247.5      1.34070E-04
  1252.5      1.33040E-04
  1257.5      1.32060E-04
  1262.5      1.31060E-04
  1267.5      1.30080E-04
  1272.5      1.29110E-04
  1277.5      1.27620E-04
  1282.5      1.23390E-04
  1287.5      1.26080E-04
  1292.5      1.25340E-04
  1297.5      1.24350E-04
  1302.5      1.23510E-04
  1307.5      1.22610E-04
  1312.5      1.21720E-04
  1317.5      1.20840E-04
  1322.5      1.19970E-04
  1327.5      1.19110E-04
  1332.5      1.18260E-04
  1337.5      1.17420E-04
  1342.5      1.16580E-04
  1347.5      1.15760E-04
  1352.5      1.14950E-04
  1357.5      1.14140E-04
  1362.5      1.13340E-04
  1367.5      1.12550E-04
  1372.5      1.11770E-04
  1377.5      1.11000E-04
  1382.5      1.10230E-04
  1387.5      1.09470E-04
  1392.5      1.08720E-04
  1397.5      1.07980E-04
