 Castelli and Kurucz 2004-2012 Atmosphere
 T     46000.     G    4.50000 [-4.0a] N(He)/Ntot=0.089 VTURB=2.0  L/H=1.25 NOV
 Wavelength  Eddington Hnu
   (nm)    (ergs/s/cm2/Hz/sr)
  9.0900      5.88510E-19
  9.3500      1.86400E-18
  9.6100      5.55400E-18
  9.7700      1.05720E-17
  9.9600      2.21090E-17
  10.200      5.40190E-17
  10.380      1.02810E-16
  10.560      1.91460E-16
  10.770      3.85350E-16
  11.040      9.11100E-16
  11.400      2.69380E-15
  11.780      7.87630E-15
  12.130      1.99320E-14
  12.480      4.78650E-14
  12.710      8.28920E-14
  12.840      1.12070E-13
  13.050      1.80090E-13
  13.240      2.72980E-13
  13.390      3.75870E-13
  13.660      6.56680E-13
  13.980      1.23660E-12
  14.330      2.39020E-12
  14.720      4.79610E-12
  15.100      9.12420E-12
  15.520      1.78830E-11
  15.880      3.09190E-11
  16.200      4.92620E-11
  16.600      8.58920E-11
  17.030      1.51450E-10
  17.340      2.23860E-10
  17.680      3.38050E-10
  18.020      5.02220E-10
  18.170      5.94990E-10
  18.610      9.62970E-10
  19.100      1.60140E-09
  19.390      2.13640E-09
  19.840      3.28300E-09
  20.180      4.48140E-09
  20.500      5.94640E-09
  21.050      9.46660E-09
  21.620      1.49260E-08
  21.980      1.96420E-08
  22.300      2.48750E-08
  22.680      3.26220E-08
  23.000      1.59520E-07
  23.400      8.19190E-07
  24.000      1.40360E-05
  24.650      9.75800E-05
  25.240      1.88850E-04
  25.680      1.01260E-04
  26.000      2.87920E-04
  26.400      3.55770E-04
  26.850      4.11700E-04
  27.350      4.60890E-04
  27.850      5.03240E-04
  28.400      5.36830E-04
  29.000      5.78550E-04
  29.600      5.29390E-04
  30.100      2.09980E-04
  30.800      3.40700E-04
  31.800      7.17630E-04
  32.800      7.99560E-04
  33.800      8.47920E-04
  34.800      9.12270E-04
  35.700      9.48690E-04
  36.600      1.00100E-03
  37.500      1.02670E-03
  38.500      1.04610E-03
  39.500      1.11650E-03
  40.500      1.16560E-03
  41.400      1.19700E-03
  42.200      1.21400E-03
  43.000      1.25420E-03
  44.100      1.29790E-03
  45.100      1.33250E-03
  46.000      1.35220E-03
  47.000      1.37910E-03
  48.000      1.42420E-03
  49.000      1.43890E-03
  50.000      1.49370E-03
  50.600      1.50880E-03
  51.200      1.66320E-03
  52.000      1.68890E-03
  53.000      1.74440E-03
  54.000      1.74900E-03
  55.000      1.77890E-03
  56.000      1.83420E-03
  57.000      1.87380E-03
  58.000      1.88170E-03
  59.000      1.93210E-03
  60.000      1.94400E-03
  61.000      1.96090E-03
  62.000      2.00040E-03
  63.000      2.02170E-03
  64.000      2.06710E-03
  65.000      2.08520E-03
  65.800      2.08850E-03
  66.500      2.12850E-03
  67.500      2.15460E-03
  68.500      2.17010E-03
  69.500      2.20140E-03
  70.500      2.19640E-03
  71.600      2.24680E-03
  72.600      2.26870E-03
  73.500      2.28740E-03
  74.500      2.30670E-03
  75.500      2.32290E-03
  76.500      2.32970E-03
  77.500      2.36290E-03
  78.500      2.36080E-03
  79.500      2.37840E-03
  80.500      2.41270E-03
  81.500      2.42860E-03
  82.500      2.44500E-03
  83.500      2.43400E-03
  84.500      2.47290E-03
  85.500      2.47690E-03
  86.500      2.49950E-03
  87.500      2.51190E-03
  88.500      2.52330E-03
  89.500      2.53420E-03
  90.500      2.52540E-03
  91.500      2.03350E-03
  92.500      3.42480E-03
  93.500      4.18620E-03
  94.500      4.97110E-03
  95.500      5.29250E-03
  96.500      5.76420E-03
  97.500      4.99900E-03
  98.500      5.75520E-03
  99.500      5.50770E-03
  100.50      5.70180E-03
  101.50      5.65540E-03
  102.50      4.84940E-03
  103.50      5.57530E-03
  104.50      5.56750E-03
  105.50      5.53420E-03
  106.50      5.49760E-03
  107.50      5.46540E-03
  108.50      5.23630E-03
  109.50      5.39850E-03
  110.50      5.36400E-03
  111.50      5.32890E-03
  112.50      5.28220E-03
  113.50      5.25790E-03
  114.50      5.22220E-03
  115.50      5.18550E-03
  116.50      5.14990E-03
  117.50      5.09510E-03
  118.50      5.08080E-03
  119.50      5.04480E-03
  120.50      5.00060E-03
  121.50      4.32640E-03
  122.50      4.92580E-03
  123.50      4.89090E-03
  124.50      4.86030E-03
  125.50      4.83980E-03
  126.50      4.80630E-03
  127.50      4.77300E-03
  128.50      4.74020E-03
  129.50      4.70750E-03
  130.50      4.67420E-03
  131.50      4.64130E-03
  132.50      4.60840E-03
  133.50      4.57610E-03
  134.50      4.54380E-03
  135.50      4.51150E-03
  136.50      4.47880E-03
  137.50      4.44100E-03
  138.50      4.41500E-03
  139.50      4.37980E-03
  140.50      4.34830E-03
  141.50      4.32200E-03
  142.50      4.29170E-03
  143.50      4.26140E-03
  144.20      4.23940E-03
  144.70      4.22450E-03
  145.50      4.20040E-03
  146.50      4.17050E-03
  147.50      4.14110E-03
  148.50      4.11200E-03
  149.50      4.08280E-03
  150.50      4.05400E-03
  151.20      4.03400E-03
  151.70      4.01980E-03
  152.50      3.99720E-03
  153.50      3.96930E-03
  154.50      3.90720E-03
  155.50      3.88180E-03
  156.50      3.88670E-03
  157.50      3.85930E-03
  158.50      3.83210E-03
  159.50      3.80500E-03
  160.50      3.77800E-03
  161.50      3.75130E-03
  162.50      3.72470E-03
  163.50      3.63620E-03
  164.50      3.48810E-03
  165.50      3.64770E-03
  166.50      3.62260E-03
  167.20      3.60490E-03
  167.70      3.59260E-03
  168.50      3.57280E-03
  169.50      3.54830E-03
  170.50      3.52400E-03
  171.50      3.49400E-03
  172.50      3.47550E-03
  173.50      3.45240E-03
  174.50      3.42890E-03
  175.50      3.40560E-03
  176.50      3.38240E-03
  177.50      3.35930E-03
  178.50      3.33650E-03
  179.50      3.31380E-03
  180.50      3.29130E-03
  181.50      3.26910E-03
  182.50      3.24700E-03
  183.50      3.22530E-03
  184.50      3.20370E-03
  185.50      3.18230E-03
  186.50      3.16120E-03
  187.50      3.14010E-03
  188.50      3.11920E-03
  189.50      3.09850E-03
  190.50      3.07810E-03
  191.50      3.05780E-03
  192.50      3.03770E-03
  193.50      3.01790E-03
  194.50      2.99830E-03
  195.50      2.97890E-03
  196.70      2.95560E-03
  197.60      2.93830E-03
  198.40      2.92300E-03
  199.50      2.90220E-03
  200.50      2.88350E-03
  201.50      2.86480E-03
  202.50      2.84640E-03
  203.50      2.82810E-03
  204.50      2.81010E-03
  205.50      2.21500E-03
  206.50      2.15490E-03
  207.40      2.20550E-03
  207.80      2.25810E-03
  208.50      2.41180E-03
  209.50      2.65420E-03
  210.50      2.70540E-03
  211.50      2.69660E-03
  212.50      2.68140E-03
  213.50      2.65950E-03
  214.50      2.64810E-03
  215.50      2.67200E-03
  216.50      2.60020E-03
  217.50      2.65600E-03
  218.50      2.56710E-03
  219.50      2.62160E-03
  220.50      2.60860E-03
  221.50      2.51860E-03
  222.50      2.57590E-03
  223.50      2.56050E-03
  224.50      2.54350E-03
  225.50      2.45990E-03
  226.50      2.51360E-03
  227.50      2.49840E-03
  228.50      2.48310E-03
  229.50      2.46760E-03
  230.50      2.38860E-03
  231.50      2.43710E-03
  232.50      2.42370E-03
  233.50      2.40910E-03
  234.50      2.39470E-03
  235.50      2.38040E-03
  236.50      2.36610E-03
  237.50      2.35190E-03
  238.50      2.27830E-03
  239.50      2.32360E-03
  240.50      2.31020E-03
  241.50      2.29660E-03
  242.50      2.28310E-03
  243.50      2.26970E-03
  244.50      2.25640E-03
  245.50      2.24320E-03
  246.50      2.23020E-03
  247.50      2.21730E-03
  248.50      2.20450E-03
  249.50      2.18030E-03
  250.50      2.17290E-03
  251.30      2.04900E-03
  251.80      2.16150E-03
  252.50      2.15420E-03
  253.50      2.14190E-03
  254.50      2.12980E-03
  255.50      2.11770E-03
  256.50      2.10570E-03
  257.50      2.09380E-03
  258.50      2.08190E-03
  259.50      2.07010E-03
  260.50      2.05860E-03
  261.50      2.04700E-03
  262.50      2.03560E-03
  263.50      2.02420E-03
  264.50      2.01290E-03
  265.50      2.00170E-03
  266.50      1.99060E-03
  267.50      1.97950E-03
  268.50      1.96870E-03
  269.50      1.95770E-03
  270.50      1.94720E-03
  271.50      1.93650E-03
  272.50      1.92540E-03
  273.50      1.86830E-03
  274.50      1.90510E-03
  275.50      1.89480E-03
  276.50      1.88410E-03
  277.50      1.87440E-03
  278.50      1.86430E-03
  279.50      1.85430E-03
  280.50      1.84440E-03
  281.50      1.83450E-03
  282.50      1.82430E-03
  283.50      1.81490E-03
  284.50      1.80550E-03
  285.50      1.79590E-03
  286.50      1.78640E-03
  287.50      1.77700E-03
  288.50      1.76770E-03
  289.50      1.75840E-03
  291.00      1.74470E-03
  293.00      1.72660E-03
  295.00      1.70830E-03
  297.00      1.69120E-03
  299.00      1.67390E-03
  301.00      1.65690E-03
  303.00      1.64010E-03
  305.00      1.62360E-03
  307.00      1.60730E-03
  309.00      1.59120E-03
  311.00      1.57540E-03
  313.00      1.55990E-03
  315.00      1.54450E-03
  317.00      1.52940E-03
  319.00      1.51330E-03
  321.00      1.47970E-03
  323.00      1.48520E-03
  325.00      1.47080E-03
  327.00      1.45680E-03
  329.00      1.44280E-03
  331.00      1.42920E-03
  333.00      1.41570E-03
  335.00      1.40230E-03
  337.00      1.38920E-03
  339.00      1.37630E-03
  341.00      1.36350E-03
  343.00      1.35100E-03
  345.00      1.33840E-03
  347.00      1.32630E-03
  349.00      1.31420E-03
  351.00      1.30210E-03
  353.00      1.29030E-03
  355.00      1.27860E-03
  357.00      1.26740E-03
  359.00      1.25560E-03
  361.00      1.24470E-03
  363.00      1.23330E-03
  364.00      1.20600E-03
  365.00      1.11280E-03
  367.00      1.10440E-03
  369.00      1.09860E-03
  371.00      1.10000E-03
  373.00      1.10620E-03
  375.00      1.12230E-03
  377.00      1.13390E-03
  379.00      1.14570E-03
  381.00      1.15580E-03
  383.00      1.11470E-03
  385.00      1.14880E-03
  387.00      1.15100E-03
  389.00      1.07880E-03
  391.00      1.13480E-03
  393.00      1.11860E-03
  395.00      1.11760E-03
  397.00      1.04220E-03
  399.00      1.09830E-03
  401.00      1.09290E-03
  403.00      1.06710E-03
  405.00      1.07590E-03
  407.00      1.06690E-03
  409.00      1.04130E-03
  411.00      9.94760E-04
  413.00      1.03970E-03
  415.00      1.03200E-03
  417.00      1.02410E-03
  419.00      1.01240E-03
  421.00      9.95510E-04
  423.00      9.99710E-04
  425.00      9.91740E-04
  427.00      9.83870E-04
  429.00      9.76090E-04
  431.00      9.68030E-04
  433.00      9.39500E-04
  435.00      9.10630E-04
  437.00      9.45190E-04
  439.00      9.37530E-04
  441.00      9.31270E-04
  443.00      9.24030E-04
  445.00      9.17000E-04
  447.00      9.06150E-04
  449.00      9.03050E-04
  451.00      8.96190E-04
  453.00      8.88430E-04
  455.00      8.70060E-04
  457.00      8.76090E-04
  459.00      8.69540E-04
  461.00      8.63060E-04
  463.00      8.56650E-04
  465.00      8.50310E-04
  467.00      8.43370E-04
  469.00      8.14310E-04
  471.00      8.31020E-04
  473.00      8.25650E-04
  475.00      8.19660E-04
  477.00      8.13720E-04
  479.00      8.07860E-04
  481.00      8.02050E-04
  483.00      7.96000E-04
  485.00      7.77910E-04
  487.00      7.46520E-04
  489.00      7.78610E-04
  491.00      7.73920E-04
  493.00      7.66950E-04
  495.00      7.63090E-04
  497.00      7.57750E-04
  499.00      7.52470E-04
  501.00      7.46500E-04
  503.00      7.42070E-04
  505.00      7.36820E-04
  507.00      7.31880E-04
  509.00      7.26870E-04
  511.00      7.21900E-04
  513.00      7.16990E-04
  515.00      7.12120E-04
  517.00      7.07310E-04
  519.00      7.02540E-04
  521.00      6.97810E-04
  523.00      6.93140E-04
  525.00      6.88510E-04
  527.00      6.83930E-04
  529.00      6.79400E-04
  531.00      6.74910E-04
  533.00      6.70460E-04
  535.00      6.66050E-04
  537.00      6.61690E-04
  539.00      6.57370E-04
  541.00      6.43130E-04
  543.00      6.48840E-04
  545.00      6.44670E-04
  547.00      6.40510E-04
  549.00      6.36400E-04
  551.00      6.32330E-04
  553.00      6.28290E-04
  555.00      6.24290E-04
  557.00      6.20330E-04
  559.00      6.16410E-04
  561.00      6.12530E-04
  563.00      6.08680E-04
  565.00      6.04860E-04
  567.00      6.01090E-04
  569.00      5.91120E-04
  571.00      5.59570E-04
  573.00      5.56330E-04
  575.00      5.53140E-04
  577.00      5.50050E-04
  579.00      5.47240E-04
  581.00      5.44860E-04
  583.00      5.43080E-04
  585.00      5.41830E-04
  587.00      5.38910E-04
  589.00      5.40110E-04
  591.00      5.39740E-04
  593.00      5.39770E-04
  595.00      5.40280E-04
  597.00      5.40770E-04
  599.00      5.41780E-04
  601.00      5.40100E-04
  603.00      5.37960E-04
  605.00      5.36390E-04
  607.00      5.32600E-04
  609.00      5.30250E-04
  611.00      5.26590E-04
  613.00      5.23550E-04
  615.00      5.21230E-04
  617.00      5.16450E-04
  619.00      5.15120E-04
  621.00      5.12240E-04
  623.00      5.07280E-04
  625.00      5.05990E-04
  627.00      5.03480E-04
  629.00      5.00600E-04
  631.00      4.94970E-04
  633.00      4.94740E-04
  635.00      4.92140E-04
  637.00      4.89360E-04
  639.00      4.86500E-04
  641.00      4.80300E-04
  643.00      4.81160E-04
  645.00      4.78480E-04
  647.00      4.75820E-04
  649.00      4.73180E-04
  651.00      4.70370E-04
  653.00      4.63320E-04
  655.00      4.60940E-04
  657.00      4.39950E-04
  659.00      4.59780E-04
  661.00      4.57780E-04
  663.00      4.55290E-04
  665.00      4.52820E-04
  667.00      4.49270E-04
  669.00      4.42580E-04
  671.00      4.45520E-04
  673.00      4.43130E-04
  675.00      4.40760E-04
  677.00      4.38400E-04
  679.00      4.36060E-04
  681.00      4.33740E-04
  683.00      4.31440E-04
  685.00      4.29160E-04
  687.00      4.26890E-04
  689.00      4.19510E-04
  691.00      4.22250E-04
  693.00      4.20210E-04
  695.00      4.18020E-04
  697.00      4.15840E-04
  699.00      4.13680E-04
  701.00      4.11540E-04
  703.00      4.09410E-04
  705.00      4.07300E-04
  707.00      4.04370E-04
  709.00      4.03130E-04
  711.00      4.01070E-04
  713.00      3.99020E-04
  715.00      3.96990E-04
  717.00      3.91620E-04
  719.00      3.91110E-04
  721.00      3.90990E-04
  723.00      3.89030E-04
  725.00      3.87070E-04
  727.00      3.85130E-04
  729.00      3.82970E-04
  731.00      3.81290E-04
  733.00      3.79400E-04
  735.00      3.77510E-04
  737.00      3.75640E-04
  739.00      3.73790E-04
  741.00      3.71950E-04
  743.00      3.70120E-04
  745.00      3.68300E-04
  747.00      3.66500E-04
  749.00      3.64710E-04
  751.00      3.62940E-04
  753.00      3.61180E-04
  755.00      3.59430E-04
  757.00      3.57690E-04
  759.00      3.51280E-04
  761.00      3.53990E-04
  763.00      3.52550E-04
  765.00      3.50870E-04
  767.00      3.49190E-04
  769.00      3.47530E-04
  771.00      3.45880E-04
  773.00      3.44240E-04
  775.00      3.42610E-04
  777.00      3.40990E-04
  779.00      3.39390E-04
  781.00      3.37790E-04
  783.00      3.36210E-04
  785.00      3.34650E-04
  787.00      3.33090E-04
  789.00      3.31540E-04
  791.00      3.30000E-04
  793.00      3.28470E-04
  795.00      3.26950E-04
  797.00      3.25440E-04
  799.00      3.23950E-04
  801.00      3.22460E-04
  803.00      3.20980E-04
  805.00      3.19510E-04
  807.00      3.18060E-04
  809.00      3.16610E-04
  811.00      3.15170E-04
  813.00      3.13750E-04
  815.00      3.12330E-04
  817.00      3.10920E-04
  819.00      3.08360E-04
  821.00      2.97140E-04
  823.00      2.94420E-04
  825.00      2.94310E-04
  827.00      2.93330E-04
  829.00      2.92110E-04
  831.00      2.90870E-04
  833.00      2.89640E-04
  835.00      2.88420E-04
  837.00      2.87260E-04
  839.00      2.86120E-04
  841.00      2.85080E-04
  843.00      2.84050E-04
  845.00      2.83000E-04
  847.00      2.82060E-04
  849.00      2.81210E-04
  851.00      2.80290E-04
  853.00      2.79520E-04
  855.00      2.78450E-04
  857.00      2.78000E-04
  859.00      2.76780E-04
  861.00      2.76010E-04
  863.00      2.75900E-04
  865.00      2.74820E-04
  867.00      2.72780E-04
  869.00      2.73840E-04
  871.00      2.73550E-04
  873.00      2.72460E-04
  875.00      2.68330E-04
  877.00      2.70530E-04
  879.00      2.71200E-04
  881.00      2.70740E-04
  883.00      2.69910E-04
  885.00      2.66080E-04
  887.00      2.61050E-04
  889.00      2.66050E-04
  891.00      2.66030E-04
  893.00      2.65060E-04
  895.00      2.64550E-04
  897.00      2.63160E-04
  899.00      2.60810E-04
  901.00      2.52750E-04
  903.00      2.55070E-04
  905.00      2.58170E-04
  907.00      2.57810E-04
  909.00      2.56950E-04
  911.00      2.55410E-04
  913.00      2.54900E-04
  915.00      2.53870E-04
  917.00      2.52790E-04
  919.00      2.51410E-04
  921.00      2.48290E-04
  923.00      2.38770E-04
  925.00      2.45790E-04
  927.00      2.47270E-04
  929.00      2.46760E-04
  931.00      2.45740E-04
  933.00      2.44610E-04
  935.00      2.39480E-04
  937.00      2.41790E-04
  939.00      2.41850E-04
  941.00      2.40920E-04
  943.00      2.39960E-04
  945.00      2.39010E-04
  947.00      2.38020E-04
  949.00      2.37130E-04
  951.00      2.35570E-04
  953.00      2.32150E-04
  955.00      2.23110E-04
  957.00      2.31290E-04
  959.00      2.32220E-04
  961.00      2.31610E-04
  963.00      2.30670E-04
  965.00      2.29820E-04
  967.00      2.28930E-04
  969.00      2.28040E-04
  971.00      2.27150E-04
  973.00      2.26290E-04
  975.00      2.25150E-04
  977.00      2.23210E-04
  979.00      2.23690E-04
  981.00      2.22840E-04
  983.00      2.21990E-04
  985.00      2.21140E-04
  987.00      2.20300E-04
  989.00      2.19470E-04
  991.00      2.18640E-04
  993.00      2.17810E-04
  995.00      2.16990E-04
  997.00      2.16170E-04
  999.00      2.15360E-04
  1002.5      2.11290E-04
  1007.5      2.08060E-04
  1012.5      2.07350E-04
  1017.5      2.08060E-04
  1022.5      2.06150E-04
  1027.5      2.04270E-04
  1032.5      2.02350E-04
  1037.5      2.00580E-04
  1042.5      1.97860E-04
  1047.5      1.96980E-04
  1052.5      1.95230E-04
  1057.5      1.93490E-04
  1062.5      1.91780E-04
  1067.5      1.90080E-04
  1072.5      1.88420E-04
  1077.5      1.86770E-04
  1082.5      1.84870E-04
  1087.5      1.83500E-04
  1092.5      1.77190E-04
  1097.5      1.79310E-04
  1102.5      1.78830E-04
  1107.5      1.77320E-04
  1112.5      1.75820E-04
  1117.5      1.74430E-04
  1122.5      1.72960E-04
  1127.5      1.71510E-04
  1132.5      1.70080E-04
  1137.5      1.68660E-04
  1142.5      1.67270E-04
  1147.5      1.65890E-04
  1152.5      1.64530E-04
  1157.5      1.63180E-04
  1162.5      1.60520E-04
  1167.5      1.59550E-04
  1172.5      1.59240E-04
  1177.5      1.57960E-04
  1182.5      1.56690E-04
  1187.5      1.55440E-04
  1192.5      1.54210E-04
  1197.5      1.52890E-04
  1202.5      1.51780E-04
  1207.5      1.50580E-04
  1212.5      1.49410E-04
  1217.5      1.48240E-04
  1222.5      1.47090E-04
  1227.5      1.45950E-04
  1232.5      1.44830E-04
  1237.5      1.43710E-04
  1242.5      1.42610E-04
  1247.5      1.41530E-04
  1252.5      1.40440E-04
  1257.5      1.39390E-04
  1262.5      1.38340E-04
  1267.5      1.37300E-04
  1272.5      1.36270E-04
  1277.5      1.34810E-04
  1282.5      1.30440E-04
  1287.5      1.33110E-04
  1292.5      1.32280E-04
  1297.5      1.31270E-04
  1302.5      1.30340E-04
  1307.5      1.29390E-04
  1312.5      1.28450E-04
  1317.5      1.27520E-04
  1322.5      1.26600E-04
  1327.5      1.25690E-04
  1332.5      1.24790E-04
  1337.5      1.23900E-04
  1342.5      1.23020E-04
  1347.5      1.22150E-04
  1352.5      1.21290E-04
  1357.5      1.20430E-04
  1362.5      1.19590E-04
  1367.5      1.18750E-04
  1372.5      1.17930E-04
  1377.5      1.17110E-04
  1382.5      1.16300E-04
  1387.5      1.15500E-04
  1392.5      1.14700E-04
  1397.5      1.13920E-04
