 Castelli and Kurucz 2004-2012 Atmosphere
 T     39000.     G    4.50000 [-4.0a] N(He)/Ntot=0.089 VTURB=2.0  L/H=1.25 NOV
 Wavelength  Eddington Hnu
   (nm)    (ergs/s/cm2/Hz/sr)
  9.0900      2.86940E-22
  9.3500      1.16300E-21
  9.6100      4.36860E-21
  9.7700      9.52210E-21
  9.9600      2.32470E-20
  10.200      6.84290E-20
  10.380      1.48790E-19
  10.560      3.14980E-19
  10.770      7.31700E-19
  11.040      2.06140E-18
  11.400      7.58930E-18
  11.780      2.75150E-17
  12.130      8.37710E-17
  12.480      2.39250E-16
  12.710      4.61660E-16
  12.840      6.62250E-16
  13.050      1.16780E-15
  13.240      1.92020E-15
  13.390      2.81420E-15
  13.660      5.47970E-15
  13.980      1.16640E-14
  14.330      2.56070E-14
  14.720      5.87520E-14
  15.100      1.26440E-13
  15.520      2.81880E-13
  15.880      5.41070E-13
  16.200      9.41830E-13
  16.600      1.82490E-12
  17.030      3.58340E-12
  17.340      5.70340E-12
  17.680      9.31040E-12
  18.020      1.49060E-11
  18.170      1.82380E-11
  18.610      3.23140E-11
  19.100      5.91330E-11
  19.390      8.32820E-11
  19.840      1.38750E-10
  20.180      2.00810E-10
  20.500      2.81020E-10
  21.050      4.88150E-10
  21.620      8.38290E-10
  21.980      1.16150E-09
  22.300      1.53750E-09
  22.680      2.12160E-09
  23.000      8.50940E-09
  23.400      2.61280E-08
  24.000      7.09750E-08
  24.650      5.91580E-07
  25.240      2.29030E-06
  25.680      1.35090E-06
  26.000      9.08760E-06
  26.400      1.60690E-05
  26.850      2.51370E-05
  27.350      3.39820E-05
  27.850      4.13510E-05
  28.400      4.89540E-05
  29.000      5.39970E-05
  29.600      3.96090E-05
  30.100      5.63510E-06
  30.800      2.30550E-05
  31.800      7.78590E-05
  32.800      9.63670E-05
  33.800      1.03000E-04
  34.800      1.14320E-04
  35.700      1.20070E-04
  36.600      1.27070E-04
  37.500      1.30310E-04
  38.500      1.35730E-04
  39.500      1.44550E-04
  40.500      1.51650E-04
  41.400      1.57570E-04
  42.200      1.62040E-04
  43.000      1.68550E-04
  44.100      1.77890E-04
  45.100      1.86200E-04
  46.000      1.93460E-04
  47.000      2.04180E-04
  48.000      2.15250E-04
  49.000      2.24150E-04
  50.000      2.39010E-04
  50.600      3.86220E-04
  51.200      6.02210E-04
  52.000      6.18370E-04
  53.000      6.48840E-04
  54.000      6.54980E-04
  55.000      6.79210E-04
  56.000      7.07480E-04
  57.000      7.28800E-04
  58.000      7.35360E-04
  59.000      7.66960E-04
  60.000      7.78390E-04
  61.000      7.94390E-04
  62.000      8.21520E-04
  63.000      8.39660E-04
  64.000      8.62180E-04
  65.000      8.78080E-04
  65.800      8.85090E-04
  66.500      9.06170E-04
  67.500      9.28700E-04
  68.500      9.39450E-04
  69.500      9.65770E-04
  70.500      9.70110E-04
  71.600      1.00420E-03
  72.600      1.02250E-03
  73.500      1.03870E-03
  74.500      1.05520E-03
  75.500      1.07150E-03
  76.500      1.08420E-03
  77.500      1.10740E-03
  78.500      1.11780E-03
  79.500      1.13540E-03
  80.500      1.15560E-03
  81.500      1.17250E-03
  82.500      1.18950E-03
  83.500      1.18730E-03
  84.500      1.21980E-03
  85.500      1.23250E-03
  86.500      1.24960E-03
  87.500      1.26390E-03
  88.500      1.27780E-03
  89.500      1.29140E-03
  90.500      1.29720E-03
  91.500      1.12510E-03
  92.500      2.07830E-03
  93.500      2.70140E-03
  94.500      3.45430E-03
  95.500      3.74890E-03
  96.500      4.24590E-03
  97.500      3.48320E-03
  98.500      4.27860E-03
  99.500      4.05490E-03
  100.50      4.26750E-03
  101.50      4.22620E-03
  102.50      3.39910E-03
  103.50      4.17050E-03
  104.50      4.18410E-03
  105.50      4.16240E-03
  106.50      4.13420E-03
  107.50      4.11390E-03
  108.50      3.90480E-03
  109.50      4.07260E-03
  110.50      4.04920E-03
  111.50      4.02570E-03
  112.50      3.98020E-03
  113.50      3.98060E-03
  114.50      3.95760E-03
  115.50      3.93280E-03
  116.50      3.91060E-03
  117.50      3.80770E-03
  118.50      3.86430E-03
  119.50      3.84040E-03
  120.50      3.79880E-03
  121.50      3.11360E-03
  122.50      3.74350E-03
  123.50      3.74130E-03
  124.50      3.71770E-03
  125.50      3.70170E-03
  126.50      3.67880E-03
  127.50      3.65600E-03
  128.50      3.63320E-03
  129.50      3.61040E-03
  130.50      3.58780E-03
  131.50      3.56500E-03
  132.50      3.54200E-03
  133.50      3.51900E-03
  134.50      3.49630E-03
  135.50      3.47360E-03
  136.50      3.45110E-03
  137.50      3.42740E-03
  138.50      3.40650E-03
  139.50      3.37290E-03
  140.50      3.35460E-03
  141.50      3.34090E-03
  142.50      3.31930E-03
  143.50      3.29800E-03
  144.20      3.28280E-03
  144.70      3.27230E-03
  145.50      3.25540E-03
  146.50      3.23450E-03
  147.50      3.21380E-03
  148.50      3.19310E-03
  149.50      3.17240E-03
  150.50      3.15190E-03
  151.20      3.13770E-03
  151.70      3.12740E-03
  152.50      3.11110E-03
  153.50      3.09060E-03
  154.50      3.03980E-03
  155.50      3.02190E-03
  156.50      3.03080E-03
  157.50      3.01130E-03
  158.50      2.99190E-03
  159.50      2.97280E-03
  160.50      2.95340E-03
  161.50      2.93440E-03
  162.50      2.91470E-03
  163.50      2.83540E-03
  164.50      2.71080E-03
  165.50      2.85910E-03
  166.50      2.84090E-03
  167.20      2.82800E-03
  167.70      2.81920E-03
  168.50      2.80480E-03
  169.50      2.78690E-03
  170.50      2.76910E-03
  171.50      2.74780E-03
  172.50      2.73350E-03
  173.50      2.71650E-03
  174.50      2.69920E-03
  175.50      2.68200E-03
  176.50      2.66510E-03
  177.50      2.64820E-03
  178.50      2.63140E-03
  179.50      2.61480E-03
  180.50      2.59830E-03
  181.50      2.58200E-03
  182.50      2.56590E-03
  183.50      2.54990E-03
  184.50      2.53410E-03
  185.50      2.51840E-03
  186.50      2.50280E-03
  187.50      2.48740E-03
  188.50      2.47210E-03
  189.50      2.45700E-03
  190.50      2.44170E-03
  191.50      2.42650E-03
  192.50      2.41140E-03
  193.50      2.39660E-03
  194.50      2.38180E-03
  195.50      2.36720E-03
  196.70      2.34980E-03
  197.60      2.33690E-03
  198.40      2.32560E-03
  199.50      2.31010E-03
  200.50      2.29610E-03
  201.50      2.28220E-03
  202.50      2.26850E-03
  203.50      2.25480E-03
  204.50      2.24130E-03
  205.50      1.76360E-03
  206.50      1.71440E-03
  207.40      1.75670E-03
  207.80      1.80070E-03
  208.50      1.92020E-03
  209.50      2.11620E-03
  210.50      2.16490E-03
  211.50      2.15870E-03
  212.50      2.14720E-03
  213.50      2.13060E-03
  214.50      2.12200E-03
  215.50      2.13960E-03
  216.50      2.08430E-03
  217.50      2.12840E-03
  218.50      2.05840E-03
  219.50      2.10240E-03
  220.50      2.09270E-03
  221.50      2.02070E-03
  222.50      2.06760E-03
  223.50      2.05620E-03
  224.50      2.04270E-03
  225.50      1.97560E-03
  226.50      2.02030E-03
  227.50      2.00860E-03
  228.50      1.99690E-03
  229.50      1.98310E-03
  230.50      1.92090E-03
  231.50      1.96110E-03
  232.50      1.95110E-03
  233.50      1.93980E-03
  234.50      1.92870E-03
  235.50      1.91760E-03
  236.50      1.90670E-03
  237.50      1.89580E-03
  238.50      1.83640E-03
  239.50      1.87390E-03
  240.50      1.86370E-03
  241.50      1.85310E-03
  242.50      1.84270E-03
  243.50      1.83230E-03
  244.50      1.82210E-03
  245.50      1.81190E-03
  246.50      1.80180E-03
  247.50      1.79180E-03
  248.50      1.78180E-03
  249.50      1.75940E-03
  250.50      1.75710E-03
  251.30      1.65660E-03
  251.80      1.74830E-03
  252.50      1.74270E-03
  253.50      1.73320E-03
  254.50      1.72370E-03
  255.50      1.71430E-03
  256.50      1.70490E-03
  257.50      1.69570E-03
  258.50      1.68650E-03
  259.50      1.67730E-03
  260.50      1.66930E-03
  261.50      1.66030E-03
  262.50      1.65140E-03
  263.50      1.64250E-03
  264.50      1.63360E-03
  265.50      1.62460E-03
  266.50      1.61570E-03
  267.50      1.60680E-03
  268.50      1.59920E-03
  269.50      1.58940E-03
  270.50      1.58230E-03
  271.50      1.57400E-03
  272.50      1.56350E-03
  273.50      1.51960E-03
  274.50      1.54930E-03
  275.50      1.54130E-03
  276.50      1.53080E-03
  277.50      1.52530E-03
  278.50      1.51740E-03
  279.50      1.50960E-03
  280.50      1.50180E-03
  281.50      1.49410E-03
  282.50      1.48370E-03
  283.50      1.47790E-03
  284.50      1.47130E-03
  285.50      1.46390E-03
  286.50      1.45640E-03
  287.50      1.44900E-03
  288.50      1.44170E-03
  289.50      1.43430E-03
  291.00      1.42350E-03
  293.00      1.40920E-03
  295.00      1.39290E-03
  297.00      1.38130E-03
  299.00      1.36760E-03
  301.00      1.35410E-03
  303.00      1.34090E-03
  305.00      1.32780E-03
  307.00      1.31490E-03
  309.00      1.30220E-03
  311.00      1.28970E-03
  313.00      1.27760E-03
  315.00      1.26540E-03
  317.00      1.25340E-03
  319.00      1.23800E-03
  321.00      1.21420E-03
  323.00      1.21820E-03
  325.00      1.20670E-03
  327.00      1.19570E-03
  329.00      1.18440E-03
  331.00      1.17370E-03
  333.00      1.16300E-03
  335.00      1.15200E-03
  337.00      1.14190E-03
  339.00      1.13160E-03
  341.00      1.12140E-03
  343.00      1.11240E-03
  345.00      1.10160E-03
  347.00      1.09240E-03
  349.00      1.08220E-03
  351.00      1.07250E-03
  353.00      1.06270E-03
  355.00      1.05310E-03
  357.00      1.04530E-03
  359.00      1.03420E-03
  361.00      1.02630E-03
  363.00      1.01620E-03
  364.00      9.98680E-04
  365.00      9.31470E-04
  367.00      9.24910E-04
  369.00      9.19510E-04
  371.00      9.17860E-04
  373.00      9.20050E-04
  375.00      9.31400E-04
  377.00      9.36360E-04
  379.00      9.50270E-04
  381.00      9.64420E-04
  383.00      9.17060E-04
  385.00      9.64510E-04
  387.00      9.68540E-04
  389.00      8.89950E-04
  391.00      9.56930E-04
  393.00      9.44690E-04
  395.00      9.42900E-04
  397.00      8.59540E-04
  399.00      9.26100E-04
  401.00      9.22500E-04
  403.00      8.96780E-04
  405.00      9.09840E-04
  407.00      9.01820E-04
  409.00      8.74950E-04
  411.00      8.26370E-04
  413.00      8.77650E-04
  415.00      8.71710E-04
  417.00      8.66580E-04
  419.00      8.57140E-04
  421.00      8.43400E-04
  423.00      8.46430E-04
  425.00      8.39790E-04
  427.00      8.33230E-04
  429.00      8.26740E-04
  431.00      8.19510E-04
  433.00      7.89400E-04
  435.00      7.59390E-04
  437.00      8.00140E-04
  439.00      7.90890E-04
  441.00      7.89320E-04
  443.00      7.82930E-04
  445.00      7.77400E-04
  447.00      7.62690E-04
  449.00      7.65740E-04
  451.00      7.60010E-04
  453.00      7.53570E-04
  455.00      7.38380E-04
  457.00      7.43190E-04
  459.00      7.37710E-04
  461.00      7.32290E-04
  463.00      7.26930E-04
  465.00      7.21610E-04
  467.00      7.15840E-04
  469.00      6.91360E-04
  471.00      7.03630E-04
  473.00      7.00940E-04
  475.00      6.95920E-04
  477.00      6.90950E-04
  479.00      6.86020E-04
  481.00      6.81150E-04
  483.00      6.75670E-04
  485.00      6.56050E-04
  487.00      6.24100E-04
  489.00      6.60710E-04
  491.00      6.57570E-04
  493.00      6.48610E-04
  495.00      6.48500E-04
  497.00      6.44020E-04
  499.00      6.39580E-04
  501.00      6.32910E-04
  503.00      6.30840E-04
  505.00      6.25860E-04
  507.00      6.22270E-04
  509.00      6.18050E-04
  511.00      6.13880E-04
  513.00      6.09740E-04
  515.00      6.05650E-04
  517.00      6.01600E-04
  519.00      5.97590E-04
  521.00      5.93620E-04
  523.00      5.89680E-04
  525.00      5.85790E-04
  527.00      5.81940E-04
  529.00      5.78120E-04
  531.00      5.74340E-04
  533.00      5.70600E-04
  535.00      5.66900E-04
  537.00      5.63230E-04
  539.00      5.59590E-04
  541.00      5.48010E-04
  543.00      5.52410E-04
  545.00      5.48890E-04
  547.00      5.45390E-04
  549.00      5.41920E-04
  551.00      5.38490E-04
  553.00      5.35080E-04
  555.00      5.31710E-04
  557.00      5.28370E-04
  559.00      5.25070E-04
  561.00      5.21790E-04
  563.00      5.18550E-04
  565.00      5.15330E-04
  567.00      5.12140E-04
  569.00      5.04610E-04
  571.00      4.81730E-04
  573.00      4.78970E-04
  575.00      4.76240E-04
  577.00      4.73580E-04
  579.00      4.71050E-04
  581.00      4.68830E-04
  583.00      4.67010E-04
  585.00      4.65770E-04
  587.00      4.60700E-04
  589.00      4.63720E-04
  591.00      4.63140E-04
  593.00      4.62710E-04
  595.00      4.62480E-04
  597.00      4.62300E-04
  599.00      4.62330E-04
  601.00      4.61000E-04
  603.00      4.58970E-04
  605.00      4.57360E-04
  607.00      4.54680E-04
  609.00      4.52210E-04
  611.00      4.49300E-04
  613.00      4.46710E-04
  615.00      4.44410E-04
  617.00      4.41100E-04
  619.00      4.39320E-04
  621.00      4.36810E-04
  623.00      4.33340E-04
  625.00      4.31680E-04
  627.00      4.29390E-04
  629.00      4.26960E-04
  631.00      4.23080E-04
  633.00      4.22150E-04
  635.00      4.19790E-04
  637.00      4.17450E-04
  639.00      4.15100E-04
  641.00      4.10840E-04
  643.00      4.10510E-04
  645.00      4.08240E-04
  647.00      4.05990E-04
  649.00      4.03750E-04
  651.00      4.01450E-04
  653.00      3.96270E-04
  655.00      3.91870E-04
  657.00      3.70920E-04
  659.00      3.91910E-04
  661.00      3.90710E-04
  663.00      3.88600E-04
  665.00      3.86540E-04
  667.00      3.82860E-04
  669.00      3.78120E-04
  671.00      3.80360E-04
  673.00      3.78330E-04
  675.00      3.76320E-04
  677.00      3.74320E-04
  679.00      3.72340E-04
  681.00      3.70380E-04
  683.00      3.68430E-04
  685.00      3.66490E-04
  687.00      3.64570E-04
  689.00      3.59450E-04
  691.00      3.60750E-04
  693.00      3.58910E-04
  695.00      3.57050E-04
  697.00      3.55200E-04
  699.00      3.53370E-04
  701.00      3.51550E-04
  703.00      3.49750E-04
  705.00      3.47960E-04
  707.00      3.44240E-04
  709.00      3.44420E-04
  711.00      3.42670E-04
  713.00      3.40940E-04
  715.00      3.39210E-04
  717.00      3.35260E-04
  719.00      3.34640E-04
  721.00      3.34120E-04
  723.00      3.32450E-04
  725.00      3.30790E-04
  727.00      3.29140E-04
  729.00      3.26650E-04
  731.00      3.25880E-04
  733.00      3.24280E-04
  735.00      3.22680E-04
  737.00      3.21090E-04
  739.00      3.19510E-04
  741.00      3.17950E-04
  743.00      3.16400E-04
  745.00      3.14870E-04
  747.00      3.13340E-04
  749.00      3.11820E-04
  751.00      3.10300E-04
  753.00      3.08810E-04
  755.00      3.07330E-04
  757.00      3.05850E-04
  759.00      3.01130E-04
  761.00      3.02810E-04
  763.00      3.01480E-04
  765.00      3.00050E-04
  767.00      2.98630E-04
  769.00      2.97210E-04
  771.00      2.95810E-04
  773.00      2.94410E-04
  775.00      2.93030E-04
  777.00      2.91650E-04
  779.00      2.90290E-04
  781.00      2.88910E-04
  783.00      2.87590E-04
  785.00      2.86310E-04
  787.00      2.84980E-04
  789.00      2.83660E-04
  791.00      2.82350E-04
  793.00      2.81050E-04
  795.00      2.79760E-04
  797.00      2.78470E-04
  799.00      2.77200E-04
  801.00      2.75940E-04
  803.00      2.74680E-04
  805.00      2.73430E-04
  807.00      2.72190E-04
  809.00      2.70950E-04
  811.00      2.69730E-04
  813.00      2.68520E-04
  815.00      2.67310E-04
  817.00      2.66110E-04
  819.00      2.64110E-04
  821.00      2.56520E-04
  823.00      2.54120E-04
  825.00      2.54130E-04
  827.00      2.53190E-04
  829.00      2.52260E-04
  831.00      2.51210E-04
  833.00      2.50130E-04
  835.00      2.48920E-04
  837.00      2.48010E-04
  839.00      2.47030E-04
  841.00      2.46090E-04
  843.00      2.45130E-04
  845.00      2.43980E-04
  847.00      2.43310E-04
  849.00      2.42440E-04
  851.00      2.41650E-04
  853.00      2.40820E-04
  855.00      2.39820E-04
  857.00      2.39570E-04
  859.00      2.37770E-04
  861.00      2.37370E-04
  863.00      2.37650E-04
  865.00      2.36090E-04
  867.00      2.33590E-04
  869.00      2.35550E-04
  871.00      2.35500E-04
  873.00      2.33700E-04
  875.00      2.28510E-04
  877.00      2.31480E-04
  879.00      2.33120E-04
  881.00      2.32730E-04
  883.00      2.31740E-04
  885.00      2.26790E-04
  887.00      2.21400E-04
  889.00      2.28100E-04
  891.00      2.28610E-04
  893.00      2.27820E-04
  895.00      2.27340E-04
  897.00      2.26010E-04
  899.00      2.23400E-04
  901.00      2.14170E-04
  903.00      2.17220E-04
  905.00      2.21650E-04
  907.00      2.21080E-04
  909.00      2.20880E-04
  911.00      2.19930E-04
  913.00      2.19300E-04
  915.00      2.18410E-04
  917.00      2.17320E-04
  919.00      2.15920E-04
  921.00      2.12020E-04
  923.00      2.01900E-04
  925.00      2.10100E-04
  927.00      2.12360E-04
  929.00      2.12290E-04
  931.00      2.11280E-04
  933.00      2.10540E-04
  935.00      2.06490E-04
  937.00      2.08410E-04
  939.00      2.08130E-04
  941.00      2.07310E-04
  943.00      2.06490E-04
  945.00      2.05680E-04
  947.00      2.04590E-04
  949.00      2.04020E-04
  951.00      2.01940E-04
  953.00      1.98010E-04
  955.00      1.88770E-04
  957.00      1.98020E-04
  959.00      1.99460E-04
  961.00      1.99170E-04
  963.00      1.98330E-04
  965.00      1.97790E-04
  967.00      1.97030E-04
  969.00      1.96240E-04
  971.00      1.95400E-04
  973.00      1.94760E-04
  975.00      1.93890E-04
  977.00      1.92630E-04
  979.00      1.92530E-04
  981.00      1.91800E-04
  983.00      1.91070E-04
  985.00      1.90350E-04
  987.00      1.89630E-04
  989.00      1.88910E-04
  991.00      1.88200E-04
  993.00      1.87490E-04
  995.00      1.86780E-04
  997.00      1.86080E-04
  999.00      1.85380E-04
  1002.5      1.80730E-04
  1007.5      1.77900E-04
  1012.5      1.78590E-04
  1017.5      1.79120E-04
  1022.5      1.77470E-04
  1027.5      1.75860E-04
  1032.5      1.74040E-04
  1037.5      1.72690E-04
  1042.5      1.70660E-04
  1047.5      1.69610E-04
  1052.5      1.68100E-04
  1057.5      1.66610E-04
  1062.5      1.65140E-04
  1067.5      1.63630E-04
  1072.5      1.62250E-04
  1077.5      1.60840E-04
  1082.5      1.58880E-04
  1087.5      1.57920E-04
  1092.5      1.51160E-04
  1097.5      1.53850E-04
  1102.5      1.53860E-04
  1107.5      1.52710E-04
  1112.5      1.51440E-04
  1117.5      1.50210E-04
  1122.5      1.48930E-04
  1127.5      1.47700E-04
  1132.5      1.46470E-04
  1137.5      1.45260E-04
  1142.5      1.44060E-04
  1147.5      1.42870E-04
  1152.5      1.41700E-04
  1157.5      1.40550E-04
  1162.5      1.38470E-04
  1167.5      1.37690E-04
  1172.5      1.37170E-04
  1177.5      1.36070E-04
  1182.5      1.34980E-04
  1187.5      1.33900E-04
  1192.5      1.32840E-04
  1197.5      1.31390E-04
  1202.5      1.30760E-04
  1207.5      1.29730E-04
  1212.5      1.28720E-04
  1217.5      1.27720E-04
  1222.5      1.26730E-04
  1227.5      1.25750E-04
  1232.5      1.24790E-04
  1237.5      1.23830E-04
  1242.5      1.22890E-04
  1247.5      1.21950E-04
  1252.5      1.20970E-04
  1257.5      1.20120E-04
  1262.5      1.19220E-04
  1267.5      1.18320E-04
  1272.5      1.17440E-04
  1277.5      1.15760E-04
  1282.5      1.11550E-04
  1287.5      1.14580E-04
  1292.5      1.14010E-04
  1297.5      1.12990E-04
  1302.5      1.12350E-04
  1307.5      1.11530E-04
  1312.5      1.10720E-04
  1317.5      1.09930E-04
  1322.5      1.09140E-04
  1327.5      1.08350E-04
  1332.5      1.07580E-04
  1337.5      1.06820E-04
  1342.5      1.06040E-04
  1347.5      1.05310E-04
  1352.5      1.04570E-04
  1357.5      1.03830E-04
  1362.5      1.03110E-04
  1367.5      1.02390E-04
  1372.5      1.01680E-04
  1377.5      1.00970E-04
  1382.5      1.00280E-04
  1387.5      9.95890E-05
  1392.5      9.89070E-05
  1397.5      9.82320E-05
