 Castelli and Kurucz 2004-2012 Atmosphere
 T     34000.     G    5.00000 [-1.5] N(He)/Ntot=0.0784 VTURB=2  L/H=1.25 NOVER
 Wavelength  Eddington Hnu
   (nm)    (ergs/s/cm2/Hz/sr)
  9.0900      3.17940E-30
  9.3500      1.71010E-29
  9.6100      8.43490E-29
  9.7700      2.16410E-28
  9.9600      6.38280E-28
  10.200      2.37020E-27
  10.380      6.11360E-27
  10.560      1.52980E-26
  10.770      4.30090E-26
  11.040      1.53890E-25
  11.400      7.71400E-25
  11.780      3.83600E-24
  12.130      1.54800E-23
  12.480      5.80860E-23
  12.710      1.33460E-22
  12.840      2.10970E-22
  13.050      4.34200E-22
  13.240      8.19410E-22
  13.390      1.33690E-21
  13.660      3.15050E-21
  13.980      8.36900E-21
  14.330      2.32680E-20
  14.720      6.89720E-20
  15.100      1.89260E-19
  15.520      5.47810E-19
  15.880      1.30800E-18
  16.200      2.75370E-18
  16.600      6.72860E-18
  17.030      1.68380E-17
  17.340      3.17840E-17
  17.680      6.23010E-17
  18.020      1.19270E-16
  18.170      1.57710E-16
  18.610      3.49520E-16
  19.100      8.14270E-16
  19.390      1.31820E-15
  19.840      2.71090E-15
  20.180      4.58050E-15
  20.500      7.39110E-15
  21.050      1.62930E-14
  21.620      3.54780E-14
  21.980      5.68580E-14
  22.300      8.53980E-14
  22.680      1.36390E-13
  23.000      2.43040E-11
  23.400      1.60810E-10
  24.000      4.56930E-10
  24.650      1.05150E-09
  25.240      1.76300E-09
  25.680      1.52540E-09
  26.000      3.32270E-09
  26.400      4.88440E-09
  26.850      6.74330E-09
  27.350      8.45110E-09
  27.850      9.71440E-09
  28.400      1.53060E-08
  29.000      1.92060E-08
  29.600      2.17600E-08
  30.100      1.96180E-08
  30.800      2.93530E-08
  31.800      6.39930E-08
  32.800      8.82810E-08
  33.800      1.29380E-07
  34.800      1.82080E-07
  35.700      2.36620E-07
  36.600      3.22660E-07
  37.500      4.07590E-07
  38.500      5.50000E-07
  39.500      7.18450E-07
  40.500      9.17390E-07
  41.400      1.14900E-06
  42.200      1.35950E-06
  43.000      1.61300E-06
  44.100      2.04920E-06
  45.100      2.50840E-06
  46.000      2.94670E-06
  47.000      3.59070E-06
  48.000      4.28770E-06
  49.000      5.02040E-06
  50.000      6.01170E-06
  50.600      2.11200E-05
  51.200      7.88390E-05
  52.000      7.88610E-05
  53.000      8.27080E-05
  54.000      7.72040E-05
  55.000      8.78930E-05
  56.000      9.76350E-05
  57.000      1.02610E-04
  58.000      9.95730E-05
  59.000      1.08460E-04
  60.000      1.09430E-04
  61.000      1.14910E-04
  62.000      1.24800E-04
  63.000      1.29080E-04
  64.000      1.31320E-04
  65.000      1.37590E-04
  65.800      1.39110E-04
  66.500      1.43850E-04
  67.500      1.49730E-04
  68.500      1.48000E-04
  69.500      1.61820E-04
  70.500      1.61780E-04
  71.600      1.74470E-04
  72.600      1.79140E-04
  73.500      1.86410E-04
  74.500      1.90810E-04
  75.500      1.96240E-04
  76.500      2.01450E-04
  77.500      2.08260E-04
  78.500      2.17440E-04
  79.500      2.22630E-04
  80.500      2.27940E-04
  81.500      2.34690E-04
  82.500      2.43350E-04
  83.500      2.37780E-04
  84.500      2.55340E-04
  85.500      2.61680E-04
  86.500      2.70000E-04
  87.500      2.76870E-04
  88.500      2.83960E-04
  89.500      2.91150E-04
  90.500      2.95410E-04
  91.500      3.01790E-04
  92.500      7.70750E-04
  93.500      1.27910E-03
  94.500      2.17250E-03
  95.500      2.54380E-03
  96.500      3.27600E-03
  97.500      1.88850E-03
  98.500      3.37950E-03
  99.500      3.14190E-03
  100.50      3.38110E-03
  101.50      3.30700E-03
  102.50      1.96210E-03
  103.50      3.21840E-03
  104.50      3.47030E-03
  105.50      3.45530E-03
  106.50      3.29930E-03
  107.50      3.33570E-03
  108.50      3.08700E-03
  109.50      3.34750E-03
  110.50      3.27250E-03
  111.50      3.25480E-03
  112.50      3.10150E-03
  113.50      3.23580E-03
  114.50      3.17480E-03
  115.50      3.15270E-03
  116.50      3.13250E-03
  117.50      2.73880E-03
  118.50      3.02460E-03
  119.50      3.00400E-03
  120.50      2.86610E-03
  121.50      1.78770E-03
  122.50      2.83700E-03
  123.50      2.96230E-03
  124.50      2.92000E-03
  125.50      2.94430E-03
  126.50      2.94170E-03
  127.50      2.92630E-03
  128.50      2.91030E-03
  129.50      2.80970E-03
  130.50      2.82130E-03
  131.50      2.84760E-03
  132.50      2.80290E-03
  133.50      2.75910E-03
  134.50      2.77680E-03
  135.50      2.75640E-03
  136.50      2.72560E-03
  137.50      2.70540E-03
  138.50      2.68270E-03
  139.50      2.56290E-03
  140.50      2.56000E-03
  141.50      2.61550E-03
  142.50      2.55590E-03
  143.50      2.57600E-03
  144.20      2.57170E-03
  144.70      2.55830E-03
  145.50      2.53380E-03
  146.50      2.51910E-03
  147.50      2.49540E-03
  148.50      2.49000E-03
  149.50      2.46190E-03
  150.50      2.44170E-03
  151.20      2.43490E-03
  151.70      2.42140E-03
  152.50      2.39640E-03
  153.50      2.31600E-03
  154.50      2.24370E-03
  155.50      2.23510E-03
  156.50      2.26560E-03
  157.50      2.27900E-03
  158.50      2.28330E-03
  159.50      2.26620E-03
  160.50      2.20250E-03
  161.50      2.17350E-03
  162.50      2.17340E-03
  163.50      2.14850E-03
  164.50      2.06850E-03
  165.50      2.16780E-03
  166.50      2.15440E-03
  167.20      2.11780E-03
  167.70      2.16690E-03
  168.50      2.14460E-03
  169.50      2.12780E-03
  170.50      2.10510E-03
  171.50      2.07040E-03
  172.50      2.05400E-03
  173.50      2.07870E-03
  174.50      2.06000E-03
  175.50      2.03880E-03
  176.50      2.02960E-03
  177.50      2.02030E-03
  178.50      2.01130E-03
  179.50      1.99400E-03
  180.50      1.98600E-03
  181.50      1.96910E-03
  182.50      1.95420E-03
  183.50      1.94780E-03
  184.50      1.92090E-03
  185.50      1.89880E-03
  186.50      1.89140E-03
  187.50      1.88620E-03
  188.50      1.86290E-03
  189.50      1.84400E-03
  190.50      1.85090E-03
  191.50      1.82480E-03
  192.50      1.79660E-03
  193.50      1.80800E-03
  194.50      1.80670E-03
  195.50      1.77330E-03
  196.70      1.77840E-03
  197.60      1.77550E-03
  198.40      1.75780E-03
  199.50      1.73430E-03
  200.50      1.74020E-03
  201.50      1.73190E-03
  202.50      1.72210E-03
  203.50      1.70750E-03
  204.50      1.69620E-03
  205.50      1.47500E-03
  206.50      1.44210E-03
  207.40      1.45060E-03
  207.80      1.44830E-03
  208.50      1.48170E-03
  209.50      1.54700E-03
  210.50      1.61940E-03
  211.50      1.62790E-03
  212.50      1.61800E-03
  213.50      1.60790E-03
  214.50      1.59760E-03
  215.50      1.59430E-03
  216.50      1.56870E-03
  217.50      1.58090E-03
  218.50      1.55040E-03
  219.50      1.56170E-03
  220.50      1.55370E-03
  221.50      1.51860E-03
  222.50      1.53420E-03
  223.50      1.52490E-03
  224.50      1.51470E-03
  225.50      1.48010E-03
  226.50      1.49710E-03
  227.50      1.48820E-03
  228.50      1.47730E-03
  229.50      1.44470E-03
  230.50      1.43510E-03
  231.50      1.45080E-03
  232.50      1.44310E-03
  233.50      1.43430E-03
  234.50      1.42600E-03
  235.50      1.41740E-03
  236.50      1.40900E-03
  237.50      1.40020E-03
  238.50      1.36720E-03
  239.50      1.38150E-03
  240.50      1.37560E-03
  241.50      1.36730E-03
  242.50      1.35950E-03
  243.50      1.35100E-03
  244.50      1.34340E-03
  245.50      1.33540E-03
  246.50      1.32800E-03
  247.50      1.32020E-03
  248.50      1.31250E-03
  249.50      1.25890E-03
  250.50      1.29450E-03
  251.30      1.24490E-03
  251.80      1.28070E-03
  252.50      1.28270E-03
  253.50      1.27560E-03
  254.50      1.26730E-03
  255.50      1.26050E-03
  256.50      1.25410E-03
  257.50      1.24690E-03
  258.50      1.24010E-03
  259.50      1.23300E-03
  260.50      1.23010E-03
  261.50      1.22310E-03
  262.50      1.21650E-03
  263.50      1.20960E-03
  264.50      1.20240E-03
  265.50      1.19520E-03
  266.50      1.18700E-03
  267.50      1.17880E-03
  268.50      1.17680E-03
  269.50      1.16440E-03
  270.50      1.16360E-03
  271.50      1.15730E-03
  272.50      1.14450E-03
  273.50      1.12940E-03
  274.50      1.13880E-03
  275.50      1.13290E-03
  276.50      1.11940E-03
  277.50      1.12100E-03
  278.50      1.11490E-03
  279.50      1.10570E-03
  280.50      1.10240E-03
  281.50      1.09740E-03
  282.50      1.08330E-03
  283.50      1.08010E-03
  284.50      1.08020E-03
  285.50      1.07440E-03
  286.50      1.06880E-03
  287.50      1.06330E-03
  288.50      1.05790E-03
  289.50      1.05240E-03
  291.00      1.04410E-03
  293.00      1.03360E-03
  295.00      1.01650E-03
  297.00      1.01260E-03
  299.00      1.00210E-03
  301.00      9.92060E-04
  303.00      9.82120E-04
  305.00      9.72630E-04
  307.00      9.63390E-04
  309.00      9.52930E-04
  311.00      9.44490E-04
  313.00      9.35650E-04
  315.00      9.26360E-04
  317.00      9.17520E-04
  319.00      9.02050E-04
  321.00      8.94920E-04
  323.00      8.91400E-04
  325.00      8.82990E-04
  327.00      8.75010E-04
  329.00      8.66210E-04
  331.00      8.59090E-04
  333.00      8.50990E-04
  335.00      8.41970E-04
  337.00      8.35500E-04
  339.00      8.28090E-04
  341.00      8.20590E-04
  343.00      8.10750E-04
  345.00      8.01210E-04
  347.00      7.95830E-04
  349.00      7.88800E-04
  351.00      7.82320E-04
  353.00      7.76120E-04
  355.00      7.69210E-04
  357.00      7.66480E-04
  359.00      7.54570E-04
  361.00      7.50970E-04
  363.00      7.41630E-04
  364.00      7.42070E-04
  365.00      7.25140E-04
  367.00      7.21180E-04
  369.00      7.15700E-04
  371.00      7.02950E-04
  373.00      6.94030E-04
  375.00      6.88810E-04
  377.00      6.74940E-04
  379.00      6.91330E-04
  381.00      7.14860E-04
  383.00      6.49140E-04
  385.00      7.33660E-04
  387.00      7.47950E-04
  389.00      6.26270E-04
  391.00      7.44490E-04
  393.00      7.45280E-04
  395.00      7.33960E-04
  397.00      6.03390E-04
  399.00      7.17410E-04
  401.00      7.22140E-04
  403.00      6.90050E-04
  405.00      7.17410E-04
  407.00      7.07260E-04
  409.00      6.57720E-04
  411.00      5.94840E-04
  413.00      6.83560E-04
  415.00      6.83300E-04
  417.00      6.83610E-04
  419.00      6.77780E-04
  421.00      6.71440E-04
  423.00      6.68210E-04
  425.00      6.62410E-04
  427.00      6.56240E-04
  429.00      6.50550E-04
  431.00      6.41290E-04
  433.00      5.89260E-04
  435.00      5.51370E-04
  437.00      6.24590E-04
  439.00      6.10640E-04
  441.00      6.20680E-04
  443.00      6.15310E-04
  445.00      6.11930E-04
  447.00      5.82790E-04
  449.00      6.01970E-04
  451.00      5.98070E-04
  453.00      5.93360E-04
  455.00      5.85980E-04
  457.00      5.84510E-04
  459.00      5.79850E-04
  461.00      5.75560E-04
  463.00      5.71040E-04
  465.00      5.63780E-04
  467.00      5.62520E-04
  469.00      5.51240E-04
  471.00      5.48570E-04
  473.00      5.50550E-04
  475.00      5.46440E-04
  477.00      5.42610E-04
  479.00      5.38620E-04
  481.00      5.33550E-04
  483.00      5.26410E-04
  485.00      4.91260E-04
  487.00      4.51700E-04
  489.00      5.13040E-04
  491.00      5.13420E-04
  493.00      5.00120E-04
  495.00      5.08230E-04
  497.00      5.04900E-04
  499.00      5.01340E-04
  501.00      4.92640E-04
  503.00      4.94310E-04
  505.00      4.88830E-04
  507.00      4.87500E-04
  509.00      4.84120E-04
  511.00      4.80790E-04
  513.00      4.77480E-04
  515.00      4.74190E-04
  517.00      4.70950E-04
  519.00      4.67780E-04
  521.00      4.64610E-04
  523.00      4.61480E-04
  525.00      4.58360E-04
  527.00      4.55280E-04
  529.00      4.52260E-04
  531.00      4.49250E-04
  533.00      4.46270E-04
  535.00      4.43310E-04
  537.00      4.40390E-04
  539.00      4.37490E-04
  541.00      4.32550E-04
  543.00      4.31790E-04
  545.00      4.28990E-04
  547.00      4.26200E-04
  549.00      4.23450E-04
  551.00      4.20720E-04
  553.00      4.18010E-04
  555.00      4.15340E-04
  557.00      4.12690E-04
  559.00      4.10040E-04
  561.00      4.07460E-04
  563.00      4.04880E-04
  565.00      4.02330E-04
  567.00      3.99760E-04
  569.00      3.96540E-04
  571.00      3.92330E-04
  573.00      3.89950E-04
  575.00      3.87530E-04
  577.00      3.85230E-04
  579.00      3.82890E-04
  581.00      3.80570E-04
  583.00      3.78250E-04
  585.00      3.75970E-04
  587.00      3.63880E-04
  589.00      3.70780E-04
  591.00      3.69590E-04
  593.00      3.67560E-04
  595.00      3.65540E-04
  597.00      3.63600E-04
  599.00      3.61760E-04
  601.00      3.60220E-04
  603.00      3.58080E-04
  605.00      3.55980E-04
  607.00      3.53880E-04
  609.00      3.51800E-04
  611.00      3.49730E-04
  613.00      3.47680E-04
  615.00      3.45640E-04
  617.00      3.43640E-04
  619.00      3.41640E-04
  621.00      3.39670E-04
  623.00      3.37710E-04
  625.00      3.35760E-04
  627.00      3.33840E-04
  629.00      3.31930E-04
  631.00      3.30030E-04
  633.00      3.28150E-04
  635.00      3.26290E-04
  637.00      3.24450E-04
  639.00      3.22610E-04
  641.00      3.20800E-04
  643.00      3.19000E-04
  645.00      3.17210E-04
  647.00      3.15420E-04
  649.00      3.13660E-04
  651.00      3.11590E-04
  653.00      3.08380E-04
  655.00      2.96760E-04
  657.00      2.70590E-04
  659.00      3.01690E-04
  661.00      3.02670E-04
  663.00      3.01790E-04
  665.00      3.00240E-04
  667.00      2.95730E-04
  669.00      2.94080E-04
  671.00      2.95390E-04
  673.00      2.93790E-04
  675.00      2.92240E-04
  677.00      2.90680E-04
  679.00      2.89100E-04
  681.00      2.87580E-04
  683.00      2.86050E-04
  685.00      2.84540E-04
  687.00      2.83030E-04
  689.00      2.81510E-04
  691.00      2.80040E-04
  693.00      2.78590E-04
  695.00      2.77130E-04
  697.00      2.75690E-04
  699.00      2.74250E-04
  701.00      2.72830E-04
  703.00      2.71410E-04
  705.00      2.70020E-04
  707.00      2.65160E-04
  709.00      2.67250E-04
  711.00      2.65880E-04
  713.00      2.64520E-04
  715.00      2.63170E-04
  717.00      2.61730E-04
  719.00      2.60490E-04
  721.00      2.59190E-04
  723.00      2.57740E-04
  725.00      2.56570E-04
  727.00      2.55300E-04
  729.00      2.52330E-04
  731.00      2.52730E-04
  733.00      2.51490E-04
  735.00      2.50240E-04
  737.00      2.49000E-04
  739.00      2.47770E-04
  741.00      2.46550E-04
  743.00      2.45340E-04
  745.00      2.44150E-04
  747.00      2.42940E-04
  749.00      2.41760E-04
  751.00      2.40540E-04
  753.00      2.39420E-04
  755.00      2.38260E-04
  757.00      2.37110E-04
  759.00      2.35840E-04
  761.00      2.34820E-04
  763.00      2.33700E-04
  765.00      2.32580E-04
  767.00      2.31470E-04
  769.00      2.30370E-04
  771.00      2.29270E-04
  773.00      2.28180E-04
  775.00      2.27100E-04
  777.00      2.26030E-04
  779.00      2.24970E-04
  781.00      2.23830E-04
  783.00      2.22860E-04
  785.00      2.21950E-04
  787.00      2.20900E-04
  789.00      2.19870E-04
  791.00      2.18870E-04
  793.00      2.17850E-04
  795.00      2.16840E-04
  797.00      2.15760E-04
  799.00      2.14850E-04
  801.00      2.13860E-04
  803.00      2.12880E-04
  805.00      2.11900E-04
  807.00      2.10940E-04
  809.00      2.09760E-04
  811.00      2.08810E-04
  813.00      2.08000E-04
  815.00      2.06910E-04
  817.00      2.06120E-04
  819.00      2.04900E-04
  821.00      2.03340E-04
  823.00      2.02500E-04
  825.00      2.01790E-04
  827.00      2.00450E-04
  829.00      2.00050E-04
  831.00      1.99230E-04
  833.00      1.98270E-04
  835.00      1.96850E-04
  837.00      1.96390E-04
  839.00      1.95720E-04
  841.00      1.94870E-04
  843.00      1.93940E-04
  845.00      1.92290E-04
  847.00      1.92300E-04
  849.00      1.91230E-04
  851.00      1.90590E-04
  853.00      1.89420E-04
  855.00      1.88660E-04
  857.00      1.88320E-04
  859.00      1.85370E-04
  861.00      1.85880E-04
  863.00      1.86390E-04
  865.00      1.83820E-04
  867.00      1.81220E-04
  869.00      1.83950E-04
  871.00      1.84250E-04
  873.00      1.80890E-04
  875.00      1.74820E-04
  877.00      1.78090E-04
  879.00      1.81540E-04
  881.00      1.81560E-04
  883.00      1.79830E-04
  885.00      1.72320E-04
  887.00      1.66870E-04
  889.00      1.75890E-04
  891.00      1.78030E-04
  893.00      1.77930E-04
  895.00      1.77500E-04
  897.00      1.76120E-04
  899.00      1.71700E-04
  901.00      1.59880E-04
  903.00      1.64000E-04
  905.00      1.71560E-04
  907.00      1.71490E-04
  909.00      1.72410E-04
  911.00      1.72270E-04
  913.00      1.71650E-04
  915.00      1.70840E-04
  917.00      1.69490E-04
  919.00      1.67830E-04
  921.00      1.61200E-04
  923.00      1.48820E-04
  925.00      1.59680E-04
  927.00      1.64850E-04
  929.00      1.65600E-04
  931.00      1.64880E-04
  933.00      1.65100E-04
  935.00      1.63970E-04
  937.00      1.63850E-04
  939.00      1.63200E-04
  941.00      1.62540E-04
  943.00      1.61900E-04
  945.00      1.61150E-04
  947.00      1.59410E-04
  949.00      1.59080E-04
  951.00      1.56070E-04
  953.00      1.49530E-04
  955.00      1.38380E-04
  957.00      1.50970E-04
  959.00      1.54930E-04
  961.00      1.55220E-04
  963.00      1.54640E-04
  965.00      1.55010E-04
  967.00      1.54410E-04
  969.00      1.53700E-04
  971.00      1.52800E-04
  973.00      1.52610E-04
  975.00      1.52020E-04
  977.00      1.51440E-04
  979.00      1.50850E-04
  981.00      1.50270E-04
  983.00      1.49700E-04
  985.00      1.49120E-04
  987.00      1.48550E-04
  989.00      1.47980E-04
  991.00      1.47360E-04
  993.00      1.46860E-04
  995.00      1.46300E-04
  997.00      1.45380E-04
  999.00      1.44480E-04
  1002.5      1.37670E-04
  1007.5      1.34900E-04
  1012.5      1.40390E-04
  1017.5      1.40250E-04
  1022.5      1.38910E-04
  1027.5      1.37680E-04
  1032.5      1.35920E-04
  1037.5      1.35180E-04
  1042.5      1.33950E-04
  1047.5      1.32740E-04
  1052.5      1.31550E-04
  1057.5      1.30370E-04
  1062.5      1.29210E-04
  1067.5      1.27880E-04
  1072.5      1.26940E-04
  1077.5      1.25820E-04
  1082.5      1.23690E-04
  1087.5      1.22900E-04
  1092.5      1.13300E-04
  1097.5      1.18040E-04
  1102.5      1.19640E-04
  1107.5      1.19290E-04
  1112.5      1.18400E-04
  1117.5      1.17400E-04
  1122.5      1.16360E-04
  1127.5      1.15430E-04
  1132.5      1.14460E-04
  1137.5      1.13500E-04
  1142.5      1.12560E-04
  1147.5      1.11630E-04
  1152.5      1.10710E-04
  1157.5      1.09800E-04
  1162.5      1.08810E-04
  1167.5      1.08000E-04
  1172.5      1.07140E-04
  1177.5      1.06270E-04
  1182.5      1.05420E-04
  1187.5      1.04570E-04
  1192.5      1.03730E-04
  1197.5      1.01850E-04
  1202.5      1.02090E-04
  1207.5      1.01290E-04
  1212.5      1.00490E-04
  1217.5      9.97070E-05
  1222.5      9.89290E-05
  1227.5      9.81610E-05
  1232.5      9.74010E-05
  1237.5      9.66500E-05
  1242.5      9.59080E-05
  1247.5      9.51740E-05
  1252.5      9.42860E-05
  1257.5      9.37310E-05
  1262.5      9.30220E-05
  1267.5      9.23200E-05
  1272.5      9.14500E-05
  1277.5      8.91130E-05
  1282.5      8.34020E-05
  1287.5      8.86700E-05
  1292.5      8.88030E-05
  1297.5      8.77070E-05
  1302.5      8.76280E-05
  1307.5      8.69890E-05
  1312.5      8.63550E-05
  1317.5      8.57270E-05
  1322.5      8.51070E-05
  1327.5      8.44930E-05
  1332.5      8.38860E-05
  1337.5      8.32850E-05
  1342.5      8.26400E-05
  1347.5      8.21030E-05
  1352.5      8.15210E-05
  1357.5      8.09460E-05
  1362.5      8.03750E-05
  1367.5      7.98130E-05
  1372.5      7.92550E-05
  1377.5      7.87040E-05
  1382.5      7.81580E-05
  1387.5      7.76180E-05
  1392.5      7.70830E-05
  1397.5      7.65540E-05
