 Castelli and Kurucz 2004-2012 Atmosphere
 T     48000.     G    4.50000 [-1.5] N(He)/Ntot=0.0784 VTURB=2  L/H=1.25 NOVER
 Wavelength  Eddington Hnu
   (nm)    (ergs/s/cm2/Hz/sr)
  9.0900      9.17580E-19
  9.3500      2.45490E-18
  9.6100      6.18980E-18
  9.7700      1.07470E-17
  9.9600      2.01140E-17
  10.200      4.29370E-17
  10.380      7.41890E-17
  10.560      1.25850E-16
  10.770      2.28130E-16
  11.040      4.74490E-16
  11.400      1.19630E-15
  11.780      3.00090E-15
  12.130      6.68220E-15
  12.480      1.42590E-14
  12.710      2.29980E-14
  12.840      2.99900E-14
  13.050      4.53500E-14
  13.240      6.53420E-14
  13.390      8.66140E-14
  13.660      1.41720E-13
  13.980      2.49190E-13
  14.330      4.49610E-13
  14.720      8.34840E-13
  15.100      1.51230E-12
  15.520      2.80460E-12
  15.880      4.65570E-12
  16.200      7.23870E-12
  16.600      1.22260E-11
  17.030      2.07870E-11
  17.340      3.01300E-11
  17.680      4.49600E-11
  18.020      6.59910E-11
  18.170      7.68320E-11
  18.610      1.24270E-10
  19.100      2.04340E-10
  19.390      2.72990E-10
  19.840      4.17780E-10
  20.180      5.69710E-10
  20.500      7.58980E-10
  21.050      1.21450E-09
  21.620      1.93040E-09
  21.980      2.56140E-09
  22.300      3.25890E-09
  22.680      4.29610E-09
  23.000      2.82810E-07
  23.400      3.56870E-06
  24.000      2.85650E-05
  24.650      1.11340E-04
  25.240      2.15570E-04
  25.680      1.91940E-04
  26.000      3.43940E-04
  26.400      4.77340E-04
  26.850      5.12050E-04
  27.350      5.99970E-04
  27.850      5.98280E-04
  28.400      7.27390E-04
  29.000      8.33430E-04
  29.600      7.60440E-04
  30.100      4.03080E-04
  30.800      5.11570E-04
  31.800      6.28620E-04
  32.800      7.04470E-04
  33.800      6.62840E-04
  34.800      6.85210E-04
  35.700      9.26860E-04
  36.600      1.12720E-03
  37.500      1.21870E-03
  38.500      1.11120E-03
  39.500      1.36700E-03
  40.500      1.56450E-03
  41.400      1.63940E-03
  42.200      1.62970E-03
  43.000      1.65010E-03
  44.100      1.86170E-03
  45.100      1.94420E-03
  46.000      1.92090E-03
  47.000      1.98520E-03
  48.000      2.10860E-03
  49.000      2.06830E-03
  50.000      2.23700E-03
  50.600      2.14080E-03
  51.200      2.33250E-03
  52.000      2.33290E-03
  53.000      2.35740E-03
  54.000      2.23370E-03
  55.000      2.14420E-03
  56.000      2.45160E-03
  57.000      2.53690E-03
  58.000      2.56040E-03
  59.000      2.62500E-03
  60.000      2.59090E-03
  61.000      2.49050E-03
  62.000      2.68140E-03
  63.000      2.64030E-03
  64.000      2.76330E-03
  65.000      2.73970E-03
  65.800      2.68680E-03
  66.500      2.81570E-03
  67.500      2.84850E-03
  68.500      2.76580E-03
  69.500      2.90120E-03
  70.500      2.80380E-03
  71.600      2.93580E-03
  72.600      2.98110E-03
  73.500      2.99530E-03
  74.500      2.98570E-03
  75.500      2.97620E-03
  76.500      2.91350E-03
  77.500      3.01040E-03
  78.500      2.97910E-03
  79.500      3.02540E-03
  80.500      3.06610E-03
  81.500      3.08100E-03
  82.500      3.09930E-03
  83.500      3.00820E-03
  84.500      3.11120E-03
  85.500      3.08130E-03
  86.500      3.13470E-03
  87.500      3.15530E-03
  88.500      3.14550E-03
  89.500      3.15100E-03
  90.500      3.12690E-03
  91.500      2.46590E-03
  92.500      3.93470E-03
  93.500      4.82880E-03
  94.500      5.50340E-03
  95.500      5.91660E-03
  96.500      6.34040E-03
  97.500      5.44550E-03
  98.500      6.18210E-03
  99.500      5.85460E-03
  100.50      6.12590E-03
  101.50      6.10190E-03
  102.50      5.43270E-03
  103.50      6.13010E-03
  104.50      6.15100E-03
  105.50      6.11950E-03
  106.50      6.00170E-03
  107.50      6.02390E-03
  108.50      5.79900E-03
  109.50      5.96440E-03
  110.50      5.89640E-03
  111.50      5.84720E-03
  112.50      5.77170E-03
  113.50      5.82270E-03
  114.50      5.78900E-03
  115.50      5.71260E-03
  116.50      5.63700E-03
  117.50      5.42690E-03
  118.50      5.60040E-03
  119.50      5.52540E-03
  120.50      5.51000E-03
  121.50      4.82130E-03
  122.50      5.43310E-03
  123.50      5.31810E-03
  124.50      5.27870E-03
  125.50      5.32690E-03
  126.50      5.29040E-03
  127.50      5.25220E-03
  128.50      5.21210E-03
  129.50      5.18390E-03
  130.50      5.12070E-03
  131.50      5.08910E-03
  132.50      5.03580E-03
  133.50      5.01700E-03
  134.50      4.99120E-03
  135.50      4.91550E-03
  136.50      4.83540E-03
  137.50      4.75250E-03
  138.50      4.78370E-03
  139.50      4.73120E-03
  140.50      4.63680E-03
  141.50      4.71600E-03
  142.50      4.66560E-03
  143.50      4.65830E-03
  144.20      4.58330E-03
  144.70      4.57890E-03
  145.50      4.54230E-03
  146.50      4.51640E-03
  147.50      4.50930E-03
  148.50      4.51020E-03
  149.50      4.46700E-03
  150.50      4.44300E-03
  151.20      4.43050E-03
  151.70      4.39360E-03
  152.50      4.38720E-03
  153.50      4.33010E-03
  154.50      4.17160E-03
  155.50      4.15620E-03
  156.50      4.23320E-03
  157.50      4.22160E-03
  158.50      4.17640E-03
  159.50      4.15500E-03
  160.50      4.10700E-03
  161.50      4.08220E-03
  162.50      4.03860E-03
  163.50      3.97520E-03
  164.50      3.81320E-03
  165.50      3.98270E-03
  166.50      3.96350E-03
  167.20      3.91680E-03
  167.70      3.93380E-03
  168.50      3.91360E-03
  169.50      3.88960E-03
  170.50      3.85590E-03
  171.50      3.78190E-03
  172.50      3.78350E-03
  173.50      3.78440E-03
  174.50      3.75440E-03
  175.50      3.72580E-03
  176.50      3.70440E-03
  177.50      3.67920E-03
  178.50      3.65530E-03
  179.50      3.62670E-03
  180.50      3.60290E-03
  181.50      3.57770E-03
  182.50      3.55400E-03
  183.50      3.53000E-03
  184.50      3.50600E-03
  185.50      3.48040E-03
  186.50      3.45730E-03
  187.50      3.43360E-03
  188.50      3.40960E-03
  189.50      3.38970E-03
  190.50      3.36680E-03
  191.50      3.34380E-03
  192.50      3.31420E-03
  193.50      3.29930E-03
  194.50      3.27730E-03
  195.50      3.25450E-03
  196.70      3.22910E-03
  197.60      3.20830E-03
  198.40      3.19310E-03
  199.50      3.16880E-03
  200.50      3.14880E-03
  201.50      3.12810E-03
  202.50      3.10750E-03
  203.50      3.08680E-03
  204.50      3.06190E-03
  205.50      2.42600E-03
  206.50      2.36230E-03
  207.40      2.41740E-03
  207.80      2.47480E-03
  208.50      2.64000E-03
  209.50      2.89430E-03
  210.50      2.94600E-03
  211.50      2.93640E-03
  212.50      2.91810E-03
  213.50      2.89510E-03
  214.50      2.88040E-03
  215.50      2.90460E-03
  216.50      2.82390E-03
  217.50      2.88450E-03
  218.50      2.79160E-03
  219.50      2.84770E-03
  220.50      2.83260E-03
  221.50      2.73730E-03
  222.50      2.79650E-03
  223.50      2.77990E-03
  224.50      2.76090E-03
  225.50      2.67260E-03
  226.50      2.72780E-03
  227.50      2.71140E-03
  228.50      2.69340E-03
  229.50      2.66450E-03
  230.50      2.59300E-03
  231.50      2.64250E-03
  232.50      2.62850E-03
  233.50      2.61250E-03
  234.50      2.59620E-03
  235.50      2.58040E-03
  236.50      2.56460E-03
  237.50      2.54870E-03
  238.50      2.46850E-03
  239.50      2.51550E-03
  240.50      2.50030E-03
  241.50      2.48610E-03
  242.50      2.47310E-03
  243.50      2.45790E-03
  244.50      2.44340E-03
  245.50      2.42660E-03
  246.50      2.41430E-03
  247.50      2.40050E-03
  248.50      2.38560E-03
  249.50      2.33350E-03
  250.50      2.35170E-03
  251.30      2.21860E-03
  251.80      2.33310E-03
  252.50      2.32440E-03
  253.50      2.31720E-03
  254.50      2.30400E-03
  255.50      2.29060E-03
  256.50      2.27760E-03
  257.50      2.26420E-03
  258.50      2.25100E-03
  259.50      2.23520E-03
  260.50      2.22570E-03
  261.50      2.21170E-03
  262.50      2.20040E-03
  263.50      2.18800E-03
  264.50      2.17540E-03
  265.50      2.16330E-03
  266.50      2.15090E-03
  267.50      2.13740E-03
  268.50      2.12670E-03
  269.50      2.11440E-03
  270.50      2.10330E-03
  271.50      2.09150E-03
  272.50      2.07950E-03
  273.50      2.01760E-03
  274.50      2.05700E-03
  275.50      2.04560E-03
  276.50      2.03420E-03
  277.50      2.02310E-03
  278.50      2.01170E-03
  279.50      2.00070E-03
  280.50      1.99020E-03
  281.50      1.97940E-03
  282.50      1.96810E-03
  283.50      1.95800E-03
  284.50      1.94760E-03
  285.50      1.93710E-03
  286.50      1.92670E-03
  287.50      1.91640E-03
  288.50      1.90610E-03
  289.50      1.89590E-03
  291.00      1.88080E-03
  293.00      1.86110E-03
  295.00      1.84130E-03
  297.00      1.82210E-03
  299.00      1.80250E-03
  301.00      1.78430E-03
  303.00      1.76520E-03
  305.00      1.74720E-03
  307.00      1.72860E-03
  309.00      1.71270E-03
  311.00      1.69540E-03
  313.00      1.67810E-03
  315.00      1.66170E-03
  317.00      1.64490E-03
  319.00      1.62820E-03
  321.00      1.59080E-03
  323.00      1.59700E-03
  325.00      1.58140E-03
  327.00      1.56430E-03
  329.00      1.55070E-03
  331.00      1.53570E-03
  333.00      1.52100E-03
  335.00      1.50590E-03
  337.00      1.49210E-03
  339.00      1.47770E-03
  341.00      1.46340E-03
  343.00      1.45050E-03
  345.00      1.43650E-03
  347.00      1.42340E-03
  349.00      1.41020E-03
  351.00      1.39740E-03
  353.00      1.38450E-03
  355.00      1.37170E-03
  357.00      1.35940E-03
  359.00      1.34680E-03
  361.00      1.33480E-03
  363.00      1.32250E-03
  364.00      1.29240E-03
  365.00      1.19000E-03
  367.00      1.18090E-03
  369.00      1.17470E-03
  371.00      1.17640E-03
  373.00      1.18340E-03
  375.00      1.20050E-03
  377.00      1.21280E-03
  379.00      1.22460E-03
  381.00      1.23440E-03
  383.00      1.19270E-03
  385.00      1.22570E-03
  387.00      1.22710E-03
  389.00      1.15360E-03
  391.00      1.20920E-03
  393.00      1.19190E-03
  395.00      1.19090E-03
  397.00      1.11350E-03
  399.00      1.16990E-03
  401.00      1.16370E-03
  403.00      1.13760E-03
  405.00      1.14510E-03
  407.00      1.13550E-03
  409.00      1.10920E-03
  411.00      1.06100E-03
  413.00      1.10680E-03
  415.00      1.09840E-03
  417.00      1.08970E-03
  419.00      1.07730E-03
  421.00      1.05940E-03
  423.00      1.06350E-03
  425.00      1.05500E-03
  427.00      1.04660E-03
  429.00      1.03820E-03
  431.00      1.02970E-03
  433.00      1.00050E-03
  435.00      9.69950E-04
  437.00      1.00510E-03
  439.00      9.97210E-04
  441.00      9.90010E-04
  443.00      9.82370E-04
  445.00      9.74770E-04
  447.00      9.64690E-04
  449.00      9.59900E-04
  451.00      9.52500E-04
  453.00      9.44250E-04
  455.00      9.24810E-04
  457.00      9.31020E-04
  459.00      9.24010E-04
  461.00      9.17060E-04
  463.00      9.09970E-04
  465.00      9.02450E-04
  467.00      8.96010E-04
  469.00      8.64450E-04
  471.00      8.83100E-04
  473.00      8.77000E-04
  475.00      8.70580E-04
  477.00      8.64230E-04
  479.00      8.57930E-04
  481.00      8.51720E-04
  483.00      8.45480E-04
  485.00      8.27010E-04
  487.00      7.93030E-04
  489.00      8.26720E-04
  491.00      8.21620E-04
  493.00      8.14950E-04
  495.00      8.10030E-04
  497.00      8.04320E-04
  499.00      7.98680E-04
  501.00      7.92650E-04
  503.00      7.87560E-04
  505.00      7.81990E-04
  507.00      7.76660E-04
  509.00      7.71300E-04
  511.00      7.66000E-04
  513.00      7.60740E-04
  515.00      7.55540E-04
  517.00      7.50400E-04
  519.00      7.45300E-04
  521.00      7.40260E-04
  523.00      7.35270E-04
  525.00      7.30310E-04
  527.00      7.25400E-04
  529.00      7.20590E-04
  531.00      7.15790E-04
  533.00      7.11030E-04
  535.00      7.06340E-04
  537.00      7.01680E-04
  539.00      6.97060E-04
  541.00      6.81780E-04
  543.00      6.87960E-04
  545.00      6.83500E-04
  547.00      6.79060E-04
  549.00      6.74670E-04
  551.00      6.70300E-04
  553.00      6.66010E-04
  555.00      6.61740E-04
  557.00      6.57490E-04
  559.00      6.53200E-04
  561.00      6.49180E-04
  563.00      6.45070E-04
  565.00      6.41000E-04
  567.00      6.36960E-04
  569.00      6.25970E-04
  571.00      5.92250E-04
  573.00      5.88800E-04
  575.00      5.85390E-04
  577.00      5.82120E-04
  579.00      5.79150E-04
  581.00      5.76250E-04
  583.00      5.74800E-04
  585.00      5.73500E-04
  587.00      5.70950E-04
  589.00      5.71750E-04
  591.00      5.71420E-04
  593.00      5.71510E-04
  595.00      5.72120E-04
  597.00      5.72690E-04
  599.00      5.73780E-04
  601.00      5.71840E-04
  603.00      5.69680E-04
  605.00      5.67820E-04
  607.00      5.63840E-04
  609.00      5.61370E-04
  611.00      5.57460E-04
  613.00      5.54210E-04
  615.00      5.51760E-04
  617.00      5.46630E-04
  619.00      5.45250E-04
  621.00      5.42180E-04
  623.00      5.36850E-04
  625.00      5.35520E-04
  627.00      5.32840E-04
  629.00      5.29780E-04
  631.00      5.23710E-04
  633.00      5.23530E-04
  635.00      5.20760E-04
  637.00      5.17810E-04
  639.00      5.14680E-04
  641.00      5.08080E-04
  643.00      5.09080E-04
  645.00      5.06230E-04
  647.00      5.03390E-04
  649.00      5.00580E-04
  651.00      4.97600E-04
  653.00      4.90020E-04
  655.00      4.87870E-04
  657.00      4.63630E-04
  659.00      4.86380E-04
  661.00      4.84200E-04
  663.00      4.81550E-04
  665.00      4.78920E-04
  667.00      4.75330E-04
  669.00      4.68130E-04
  671.00      4.71120E-04
  673.00      4.68600E-04
  675.00      4.66080E-04
  677.00      4.63570E-04
  679.00      4.61090E-04
  681.00      4.58620E-04
  683.00      4.56170E-04
  685.00      4.53740E-04
  687.00      4.51330E-04
  689.00      4.43350E-04
  691.00      4.46390E-04
  693.00      4.44220E-04
  695.00      4.41890E-04
  697.00      4.39580E-04
  699.00      4.37280E-04
  701.00      4.35000E-04
  703.00      4.32730E-04
  705.00      4.30490E-04
  707.00      4.27730E-04
  709.00      4.26060E-04
  711.00      4.23860E-04
  713.00      4.21680E-04
  715.00      4.19530E-04
  717.00      4.13720E-04
  719.00      4.13240E-04
  721.00      4.13150E-04
  723.00      4.11060E-04
  725.00      4.08980E-04
  727.00      4.06920E-04
  729.00      4.04740E-04
  731.00      4.02830E-04
  733.00      4.00820E-04
  735.00      3.98820E-04
  737.00      3.96830E-04
  739.00      3.94860E-04
  741.00      3.92900E-04
  743.00      3.90960E-04
  745.00      3.89030E-04
  747.00      3.87120E-04
  749.00      3.85210E-04
  751.00      3.83330E-04
  753.00      3.81460E-04
  755.00      3.79600E-04
  757.00      3.77750E-04
  759.00      3.70790E-04
  761.00      3.73830E-04
  763.00      3.72300E-04
  765.00      3.70510E-04
  767.00      3.68730E-04
  769.00      3.66960E-04
  771.00      3.65210E-04
  773.00      3.63460E-04
  775.00      3.61740E-04
  777.00      3.60020E-04
  779.00      3.58320E-04
  781.00      3.56620E-04
  783.00      3.54940E-04
  785.00      3.53270E-04
  787.00      3.51620E-04
  789.00      3.49970E-04
  791.00      3.48340E-04
  793.00      3.46720E-04
  795.00      3.45110E-04
  797.00      3.43500E-04
  799.00      3.41920E-04
  801.00      3.40340E-04
  803.00      3.38770E-04
  805.00      3.37210E-04
  807.00      3.35670E-04
  809.00      3.34130E-04
  811.00      3.32610E-04
  813.00      3.31090E-04
  815.00      3.29590E-04
  817.00      3.28090E-04
  819.00      3.25340E-04
  821.00      3.12980E-04
  823.00      3.10000E-04
  825.00      3.09970E-04
  827.00      3.08950E-04
  829.00      3.07640E-04
  831.00      3.06330E-04
  833.00      3.05030E-04
  835.00      3.03760E-04
  837.00      3.02530E-04
  839.00      3.01340E-04
  841.00      3.00240E-04
  843.00      2.99160E-04
  845.00      2.98080E-04
  847.00      2.97080E-04
  849.00      2.96210E-04
  851.00      2.95220E-04
  853.00      2.94460E-04
  855.00      2.93310E-04
  857.00      2.92880E-04
  859.00      2.91650E-04
  861.00      2.90800E-04
  863.00      2.90690E-04
  865.00      2.89630E-04
  867.00      2.87460E-04
  869.00      2.88590E-04
  871.00      2.88270E-04
  873.00      2.87230E-04
  875.00      2.82900E-04
  877.00      2.85250E-04
  879.00      2.85850E-04
  881.00      2.85380E-04
  883.00      2.84510E-04
  885.00      2.80660E-04
  887.00      2.75300E-04
  889.00      2.80460E-04
  891.00      2.80350E-04
  893.00      2.79360E-04
  895.00      2.78710E-04
  897.00      2.77340E-04
  899.00      2.74940E-04
  901.00      2.66490E-04
  903.00      2.69000E-04
  905.00      2.72070E-04
  907.00      2.71720E-04
  909.00      2.70750E-04
  911.00      2.69050E-04
  913.00      2.68530E-04
  915.00      2.67430E-04
  917.00      2.66330E-04
  919.00      2.64870E-04
  921.00      2.61790E-04
  923.00      2.51610E-04
  925.00      2.59090E-04
  927.00      2.60490E-04
  929.00      2.59920E-04
  931.00      2.58870E-04
  933.00      2.57630E-04
  935.00      2.52000E-04
  937.00      2.54600E-04
  939.00      2.54720E-04
  941.00      2.53730E-04
  943.00      2.52720E-04
  945.00      2.51710E-04
  947.00      2.50690E-04
  949.00      2.49720E-04
  951.00      2.48190E-04
  953.00      2.44720E-04
  955.00      2.34900E-04
  957.00      2.43700E-04
  959.00      2.44560E-04
  961.00      2.43890E-04
  963.00      2.42930E-04
  965.00      2.41990E-04
  967.00      2.41050E-04
  969.00      2.40110E-04
  971.00      2.39170E-04
  973.00      2.38250E-04
  975.00      2.37040E-04
  977.00      2.34920E-04
  979.00      2.35510E-04
  981.00      2.34610E-04
  983.00      2.33710E-04
  985.00      2.32820E-04
  987.00      2.31930E-04
  989.00      2.31040E-04
  991.00      2.30160E-04
  993.00      2.29290E-04
  995.00      2.28420E-04
  997.00      2.27560E-04
  999.00      2.26700E-04
  1002.5      2.22540E-04
  1007.5      2.18980E-04
  1012.5      2.17960E-04
  1017.5      2.18980E-04
  1022.5      2.16960E-04
  1027.5      2.14970E-04
  1032.5      2.12970E-04
  1037.5      2.11070E-04
  1042.5      2.08140E-04
  1047.5      2.07270E-04
  1052.5      2.05410E-04
  1057.5      2.03580E-04
  1062.5      2.01770E-04
  1067.5      1.99980E-04
  1072.5      1.98220E-04
  1077.5      1.96480E-04
  1082.5      1.94570E-04
  1087.5      1.93050E-04
  1092.5      1.86300E-04
  1097.5      1.88670E-04
  1102.5      1.88110E-04
  1107.5      1.86500E-04
  1112.5      1.84910E-04
  1117.5      1.83440E-04
  1122.5      1.81890E-04
  1127.5      1.80360E-04
  1132.5      1.78850E-04
  1137.5      1.77360E-04
  1142.5      1.75880E-04
  1147.5      1.74430E-04
  1152.5      1.72990E-04
  1157.5      1.71570E-04
  1162.5      1.68630E-04
  1167.5      1.67680E-04
  1172.5      1.67410E-04
  1177.5      1.66060E-04
  1182.5      1.64720E-04
  1187.5      1.63400E-04
  1192.5      1.62090E-04
  1197.5      1.60750E-04
  1202.5      1.59530E-04
  1207.5      1.58270E-04
  1212.5      1.57030E-04
  1217.5      1.55800E-04
  1222.5      1.54580E-04
  1227.5      1.53380E-04
  1232.5      1.52190E-04
  1237.5      1.51020E-04
  1242.5      1.49860E-04
  1247.5      1.48710E-04
  1252.5      1.47570E-04
  1257.5      1.46450E-04
  1262.5      1.45350E-04
  1267.5      1.44250E-04
  1272.5      1.43160E-04
  1277.5      1.41730E-04
  1282.5      1.36770E-04
  1287.5      1.39840E-04
  1292.5      1.38950E-04
  1297.5      1.37910E-04
  1302.5      1.36910E-04
  1307.5      1.35910E-04
  1312.5      1.34920E-04
  1317.5      1.33940E-04
  1322.5      1.32970E-04
  1327.5      1.32010E-04
  1332.5      1.31060E-04
  1337.5      1.30120E-04
  1342.5      1.29190E-04
  1347.5      1.28270E-04
  1352.5      1.27360E-04
  1357.5      1.26460E-04
  1362.5      1.25570E-04
  1367.5      1.24690E-04
  1372.5      1.23820E-04
  1377.5      1.22960E-04
  1382.5      1.22100E-04
  1387.5      1.21260E-04
  1392.5      1.20420E-04
  1397.5      1.19600E-04
