 Castelli and Kurucz 2004-2012 Atmosphere
 T     45000.     G    5.00000 [-1.5] N(He)/Ntot=0.0784 VTURB=2  L/H=1.25 NOVER
 Wavelength  Eddington Hnu
   (nm)    (ergs/s/cm2/Hz/sr)
  9.0900      1.44320E-20
  9.3500      4.25710E-20
  9.6100      1.18760E-19
  9.7700      2.18170E-19
  9.9600      4.38360E-19
  10.200      1.02380E-18
  10.380      1.89270E-18
  10.560      3.43110E-18
  10.770      6.71610E-18
  11.040      1.54070E-17
  11.400      4.41870E-17
  11.780      1.26650E-16
  12.130      3.17660E-16
  12.480      7.61780E-16
  12.710      1.32320E-15
  12.840      1.79460E-15
  13.050      2.90220E-15
  13.240      4.43320E-15
  13.390      6.14810E-15
  13.660      1.09080E-14
  13.980      2.10090E-14
  14.330      4.17500E-14
  14.720      8.65170E-14
  15.100      1.71170E-13
  15.520      3.50510E-13
  15.880      6.30460E-13
  16.200      1.04280E-12
  16.600      1.90650E-12
  17.030      3.53610E-12
  17.340      5.42370E-12
  17.680      8.54540E-12
  18.020      1.32370E-11
  18.170      1.59220E-11
  18.610      2.72870E-11
  19.100      4.81620E-11
  19.390      6.66050E-11
  19.840      1.08020E-10
  20.180      1.53530E-10
  20.500      2.11660E-10
  21.050      3.59290E-10
  21.620      6.04400E-10
  21.980      8.28490E-10
  22.300      1.08640E-09
  22.680      1.48290E-09
  23.000      7.81250E-08
  23.400      3.46730E-07
  24.000      1.71860E-06
  24.650      1.82540E-05
  25.240      5.27210E-05
  25.680      4.25340E-05
  26.000      1.09470E-04
  26.400      1.85310E-04
  26.850      2.32530E-04
  27.350      2.85280E-04
  27.850      2.86210E-04
  28.400      3.78410E-04
  29.000      4.34870E-04
  29.600      3.69800E-04
  30.100      1.28580E-04
  30.800      2.32600E-04
  31.800      3.45380E-04
  32.800      4.06590E-04
  33.800      3.88230E-04
  34.800      4.10110E-04
  35.700      5.55050E-04
  36.600      6.68270E-04
  37.500      7.22350E-04
  38.500      6.75880E-04
  39.500      8.13580E-04
  40.500      9.09590E-04
  41.400      9.45540E-04
  42.200      9.39900E-04
  43.000      9.40280E-04
  44.100      1.04240E-03
  45.100      1.08520E-03
  46.000      1.06660E-03
  47.000      1.09650E-03
  48.000      1.15970E-03
  49.000      1.12760E-03
  50.000      1.22030E-03
  50.600      1.23000E-03
  51.200      1.54630E-03
  52.000      1.54460E-03
  53.000      1.55850E-03
  54.000      1.47880E-03
  55.000      1.47640E-03
  56.000      1.67500E-03
  57.000      1.72780E-03
  58.000      1.72340E-03
  59.000      1.78090E-03
  60.000      1.75940E-03
  61.000      1.73360E-03
  62.000      1.86810E-03
  63.000      1.86630E-03
  64.000      1.93420E-03
  65.000      1.92580E-03
  65.800      1.88980E-03
  66.500      1.97410E-03
  67.500      2.02470E-03
  68.500      1.97300E-03
  69.500      2.06500E-03
  70.500      2.00690E-03
  71.600      2.11800E-03
  72.600      2.15170E-03
  73.500      2.17190E-03
  74.500      2.16780E-03
  75.500      2.17600E-03
  76.500      2.15760E-03
  77.500      2.21150E-03
  78.500      2.21100E-03
  79.500      2.24250E-03
  80.500      2.26870E-03
  81.500      2.29120E-03
  82.500      2.31650E-03
  83.500      2.24290E-03
  84.500      2.33590E-03
  85.500      2.33030E-03
  86.500      2.37120E-03
  87.500      2.39050E-03
  88.500      2.39520E-03
  89.500      2.40360E-03
  90.500      2.39300E-03
  91.500      1.88980E-03
  92.500      3.00550E-03
  93.500      3.86900E-03
  94.500      4.86750E-03
  95.500      5.35660E-03
  96.500      6.19800E-03
  97.500      4.84230E-03
  98.500      6.14410E-03
  99.500      5.70130E-03
  100.50      6.10050E-03
  101.50      6.06680E-03
  102.50      4.82860E-03
  103.50      6.02380E-03
  104.50      6.09490E-03
  105.50      6.06010E-03
  106.50      5.91660E-03
  107.50      5.91180E-03
  108.50      5.56860E-03
  109.50      5.86750E-03
  110.50      5.78110E-03
  111.50      5.72810E-03
  112.50      5.61400E-03
  113.50      5.68200E-03
  114.50      5.64260E-03
  115.50      5.54760E-03
  116.50      5.47670E-03
  117.50      5.16220E-03
  118.50      5.39110E-03
  119.50      5.33840E-03
  120.50      5.28280E-03
  121.50      4.26070E-03
  122.50      5.18830E-03
  123.50      5.14530E-03
  124.50      5.10140E-03
  125.50      5.13720E-03
  126.50      5.10480E-03
  127.50      5.06730E-03
  128.50      5.03020E-03
  129.50      4.98450E-03
  130.50      4.93520E-03
  131.50      4.90440E-03
  132.50      4.85250E-03
  133.50      4.82750E-03
  134.50      4.79800E-03
  135.50      4.73380E-03
  136.50      4.66900E-03
  137.50      4.60030E-03
  138.50      4.60020E-03
  139.50      4.53210E-03
  140.50      4.45260E-03
  141.50      4.51270E-03
  142.50      4.44990E-03
  143.50      4.44570E-03
  144.20      4.38900E-03
  144.70      4.37890E-03
  145.50      4.34160E-03
  146.50      4.31680E-03
  147.50      4.29630E-03
  148.50      4.29010E-03
  149.50      4.24720E-03
  150.50      4.22580E-03
  151.20      4.21090E-03
  151.70      4.17910E-03
  152.50      4.15770E-03
  153.50      4.08780E-03
  154.50      3.91890E-03
  155.50      3.91730E-03
  156.50      3.98360E-03
  157.50      3.97830E-03
  158.50      3.94840E-03
  159.50      3.92100E-03
  160.50      3.85840E-03
  161.50      3.82850E-03
  162.50      3.78960E-03
  163.50      3.70310E-03
  164.50      3.54770E-03
  165.50      3.74640E-03
  166.50      3.72680E-03
  167.20      3.67460E-03
  167.70      3.70640E-03
  168.50      3.68220E-03
  169.50      3.65840E-03
  170.50      3.62510E-03
  171.50      3.55210E-03
  172.50      3.55260E-03
  173.50      3.55920E-03
  174.50      3.52880E-03
  175.50      3.49680E-03
  176.50      3.48060E-03
  177.50      3.45730E-03
  178.50      3.43500E-03
  179.50      3.40570E-03
  180.50      3.38360E-03
  181.50      3.35990E-03
  182.50      3.33500E-03
  183.50      3.31410E-03
  184.50      3.29000E-03
  185.50      3.26550E-03
  186.50      3.24220E-03
  187.50      3.21910E-03
  188.50      3.19570E-03
  189.50      3.17910E-03
  190.50      3.15720E-03
  191.50      3.13500E-03
  192.50      3.09960E-03
  193.50      3.09260E-03
  194.50      3.07160E-03
  195.50      3.04850E-03
  196.70      3.02520E-03
  197.60      3.00650E-03
  198.40      2.99080E-03
  199.50      2.96810E-03
  200.50      2.94870E-03
  201.50      2.92880E-03
  202.50      2.90890E-03
  203.50      2.88930E-03
  204.50      2.86800E-03
  205.50      2.20980E-03
  206.50      2.13320E-03
  207.40      2.16660E-03
  207.80      2.20910E-03
  208.50      2.32500E-03
  209.50      2.57910E-03
  210.50      2.73810E-03
  211.50      2.74830E-03
  212.50      2.73100E-03
  213.50      2.70800E-03
  214.50      2.69530E-03
  215.50      2.71940E-03
  216.50      2.62970E-03
  217.50      2.70820E-03
  218.50      2.59640E-03
  219.50      2.67390E-03
  220.50      2.66350E-03
  221.50      2.54040E-03
  222.50      2.62930E-03
  223.50      2.61640E-03
  224.50      2.59390E-03
  225.50      2.47880E-03
  226.50      2.56550E-03
  227.50      2.55030E-03
  228.50      2.53240E-03
  229.50      2.50030E-03
  230.50      2.40520E-03
  231.50      2.48070E-03
  232.50      2.47070E-03
  233.50      2.45540E-03
  234.50      2.43990E-03
  235.50      2.42470E-03
  236.50      2.40970E-03
  237.50      2.39360E-03
  238.50      2.28900E-03
  239.50      2.35910E-03
  240.50      2.34890E-03
  241.50      2.33490E-03
  242.50      2.32210E-03
  243.50      2.30760E-03
  244.50      2.29390E-03
  245.50      2.27840E-03
  246.50      2.26610E-03
  247.50      2.25280E-03
  248.50      2.23880E-03
  249.50      2.18010E-03
  250.50      2.19920E-03
  251.30      2.04110E-03
  251.80      2.18210E-03
  252.50      2.18200E-03
  253.50      2.17340E-03
  254.50      2.16070E-03
  255.50      2.14780E-03
  256.50      2.13540E-03
  257.50      2.12280E-03
  258.50      2.11050E-03
  259.50      2.09570E-03
  260.50      2.08650E-03
  261.50      2.07360E-03
  262.50      2.06260E-03
  263.50      2.05080E-03
  264.50      2.03880E-03
  265.50      2.02730E-03
  266.50      2.01540E-03
  267.50      2.00230E-03
  268.50      1.99250E-03
  269.50      1.98040E-03
  270.50      1.97050E-03
  271.50      1.95920E-03
  272.50      1.94620E-03
  273.50      1.87260E-03
  274.50      1.92660E-03
  275.50      1.91590E-03
  276.50      1.90400E-03
  277.50      1.89470E-03
  278.50      1.88400E-03
  279.50      1.87300E-03
  280.50      1.86340E-03
  281.50      1.85330E-03
  282.50      1.84170E-03
  283.50      1.83250E-03
  284.50      1.82330E-03
  285.50      1.81340E-03
  286.50      1.80350E-03
  287.50      1.79390E-03
  288.50      1.78420E-03
  289.50      1.77450E-03
  291.00      1.76030E-03
  293.00      1.74170E-03
  295.00      1.72200E-03
  297.00      1.70480E-03
  299.00      1.68600E-03
  301.00      1.66920E-03
  303.00      1.65080E-03
  305.00      1.63390E-03
  307.00      1.61770E-03
  309.00      1.60180E-03
  311.00      1.58540E-03
  313.00      1.56920E-03
  315.00      1.55390E-03
  317.00      1.53820E-03
  319.00      1.52020E-03
  321.00      1.48240E-03
  323.00      1.49330E-03
  325.00      1.47860E-03
  327.00      1.46210E-03
  329.00      1.44960E-03
  331.00      1.43570E-03
  333.00      1.42200E-03
  335.00      1.40760E-03
  337.00      1.39490E-03
  339.00      1.38170E-03
  341.00      1.36840E-03
  343.00      1.35620E-03
  345.00      1.34260E-03
  347.00      1.33100E-03
  349.00      1.31860E-03
  351.00      1.30640E-03
  353.00      1.29400E-03
  355.00      1.28190E-03
  357.00      1.27100E-03
  359.00      1.25830E-03
  361.00      1.24740E-03
  363.00      1.23530E-03
  364.00      1.20740E-03
  365.00      1.10810E-03
  367.00      1.09970E-03
  369.00      1.09250E-03
  371.00      1.09000E-03
  373.00      1.09460E-03
  375.00      1.10580E-03
  377.00      1.11530E-03
  379.00      1.13280E-03
  381.00      1.15090E-03
  383.00      1.10200E-03
  385.00      1.14780E-03
  387.00      1.15510E-03
  389.00      1.06100E-03
  391.00      1.13990E-03
  393.00      1.12780E-03
  395.00      1.12340E-03
  397.00      1.02250E-03
  399.00      1.10250E-03
  401.00      1.10010E-03
  403.00      1.06990E-03
  405.00      1.08570E-03
  407.00      1.07450E-03
  409.00      1.03620E-03
  411.00      9.81520E-04
  413.00      1.04570E-03
  415.00      1.04020E-03
  417.00      1.03300E-03
  419.00      1.01820E-03
  421.00      1.00000E-03
  423.00      1.00810E-03
  425.00      9.99900E-04
  427.00      9.91810E-04
  429.00      9.83830E-04
  431.00      9.73690E-04
  433.00      9.33070E-04
  435.00      8.99440E-04
  437.00      9.49660E-04
  439.00      9.42290E-04
  441.00      9.37800E-04
  443.00      9.30340E-04
  445.00      9.23250E-04
  447.00      9.08280E-04
  449.00      9.08970E-04
  451.00      9.01850E-04
  453.00      8.92770E-04
  455.00      8.70610E-04
  457.00      8.81430E-04
  459.00      8.74770E-04
  461.00      8.68120E-04
  463.00      8.61270E-04
  465.00      8.53340E-04
  467.00      8.47380E-04
  469.00      8.13250E-04
  471.00      8.34460E-04
  473.00      8.29960E-04
  475.00      8.23840E-04
  477.00      8.17780E-04
  479.00      8.11790E-04
  481.00      8.05850E-04
  483.00      7.98240E-04
  485.00      7.72000E-04
  487.00      7.35280E-04
  489.00      7.79670E-04
  491.00      7.77120E-04
  493.00      7.68220E-04
  495.00      7.66150E-04
  497.00      7.60720E-04
  499.00      7.55350E-04
  501.00      7.48460E-04
  503.00      7.44760E-04
  505.00      7.39200E-04
  507.00      7.34400E-04
  509.00      7.29300E-04
  511.00      7.24260E-04
  513.00      7.19260E-04
  515.00      7.14310E-04
  517.00      7.09420E-04
  519.00      7.04580E-04
  521.00      6.99790E-04
  523.00      6.95040E-04
  525.00      6.90330E-04
  527.00      6.85650E-04
  529.00      6.81100E-04
  531.00      6.76540E-04
  533.00      6.72030E-04
  535.00      6.67560E-04
  537.00      6.63140E-04
  539.00      6.58750E-04
  541.00      6.40980E-04
  543.00      6.49830E-04
  545.00      6.45880E-04
  547.00      6.41670E-04
  549.00      6.37500E-04
  551.00      6.33350E-04
  553.00      6.29280E-04
  555.00      6.25230E-04
  557.00      6.21210E-04
  559.00      6.17100E-04
  561.00      6.13320E-04
  563.00      6.09420E-04
  565.00      6.05560E-04
  567.00      6.01730E-04
  569.00      5.91060E-04
  571.00      5.57870E-04
  573.00      5.54640E-04
  575.00      5.51440E-04
  577.00      5.48310E-04
  579.00      5.45320E-04
  581.00      5.42370E-04
  583.00      5.40330E-04
  585.00      5.38600E-04
  587.00      5.34220E-04
  589.00      5.36170E-04
  591.00      5.35600E-04
  593.00      5.35280E-04
  595.00      5.35340E-04
  597.00      5.35600E-04
  599.00      5.36440E-04
  601.00      5.35970E-04
  603.00      5.35440E-04
  605.00      5.34930E-04
  607.00      5.31800E-04
  609.00      5.29100E-04
  611.00      5.26380E-04
  613.00      5.23520E-04
  615.00      5.21050E-04
  617.00      5.16580E-04
  619.00      5.14880E-04
  621.00      5.11970E-04
  623.00      5.07310E-04
  625.00      5.05570E-04
  627.00      5.03130E-04
  629.00      5.00230E-04
  631.00      4.94940E-04
  633.00      4.94190E-04
  635.00      4.91690E-04
  637.00      4.88890E-04
  639.00      4.85780E-04
  641.00      4.80190E-04
  643.00      4.80590E-04
  645.00      4.77930E-04
  647.00      4.75240E-04
  649.00      4.72580E-04
  651.00      4.69340E-04
  653.00      4.62410E-04
  655.00      4.57060E-04
  657.00      4.31530E-04
  659.00      4.57910E-04
  661.00      4.57070E-04
  663.00      4.54560E-04
  665.00      4.52090E-04
  667.00      4.47650E-04
  669.00      4.41150E-04
  671.00      4.44680E-04
  673.00      4.42330E-04
  675.00      4.39930E-04
  677.00      4.37570E-04
  679.00      4.35220E-04
  681.00      4.32880E-04
  683.00      4.30570E-04
  685.00      4.28270E-04
  687.00      4.25980E-04
  689.00      4.17960E-04
  691.00      4.21060E-04
  693.00      4.19260E-04
  695.00      4.17060E-04
  697.00      4.14870E-04
  699.00      4.12700E-04
  701.00      4.10540E-04
  703.00      4.08390E-04
  705.00      4.06280E-04
  707.00      4.02740E-04
  709.00      4.02090E-04
  711.00      4.00010E-04
  713.00      3.97960E-04
  715.00      3.95910E-04
  717.00      3.89940E-04
  719.00      3.89330E-04
  721.00      3.89880E-04
  723.00      3.87910E-04
  725.00      3.85940E-04
  727.00      3.83990E-04
  729.00      3.81570E-04
  731.00      3.80130E-04
  733.00      3.78230E-04
  735.00      3.76340E-04
  737.00      3.74460E-04
  739.00      3.72600E-04
  741.00      3.70750E-04
  743.00      3.68920E-04
  745.00      3.67090E-04
  747.00      3.65290E-04
  749.00      3.63470E-04
  751.00      3.61710E-04
  753.00      3.59940E-04
  755.00      3.58190E-04
  757.00      3.56440E-04
  759.00      3.48870E-04
  761.00      3.52500E-04
  763.00      3.51290E-04
  765.00      3.49590E-04
  767.00      3.47910E-04
  769.00      3.46240E-04
  771.00      3.44590E-04
  773.00      3.42930E-04
  775.00      3.41310E-04
  777.00      3.39690E-04
  779.00      3.38080E-04
  781.00      3.36480E-04
  783.00      3.34890E-04
  785.00      3.33330E-04
  787.00      3.31770E-04
  789.00      3.30220E-04
  791.00      3.28670E-04
  793.00      3.27140E-04
  795.00      3.25620E-04
  797.00      3.24100E-04
  799.00      3.22610E-04
  801.00      3.21120E-04
  803.00      3.19630E-04
  805.00      3.18170E-04
  807.00      3.16710E-04
  809.00      3.15250E-04
  811.00      3.13810E-04
  813.00      3.12380E-04
  815.00      3.10960E-04
  817.00      3.09550E-04
  819.00      3.06920E-04
  821.00      2.95410E-04
  823.00      2.92310E-04
  825.00      2.92400E-04
  827.00      2.91610E-04
  829.00      2.90410E-04
  831.00      2.89190E-04
  833.00      2.87940E-04
  835.00      2.86700E-04
  837.00      2.85540E-04
  839.00      2.84380E-04
  841.00      2.83260E-04
  843.00      2.82160E-04
  845.00      2.81000E-04
  847.00      2.80050E-04
  849.00      2.79130E-04
  851.00      2.78180E-04
  853.00      2.77300E-04
  855.00      2.76300E-04
  857.00      2.75650E-04
  859.00      2.74460E-04
  861.00      2.73770E-04
  863.00      2.73440E-04
  865.00      2.72320E-04
  867.00      2.70710E-04
  869.00      2.71250E-04
  871.00      2.70870E-04
  873.00      2.69620E-04
  875.00      2.66430E-04
  877.00      2.67740E-04
  879.00      2.68440E-04
  881.00      2.68080E-04
  883.00      2.67200E-04
  885.00      2.63400E-04
  887.00      2.59370E-04
  889.00      2.63620E-04
  891.00      2.64070E-04
  893.00      2.63460E-04
  895.00      2.62730E-04
  897.00      2.61350E-04
  899.00      2.58560E-04
  901.00      2.50540E-04
  903.00      2.52560E-04
  905.00      2.56230E-04
  907.00      2.55940E-04
  909.00      2.55440E-04
  911.00      2.54250E-04
  913.00      2.53810E-04
  915.00      2.52780E-04
  917.00      2.51360E-04
  919.00      2.49570E-04
  921.00      2.45580E-04
  923.00      2.35900E-04
  925.00      2.43040E-04
  927.00      2.45400E-04
  929.00      2.45270E-04
  931.00      2.44510E-04
  933.00      2.43170E-04
  935.00      2.37210E-04
  937.00      2.40770E-04
  939.00      2.40680E-04
  941.00      2.39810E-04
  943.00      2.38860E-04
  945.00      2.37900E-04
  947.00      2.36810E-04
  949.00      2.35690E-04
  951.00      2.33580E-04
  953.00      2.29160E-04
  955.00      2.19590E-04
  957.00      2.28640E-04
  959.00      2.30400E-04
  961.00      2.30240E-04
  963.00      2.29470E-04
  965.00      2.28700E-04
  967.00      2.27810E-04
  969.00      2.26920E-04
  971.00      2.25940E-04
  973.00      2.25170E-04
  975.00      2.23980E-04
  977.00      2.22320E-04
  979.00      2.22570E-04
  981.00      2.21720E-04
  983.00      2.20870E-04
  985.00      2.20030E-04
  987.00      2.19180E-04
  989.00      2.18350E-04
  991.00      2.17520E-04
  993.00      2.16690E-04
  995.00      2.15870E-04
  997.00      2.15050E-04
  999.00      2.14050E-04
  1002.5      2.08860E-04
  1007.5      2.05420E-04
  1012.5      2.05490E-04
  1017.5      2.06930E-04
  1022.5      2.05030E-04
  1027.5      2.03140E-04
  1032.5      2.01150E-04
  1037.5      1.99450E-04
  1042.5      1.96730E-04
  1047.5      1.95870E-04
  1052.5      1.94110E-04
  1057.5      1.92370E-04
  1062.5      1.90660E-04
  1067.5      1.88950E-04
  1072.5      1.87310E-04
  1077.5      1.85660E-04
  1082.5      1.83600E-04
  1087.5      1.82170E-04
  1092.5      1.74360E-04
  1097.5      1.77340E-04
  1102.5      1.77660E-04
  1107.5      1.76220E-04
  1112.5      1.74730E-04
  1117.5      1.73330E-04
  1122.5      1.71860E-04
  1127.5      1.70420E-04
  1132.5      1.68990E-04
  1137.5      1.67580E-04
  1142.5      1.66190E-04
  1147.5      1.64810E-04
  1152.5      1.63450E-04
  1157.5      1.62110E-04
  1162.5      1.59050E-04
  1167.5      1.58280E-04
  1172.5      1.58180E-04
  1177.5      1.56900E-04
  1182.5      1.55640E-04
  1187.5      1.54390E-04
  1192.5      1.53160E-04
  1197.5      1.51720E-04
  1202.5      1.50740E-04
  1207.5      1.49550E-04
  1212.5      1.48370E-04
  1217.5      1.47210E-04
  1222.5      1.46060E-04
  1227.5      1.44930E-04
  1232.5      1.43800E-04
  1237.5      1.42700E-04
  1242.5      1.41600E-04
  1247.5      1.40520E-04
  1252.5      1.39420E-04
  1257.5      1.38390E-04
  1262.5      1.37340E-04
  1267.5      1.36300E-04
  1272.5      1.35280E-04
  1277.5      1.33390E-04
  1282.5      1.28000E-04
  1287.5      1.31860E-04
  1292.5      1.31300E-04
  1297.5      1.30250E-04
  1302.5      1.29370E-04
  1307.5      1.28420E-04
  1312.5      1.27490E-04
  1317.5      1.26560E-04
  1322.5      1.25650E-04
  1327.5      1.24740E-04
  1332.5      1.23840E-04
  1337.5      1.22950E-04
  1342.5      1.22070E-04
  1347.5      1.21210E-04
  1352.5      1.20350E-04
  1357.5      1.19500E-04
  1362.5      1.18660E-04
  1367.5      1.17830E-04
  1372.5      1.17000E-04
  1377.5      1.16190E-04
  1382.5      1.15380E-04
  1387.5      1.14580E-04
  1392.5      1.13790E-04
  1397.5      1.13010E-04
