 Castelli and Kurucz 2004-2012 Atmosphere
 T     40000.     G    4.50000 [-1.5] N(He)/Ntot=0.0784 VTURB=2  L/H=1.25 NOVER
 Wavelength  Eddington Hnu
   (nm)    (ergs/s/cm2/Hz/sr)
  9.0900      4.41150E-24
  9.3500      1.62930E-23
  9.6100      5.65830E-23
  9.7700      1.18390E-22
  9.9600      2.76570E-22
  10.200      7.76610E-22
  10.380      1.64060E-21
  10.560      3.38890E-21
  10.770      7.69160E-21
  11.040      2.11920E-20
  11.400      7.66430E-20
  11.780      2.76510E-19
  12.130      8.45980E-19
  12.480      2.44670E-18
  12.710      4.77910E-18
  12.840      6.91100E-18
  13.050      1.23630E-17
  13.240      2.06260E-17
  13.390      3.06120E-17
  13.660      6.11190E-17
  13.980      1.34440E-16
  14.330      3.06700E-16
  14.720      7.36440E-16
  15.100      1.66380E-15
  15.520      3.91700E-15
  15.880      7.88550E-15
  16.200      1.43560E-14
  16.600      2.94370E-14
  17.030      6.13950E-14
  17.340      1.02100E-13
  17.680      1.74980E-13
  18.020      2.94100E-13
  18.170      3.67240E-13
  18.610      6.93180E-13
  19.100      1.35870E-12
  19.390      1.99350E-12
  19.840      3.53470E-12
  20.180      5.35780E-12
  20.500      7.82560E-12
  21.050      1.46190E-11
  21.620      2.70280E-11
  21.980      3.92160E-11
  22.300      5.40270E-11
  22.680      7.80820E-11
  23.000      9.54220E-09
  23.400      4.12780E-08
  24.000      1.11160E-07
  24.650      8.94440E-07
  25.240      3.11700E-06
  25.680      2.39270E-06
  26.000      9.32450E-06
  26.400      2.18860E-05
  26.850      3.28830E-05
  27.350      4.25800E-05
  27.850      4.15640E-05
  28.400      6.56750E-05
  29.000      7.68370E-05
  29.600      5.44200E-05
  30.100      9.55650E-06
  30.800      3.28690E-05
  31.800      7.22410E-05
  32.800      9.15440E-05
  33.800      9.34440E-05
  34.800      1.04210E-04
  35.700      1.44630E-04
  36.600      1.81300E-04
  37.500      1.98490E-04
  38.500      1.90390E-04
  39.500      2.32190E-04
  40.500      2.62190E-04
  41.400      2.75890E-04
  42.200      2.76640E-04
  43.000      2.75930E-04
  44.100      3.10720E-04
  45.100      3.27590E-04
  46.000      3.24820E-04
  47.000      3.36670E-04
  48.000      3.61540E-04
  49.000      3.54540E-04
  50.000      3.92490E-04
  50.600      4.82880E-04
  51.200      7.53640E-04
  52.000      7.48510E-04
  53.000      7.48540E-04
  54.000      7.09380E-04
  55.000      7.22430E-04
  56.000      8.47490E-04
  57.000      8.81830E-04
  58.000      8.77530E-04
  59.000      9.17960E-04
  60.000      9.02120E-04
  61.000      9.08300E-04
  62.000      1.00330E-03
  63.000      1.00970E-03
  64.000      1.05300E-03
  65.000      1.05450E-03
  65.800      1.03530E-03
  66.500      1.08840E-03
  67.500      1.13420E-03
  68.500      1.10370E-03
  69.500      1.16580E-03
  70.500      1.13430E-03
  71.600      1.21880E-03
  72.600      1.24380E-03
  73.500      1.26470E-03
  74.500      1.26430E-03
  75.500      1.27690E-03
  76.500      1.27350E-03
  77.500      1.31010E-03
  78.500      1.32030E-03
  79.500      1.34740E-03
  80.500      1.36450E-03
  81.500      1.38790E-03
  82.500      1.41150E-03
  83.500      1.35750E-03
  84.500      1.43520E-03
  85.500      1.44030E-03
  86.500      1.47260E-03
  87.500      1.49020E-03
  88.500      1.50060E-03
  89.500      1.51170E-03
  90.500      1.51140E-03
  91.500      1.27440E-03
  92.500      2.25530E-03
  93.500      2.98600E-03
  94.500      3.70190E-03
  95.500      4.02630E-03
  96.500      4.54430E-03
  97.500      3.58690E-03
  98.500      4.45390E-03
  99.500      4.19610E-03
  100.50      4.41370E-03
  101.50      4.44190E-03
  102.50      3.67350E-03
  103.50      4.42250E-03
  104.50      4.47890E-03
  105.50      4.45900E-03
  106.50      4.36140E-03
  107.50      4.35830E-03
  108.50      4.17280E-03
  109.50      4.35400E-03
  110.50      4.29750E-03
  111.50      4.25960E-03
  112.50      4.16420E-03
  113.50      4.24510E-03
  114.50      4.22130E-03
  115.50      4.15340E-03
  116.50      4.12070E-03
  117.50      3.82440E-03
  118.50      4.03910E-03
  119.50      4.02370E-03
  120.50      3.98840E-03
  121.50      3.30720E-03
  122.50      3.93870E-03
  123.50      3.92470E-03
  124.50      3.88790E-03
  125.50      3.91710E-03
  126.50      3.90310E-03
  127.50      3.88280E-03
  128.50      3.86270E-03
  129.50      3.82580E-03
  130.50      3.79780E-03
  131.50      3.78500E-03
  132.50      3.74970E-03
  133.50      3.73370E-03
  134.50      3.71910E-03
  135.50      3.67310E-03
  136.50      3.63050E-03
  137.50      3.58810E-03
  138.50      3.58570E-03
  139.50      3.52540E-03
  140.50      3.47000E-03
  141.50      3.52690E-03
  142.50      3.46750E-03
  143.50      3.47810E-03
  144.20      3.44420E-03
  144.70      3.43610E-03
  145.50      3.40650E-03
  146.50      3.39430E-03
  147.50      3.37810E-03
  148.50      3.37740E-03
  149.50      3.34260E-03
  150.50      3.33420E-03
  151.20      3.32710E-03
  151.70      3.30110E-03
  152.50      3.28160E-03
  153.50      3.21160E-03
  154.50      3.07480E-03
  155.50      3.07940E-03
  156.50      3.13390E-03
  157.50      3.14570E-03
  158.50      3.13310E-03
  159.50      3.11270E-03
  160.50      3.04890E-03
  161.50      3.02660E-03
  162.50      3.00090E-03
  163.50      2.95180E-03
  164.50      2.83570E-03
  165.50      2.98730E-03
  166.50      2.97350E-03
  167.20      2.92360E-03
  167.70      2.97280E-03
  168.50      2.95120E-03
  169.50      2.93560E-03
  170.50      2.90840E-03
  171.50      2.85040E-03
  172.50      2.85170E-03
  173.50      2.87020E-03
  174.50      2.84650E-03
  175.50      2.81940E-03
  176.50      2.81340E-03
  177.50      2.79780E-03
  178.50      2.78240E-03
  179.50      2.75790E-03
  180.50      2.74410E-03
  181.50      2.72670E-03
  182.50      2.70700E-03
  183.50      2.69530E-03
  184.50      2.67630E-03
  185.50      2.65710E-03
  186.50      2.63930E-03
  187.50      2.62180E-03
  188.50      2.60550E-03
  189.50      2.59590E-03
  190.50      2.58070E-03
  191.50      2.56410E-03
  192.50      2.53250E-03
  193.50      2.53260E-03
  194.50      2.51730E-03
  195.50      2.49800E-03
  196.70      2.48230E-03
  197.60      2.46870E-03
  198.40      2.45690E-03
  199.50      2.43950E-03
  200.50      2.42550E-03
  201.50      2.41050E-03
  202.50      2.39540E-03
  203.50      2.38050E-03
  204.50      2.36430E-03
  205.50      1.83930E-03
  206.50      1.78570E-03
  207.40      1.83240E-03
  207.80      1.87950E-03
  208.50      2.01200E-03
  209.50      2.22790E-03
  210.50      2.28150E-03
  211.50      2.27710E-03
  212.50      2.26280E-03
  213.50      2.24690E-03
  214.50      2.23790E-03
  215.50      2.25960E-03
  216.50      2.19070E-03
  217.50      2.24820E-03
  218.50      2.16930E-03
  219.50      2.22090E-03
  220.50      2.21040E-03
  221.50      2.12920E-03
  222.50      2.18360E-03
  223.50      2.17150E-03
  224.50      2.15670E-03
  225.50      2.08140E-03
  226.50      2.13270E-03
  227.50      2.12040E-03
  228.50      2.10620E-03
  229.50      2.07660E-03
  230.50      2.02320E-03
  231.50      2.06850E-03
  232.50      2.05840E-03
  233.50      2.04650E-03
  234.50      2.03430E-03
  235.50      2.02250E-03
  236.50      2.01080E-03
  237.50      1.99840E-03
  238.50      1.92920E-03
  239.50      1.97110E-03
  240.50      1.96340E-03
  241.50      1.95220E-03
  242.50      1.94210E-03
  243.50      1.93070E-03
  244.50      1.91980E-03
  245.50      1.90760E-03
  246.50      1.89800E-03
  247.50      1.88760E-03
  248.50      1.87640E-03
  249.50      1.81500E-03
  250.50      1.84940E-03
  251.30      1.73810E-03
  251.80      1.83240E-03
  252.50      1.83260E-03
  253.50      1.82490E-03
  254.50      1.81480E-03
  255.50      1.80460E-03
  256.50      1.79480E-03
  257.50      1.78480E-03
  258.50      1.77500E-03
  259.50      1.76330E-03
  260.50      1.75640E-03
  261.50      1.74610E-03
  262.50      1.73720E-03
  263.50      1.72780E-03
  264.50      1.71820E-03
  265.50      1.70890E-03
  266.50      1.69910E-03
  267.50      1.68840E-03
  268.50      1.68130E-03
  269.50      1.67100E-03
  270.50      1.66370E-03
  271.50      1.65450E-03
  272.50      1.64400E-03
  273.50      1.59430E-03
  274.50      1.62850E-03
  275.50      1.61980E-03
  276.50      1.60930E-03
  277.50      1.60280E-03
  278.50      1.59420E-03
  279.50      1.58500E-03
  280.50      1.57750E-03
  281.50      1.56940E-03
  282.50      1.55900E-03
  283.50      1.55240E-03
  284.50      1.54530E-03
  285.50      1.53730E-03
  286.50      1.52920E-03
  287.50      1.52150E-03
  288.50      1.51360E-03
  289.50      1.50580E-03
  291.00      1.49420E-03
  293.00      1.47920E-03
  295.00      1.46240E-03
  297.00      1.44920E-03
  299.00      1.43380E-03
  301.00      1.42020E-03
  303.00      1.40510E-03
  305.00      1.39140E-03
  307.00      1.37850E-03
  309.00      1.36530E-03
  311.00      1.35190E-03
  313.00      1.33880E-03
  315.00      1.32630E-03
  317.00      1.31330E-03
  319.00      1.29800E-03
  321.00      1.27080E-03
  323.00      1.27650E-03
  325.00      1.26440E-03
  327.00      1.25070E-03
  329.00      1.24050E-03
  331.00      1.22910E-03
  333.00      1.21780E-03
  335.00      1.20560E-03
  337.00      1.19540E-03
  339.00      1.18460E-03
  341.00      1.17370E-03
  343.00      1.16390E-03
  345.00      1.15230E-03
  347.00      1.14300E-03
  349.00      1.13240E-03
  351.00      1.12220E-03
  353.00      1.11180E-03
  355.00      1.10170E-03
  357.00      1.09320E-03
  359.00      1.08200E-03
  361.00      1.07320E-03
  363.00      1.06280E-03
  364.00      1.04210E-03
  365.00      9.64220E-04
  367.00      9.57330E-04
  369.00      9.52050E-04
  371.00      9.51420E-04
  373.00      9.55640E-04
  375.00      9.68490E-04
  377.00      9.75350E-04
  379.00      9.90140E-04
  381.00      1.00420E-03
  383.00      9.57780E-04
  385.00      1.00290E-03
  387.00      1.00660E-03
  389.00      9.28560E-04
  391.00      9.94420E-04
  393.00      9.80750E-04
  395.00      9.79450E-04
  397.00      8.96240E-04
  399.00      9.62330E-04
  401.00      9.58090E-04
  403.00      9.32140E-04
  405.00      9.44910E-04
  407.00      9.36240E-04
  409.00      9.08560E-04
  411.00      8.60170E-04
  413.00      9.11670E-04
  415.00      9.05320E-04
  417.00      8.99770E-04
  419.00      8.89470E-04
  421.00      8.74610E-04
  423.00      8.78810E-04
  425.00      8.71840E-04
  427.00      8.64970E-04
  429.00      8.58250E-04
  431.00      8.50660E-04
  433.00      8.20490E-04
  435.00      7.89860E-04
  437.00      8.30670E-04
  439.00      8.21620E-04
  441.00      8.19040E-04
  443.00      8.12630E-04
  445.00      8.06750E-04
  447.00      7.92670E-04
  449.00      7.94560E-04
  451.00      7.88450E-04
  453.00      7.81650E-04
  455.00      7.65290E-04
  457.00      7.71090E-04
  459.00      7.65360E-04
  461.00      7.59700E-04
  463.00      7.53770E-04
  465.00      7.46250E-04
  467.00      7.42320E-04
  469.00      7.15380E-04
  471.00      7.30240E-04
  473.00      7.27110E-04
  475.00      7.21870E-04
  477.00      7.16680E-04
  479.00      7.11550E-04
  481.00      7.06470E-04
  483.00      7.00780E-04
  485.00      6.81380E-04
  487.00      6.48040E-04
  489.00      6.85360E-04
  491.00      6.81850E-04
  493.00      6.73260E-04
  495.00      6.72410E-04
  497.00      6.67750E-04
  499.00      6.63140E-04
  501.00      6.56590E-04
  503.00      6.54040E-04
  505.00      6.49010E-04
  507.00      6.45140E-04
  509.00      6.40760E-04
  511.00      6.36420E-04
  513.00      6.32120E-04
  515.00      6.27860E-04
  517.00      6.23650E-04
  519.00      6.19480E-04
  521.00      6.15350E-04
  523.00      6.11260E-04
  525.00      6.07200E-04
  527.00      6.03150E-04
  529.00      5.99230E-04
  531.00      5.95300E-04
  533.00      5.91400E-04
  535.00      5.87550E-04
  537.00      5.83730E-04
  539.00      5.79940E-04
  541.00      5.67190E-04
  543.00      5.72480E-04
  545.00      5.68820E-04
  547.00      5.65180E-04
  549.00      5.61570E-04
  551.00      5.57980E-04
  553.00      5.54470E-04
  555.00      5.50960E-04
  557.00      5.47480E-04
  559.00      5.43890E-04
  561.00      5.40650E-04
  563.00      5.37270E-04
  565.00      5.33930E-04
  567.00      5.30610E-04
  569.00      5.21910E-04
  571.00      4.95900E-04
  573.00      4.93070E-04
  575.00      4.90260E-04
  577.00      4.87540E-04
  579.00      4.85000E-04
  581.00      4.82650E-04
  583.00      4.81070E-04
  585.00      4.79980E-04
  587.00      4.75240E-04
  589.00      4.78310E-04
  591.00      4.77930E-04
  593.00      4.77770E-04
  595.00      4.77900E-04
  597.00      4.78080E-04
  599.00      4.78530E-04
  601.00      4.77260E-04
  603.00      4.75180E-04
  605.00      4.73720E-04
  607.00      4.70710E-04
  609.00      4.68490E-04
  611.00      4.65300E-04
  613.00      4.62620E-04
  615.00      4.60390E-04
  617.00      4.56580E-04
  619.00      4.55090E-04
  621.00      4.52490E-04
  623.00      4.48570E-04
  625.00      4.47060E-04
  627.00      4.44790E-04
  629.00      4.42260E-04
  631.00      4.37800E-04
  633.00      4.37200E-04
  635.00      4.34820E-04
  637.00      4.32380E-04
  639.00      4.29920E-04
  641.00      4.25070E-04
  643.00      4.25180E-04
  645.00      4.22820E-04
  647.00      4.20480E-04
  649.00      4.18160E-04
  651.00      4.15700E-04
  653.00      4.09930E-04
  655.00      4.06130E-04
  657.00      3.83010E-04
  659.00      4.06010E-04
  661.00      4.04630E-04
  663.00      4.02440E-04
  665.00      4.00290E-04
  667.00      3.96450E-04
  669.00      3.91110E-04
  671.00      3.93820E-04
  673.00      3.91760E-04
  675.00      3.89670E-04
  677.00      3.87600E-04
  679.00      3.85550E-04
  681.00      3.83510E-04
  683.00      3.81480E-04
  685.00      3.79480E-04
  687.00      3.77480E-04
  689.00      3.71510E-04
  691.00      3.73470E-04
  693.00      3.71600E-04
  695.00      3.69670E-04
  697.00      3.67750E-04
  699.00      3.65850E-04
  701.00      3.63960E-04
  703.00      3.62070E-04
  705.00      3.60230E-04
  707.00      3.56570E-04
  709.00      3.56560E-04
  711.00      3.54740E-04
  713.00      3.52940E-04
  715.00      3.51150E-04
  717.00      3.46700E-04
  719.00      3.46160E-04
  721.00      3.45870E-04
  723.00      3.44140E-04
  725.00      3.42410E-04
  727.00      3.40710E-04
  729.00      3.38270E-04
  731.00      3.37320E-04
  733.00      3.35660E-04
  735.00      3.34000E-04
  737.00      3.32350E-04
  739.00      3.30720E-04
  741.00      3.29090E-04
  743.00      3.27480E-04
  745.00      3.25880E-04
  747.00      3.24300E-04
  749.00      3.22700E-04
  751.00      3.21160E-04
  753.00      3.19610E-04
  755.00      3.18070E-04
  757.00      3.16530E-04
  759.00      3.11190E-04
  761.00      3.13350E-04
  763.00      3.12010E-04
  765.00      3.10520E-04
  767.00      3.09050E-04
  769.00      3.07570E-04
  771.00      3.06120E-04
  773.00      3.04660E-04
  775.00      3.03240E-04
  777.00      3.01820E-04
  779.00      3.00400E-04
  781.00      2.98990E-04
  783.00      2.97600E-04
  785.00      2.96250E-04
  787.00      2.94880E-04
  789.00      2.93510E-04
  791.00      2.92150E-04
  793.00      2.90810E-04
  795.00      2.89470E-04
  797.00      2.88130E-04
  799.00      2.86820E-04
  801.00      2.85510E-04
  803.00      2.84200E-04
  805.00      2.82910E-04
  807.00      2.81620E-04
  809.00      2.80340E-04
  811.00      2.79080E-04
  813.00      2.77820E-04
  815.00      2.76560E-04
  817.00      2.75320E-04
  819.00      2.73140E-04
  821.00      2.64170E-04
  823.00      2.61630E-04
  825.00      2.61690E-04
  827.00      2.60770E-04
  829.00      2.59770E-04
  831.00      2.58690E-04
  833.00      2.57570E-04
  835.00      2.56390E-04
  837.00      2.55430E-04
  839.00      2.54430E-04
  841.00      2.53480E-04
  843.00      2.52520E-04
  845.00      2.51420E-04
  847.00      2.50690E-04
  849.00      2.49870E-04
  851.00      2.49020E-04
  853.00      2.48280E-04
  855.00      2.47250E-04
  857.00      2.47030E-04
  859.00      2.45390E-04
  861.00      2.44890E-04
  863.00      2.45150E-04
  865.00      2.43740E-04
  867.00      2.41270E-04
  869.00      2.43150E-04
  871.00      2.43070E-04
  873.00      2.41500E-04
  875.00      2.36400E-04
  877.00      2.39400E-04
  879.00      2.40810E-04
  881.00      2.40410E-04
  883.00      2.39490E-04
  885.00      2.34820E-04
  887.00      2.29260E-04
  889.00      2.35840E-04
  891.00      2.36220E-04
  893.00      2.35380E-04
  895.00      2.34900E-04
  897.00      2.33530E-04
  899.00      2.31040E-04
  901.00      2.21750E-04
  903.00      2.24910E-04
  905.00      2.29090E-04
  907.00      2.28570E-04
  909.00      2.28210E-04
  911.00      2.27080E-04
  913.00      2.26550E-04
  915.00      2.25630E-04
  917.00      2.24570E-04
  919.00      2.23110E-04
  921.00      2.19430E-04
  923.00      2.08990E-04
  925.00      2.17380E-04
  927.00      2.19440E-04
  929.00      2.19330E-04
  931.00      2.18290E-04
  933.00      2.17430E-04
  935.00      2.12930E-04
  937.00      2.15100E-04
  939.00      2.14990E-04
  941.00      2.14140E-04
  943.00      2.13290E-04
  945.00      2.12450E-04
  947.00      2.11400E-04
  949.00      2.10780E-04
  951.00      2.08760E-04
  953.00      2.04970E-04
  955.00      1.95240E-04
  957.00      2.04800E-04
  959.00      2.06130E-04
  961.00      2.05790E-04
  963.00      2.04910E-04
  965.00      2.04300E-04
  967.00      2.03510E-04
  969.00      2.02710E-04
  971.00      2.01770E-04
  973.00      2.01160E-04
  975.00      2.00240E-04
  977.00      1.98750E-04
  979.00      1.98860E-04
  981.00      1.98110E-04
  983.00      1.97350E-04
  985.00      1.96600E-04
  987.00      1.95860E-04
  989.00      1.95110E-04
  991.00      1.94380E-04
  993.00      1.93640E-04
  995.00      1.92910E-04
  997.00      1.92190E-04
  999.00      1.91460E-04
  1002.5      1.86890E-04
  1007.5      1.83810E-04
  1012.5      1.84170E-04
  1017.5      1.84990E-04
  1022.5      1.83280E-04
  1027.5      1.81620E-04
  1032.5      1.79770E-04
  1037.5      1.78340E-04
  1042.5      1.76120E-04
  1047.5      1.75160E-04
  1052.5      1.73590E-04
  1057.5      1.72050E-04
  1062.5      1.70530E-04
  1067.5      1.68980E-04
  1072.5      1.67550E-04
  1077.5      1.66090E-04
  1082.5      1.64070E-04
  1087.5      1.63100E-04
  1092.5      1.56110E-04
  1097.5      1.59000E-04
  1102.5      1.58930E-04
  1107.5      1.57690E-04
  1112.5      1.56370E-04
  1117.5      1.55110E-04
  1122.5      1.53790E-04
  1127.5      1.52520E-04
  1132.5      1.51250E-04
  1137.5      1.49990E-04
  1142.5      1.48750E-04
  1147.5      1.47530E-04
  1152.5      1.46320E-04
  1157.5      1.45120E-04
  1162.5      1.42830E-04
  1167.5      1.42050E-04
  1172.5      1.41630E-04
  1177.5      1.40490E-04
  1182.5      1.39370E-04
  1187.5      1.38250E-04
  1192.5      1.37160E-04
  1197.5      1.35720E-04
  1202.5      1.35000E-04
  1207.5      1.33940E-04
  1212.5      1.32890E-04
  1217.5      1.31860E-04
  1222.5      1.30840E-04
  1227.5      1.29830E-04
  1232.5      1.28830E-04
  1237.5      1.27840E-04
  1242.5      1.26860E-04
  1247.5      1.25900E-04
  1252.5      1.24890E-04
  1257.5      1.24000E-04
  1262.5      1.23070E-04
  1267.5      1.22140E-04
  1272.5      1.21230E-04
  1277.5      1.19580E-04
  1282.5      1.14970E-04
  1287.5      1.18310E-04
  1292.5      1.17680E-04
  1297.5      1.16670E-04
  1302.5      1.15970E-04
  1307.5      1.15120E-04
  1312.5      1.14290E-04
  1317.5      1.13460E-04
  1322.5      1.12640E-04
  1327.5      1.11840E-04
  1332.5      1.11040E-04
  1337.5      1.10250E-04
  1342.5      1.09450E-04
  1347.5      1.08690E-04
  1352.5      1.07920E-04
  1357.5      1.07160E-04
  1362.5      1.06410E-04
  1367.5      1.05670E-04
  1372.5      1.04940E-04
  1377.5      1.04210E-04
  1382.5      1.03490E-04
  1387.5      1.02780E-04
  1392.5      1.02070E-04
  1397.5      1.01370E-04
