 Castelli and Kurucz 2004-2012 Atmosphere
 T     38000.     G    4.00000 [-1.5] N(He)/Ntot=0.0784 VTURB=2  L/H=1.25 NOVER
 Wavelength  Eddington Hnu
   (nm)    (ergs/s/cm2/Hz/sr)
  9.0900      9.59230E-26
  9.3500      3.94520E-25
  9.6100      1.51410E-24
  9.7700      3.35970E-24
  9.9600      8.38470E-24
  10.200      2.54750E-23
  10.380      5.69190E-23
  10.560      1.24070E-22
  10.770      2.98940E-22
  11.040      8.85880E-22
  11.400      3.50990E-21
  11.780      1.38540E-20
  12.130      4.58720E-20
  12.480      1.43030E-19
  12.710      2.92920E-19
  12.840      4.34940E-19
  13.050      8.11750E-19
  13.240      1.40590E-18
  13.390      2.14750E-18
  13.660      4.51370E-18
  13.980      1.05310E-17
  14.330      2.56020E-17
  14.720      6.57650E-17
  15.100      1.58230E-16
  15.520      3.99080E-16
  15.880      8.49940E-16
  16.200      1.62260E-15
  16.600      3.52400E-15
  17.030      7.80790E-15
  17.340      1.35370E-14
  17.680      2.42150E-14
  18.020      4.24090E-14
  18.170      5.39530E-14
  18.610      1.07300E-13
  19.100      2.22040E-13
  19.390      3.35570E-13
  19.840      6.22230E-13
  20.180      9.74560E-13
  20.500      1.46830E-12
  21.050      2.88470E-12
  21.620      5.58720E-12
  21.980      8.33570E-12
  22.300      1.17700E-11
  22.680      1.75040E-11
  23.000      4.30620E-09
  23.400      1.94240E-08
  24.000      4.74840E-08
  24.650      2.96100E-07
  25.240      9.72180E-07
  25.680      6.79590E-07
  26.000      3.14960E-06
  26.400      8.81680E-06
  26.850      1.39550E-05
  27.350      1.83770E-05
  27.850      1.73590E-05
  28.400      2.97750E-05
  29.000      3.49770E-05
  29.600      2.17910E-05
  30.100      2.70510E-06
  30.800      1.28130E-05
  31.800      3.59700E-05
  32.800      4.84530E-05
  33.800      5.15050E-05
  34.800      5.87860E-05
  35.700      8.55270E-05
  36.600      1.11740E-04
  37.500      1.24730E-04
  38.500      1.20350E-04
  39.500      1.51680E-04
  40.500      1.75680E-04
  41.400      1.87420E-04
  42.200      1.89590E-04
  43.000      1.89210E-04
  44.100      2.17640E-04
  45.100      2.31610E-04
  46.000      2.30450E-04
  47.000      2.39570E-04
  48.000      2.60550E-04
  49.000      2.53690E-04
  50.000      2.86950E-04
  50.600      3.59980E-04
  51.200      5.65170E-04
  52.000      5.60130E-04
  53.000      5.56020E-04
  54.000      5.27710E-04
  55.000      5.33270E-04
  56.000      6.44760E-04
  57.000      6.78000E-04
  58.000      6.76220E-04
  59.000      7.10730E-04
  60.000      6.93810E-04
  61.000      7.01550E-04
  62.000      7.90290E-04
  63.000      7.95130E-04
  64.000      8.35990E-04
  65.000      8.38170E-04
  65.800      8.20260E-04
  66.500      8.70050E-04
  67.500      9.11940E-04
  68.500      8.84310E-04
  69.500      9.40740E-04
  70.500      9.10640E-04
  71.600      9.91260E-04
  72.600      1.01430E-03
  73.500      1.03390E-03
  74.500      1.03320E-03
  75.500      1.04510E-03
  76.500      1.04090E-03
  77.500      1.07710E-03
  78.500      1.08330E-03
  79.500      1.11290E-03
  80.500      1.12760E-03
  81.500      1.15070E-03
  82.500      1.17250E-03
  83.500      1.12200E-03
  84.500      1.19560E-03
  85.500      1.20080E-03
  86.500      1.23160E-03
  87.500      1.24850E-03
  88.500      1.25880E-03
  89.500      1.27010E-03
  90.500      1.27120E-03
  91.500      1.12420E-03
  92.500      2.07230E-03
  93.500      2.64940E-03
  94.500      3.04740E-03
  95.500      3.25520E-03
  96.500      3.50880E-03
  97.500      2.93600E-03
  98.500      3.41850E-03
  99.500      3.28100E-03
  100.50      3.39730E-03
  101.50      3.44140E-03
  102.50      3.05970E-03
  103.50      3.44720E-03
  104.50      3.48350E-03
  105.50      3.47460E-03
  106.50      3.41300E-03
  107.50      3.41570E-03
  108.50      3.32980E-03
  109.50      3.42890E-03
  110.50      3.39570E-03
  111.50      3.36940E-03
  112.50      3.30250E-03
  113.50      3.37490E-03
  114.50      3.36350E-03
  115.50      3.31820E-03
  116.50      3.30370E-03
  117.50      3.06950E-03
  118.50      3.24910E-03
  119.50      3.24450E-03
  120.50      3.23200E-03
  121.50      2.83410E-03
  122.50      3.20830E-03
  123.50      3.19110E-03
  124.50      3.16390E-03
  125.50      3.19180E-03
  126.50      3.18550E-03
  127.50      3.17460E-03
  128.50      3.16360E-03
  129.50      3.14040E-03
  130.50      3.12040E-03
  131.50      3.11470E-03
  132.50      3.09110E-03
  133.50      3.08320E-03
  134.50      3.07670E-03
  135.50      3.04150E-03
  136.50      3.00990E-03
  137.50      2.98070E-03
  138.50      2.98480E-03
  139.50      2.93790E-03
  140.50      2.89440E-03
  141.50      2.94840E-03
  142.50      2.90300E-03
  143.50      2.91550E-03
  144.20      2.88950E-03
  144.70      2.88510E-03
  145.50      2.86270E-03
  146.50      2.85670E-03
  147.50      2.84790E-03
  148.50      2.85070E-03
  149.50      2.82310E-03
  150.50      2.82050E-03
  151.20      2.81850E-03
  151.70      2.79620E-03
  152.50      2.78330E-03
  153.50      2.72630E-03
  154.50      2.60880E-03
  155.50      2.61550E-03
  156.50      2.66870E-03
  157.50      2.68500E-03
  158.50      2.67580E-03
  159.50      2.66200E-03
  160.50      2.60830E-03
  161.50      2.59390E-03
  162.50      2.57320E-03
  163.50      2.54730E-03
  164.50      2.45430E-03
  165.50      2.56980E-03
  166.50      2.55900E-03
  167.20      2.51780E-03
  167.70      2.56410E-03
  168.50      2.54680E-03
  169.50      2.53620E-03
  170.50      2.51430E-03
  171.50      2.46640E-03
  172.50      2.47110E-03
  173.50      2.48950E-03
  174.50      2.47070E-03
  175.50      2.44940E-03
  176.50      2.44670E-03
  177.50      2.43580E-03
  178.50      2.42360E-03
  179.50      2.40390E-03
  180.50      2.39420E-03
  181.50      2.38080E-03
  182.50      2.36560E-03
  183.50      2.35730E-03
  184.50      2.34240E-03
  185.50      2.32750E-03
  186.50      2.31310E-03
  187.50      2.29930E-03
  188.50      2.28760E-03
  189.50      2.28050E-03
  190.50      2.26870E-03
  191.50      2.25570E-03
  192.50      2.23110E-03
  193.50      2.23100E-03
  194.50      2.21890E-03
  195.50      2.20350E-03
  196.70      2.19110E-03
  197.60      2.18030E-03
  198.40      2.17100E-03
  199.50      2.15730E-03
  200.50      2.14610E-03
  201.50      2.13410E-03
  202.50      2.12200E-03
  203.50      2.11020E-03
  204.50      2.09650E-03
  205.50      1.67140E-03
  206.50      1.64000E-03
  207.40      1.69690E-03
  207.80      1.74960E-03
  208.50      1.89610E-03
  209.50      2.03110E-03
  210.50      2.03030E-03
  211.50      2.02840E-03
  212.50      2.01710E-03
  213.50      2.00530E-03
  214.50      1.99690E-03
  215.50      2.01440E-03
  216.50      1.96390E-03
  217.50      1.99850E-03
  218.50      1.94770E-03
  219.50      1.97670E-03
  220.50      1.96660E-03
  221.50      1.91600E-03
  222.50      1.94480E-03
  223.50      1.93450E-03
  224.50      1.92360E-03
  225.50      1.87580E-03
  226.50      1.90300E-03
  227.50      1.89290E-03
  228.50      1.88140E-03
  229.50      1.85580E-03
  230.50      1.82650E-03
  231.50      1.85120E-03
  232.50      1.84210E-03
  233.50      1.83230E-03
  234.50      1.82220E-03
  235.50      1.81250E-03
  236.50      1.80280E-03
  237.50      1.79290E-03
  238.50      1.74670E-03
  239.50      1.77040E-03
  240.50      1.76360E-03
  241.50      1.75410E-03
  242.50      1.74580E-03
  243.50      1.73630E-03
  244.50      1.72720E-03
  245.50      1.71700E-03
  246.50      1.70900E-03
  247.50      1.70030E-03
  248.50      1.69090E-03
  249.50      1.63290E-03
  250.50      1.67100E-03
  251.30      1.59100E-03
  251.80      1.65560E-03
  252.50      1.65420E-03
  253.50      1.64770E-03
  254.50      1.63920E-03
  255.50      1.63060E-03
  256.50      1.62230E-03
  257.50      1.61390E-03
  258.50      1.60560E-03
  259.50      1.59560E-03
  260.50      1.58960E-03
  261.50      1.58090E-03
  262.50      1.57340E-03
  263.50      1.56540E-03
  264.50      1.55720E-03
  265.50      1.54930E-03
  266.50      1.54120E-03
  267.50      1.53210E-03
  268.50      1.52580E-03
  269.50      1.51740E-03
  270.50      1.51080E-03
  271.50      1.50300E-03
  272.50      1.49470E-03
  273.50      1.45860E-03
  274.50      1.48080E-03
  275.50      1.47330E-03
  276.50      1.46470E-03
  277.50      1.45870E-03
  278.50      1.45130E-03
  279.50      1.44360E-03
  280.50      1.43710E-03
  281.50      1.43010E-03
  282.50      1.42150E-03
  283.50      1.41570E-03
  284.50      1.40930E-03
  285.50      1.40240E-03
  286.50      1.39540E-03
  287.50      1.38870E-03
  288.50      1.38200E-03
  289.50      1.37520E-03
  291.00      1.36520E-03
  293.00      1.35220E-03
  295.00      1.33800E-03
  297.00      1.32610E-03
  299.00      1.31260E-03
  301.00      1.30080E-03
  303.00      1.28760E-03
  305.00      1.27560E-03
  307.00      1.26430E-03
  309.00      1.25280E-03
  311.00      1.24110E-03
  313.00      1.22960E-03
  315.00      1.21860E-03
  317.00      1.20730E-03
  319.00      1.19440E-03
  321.00      1.17200E-03
  323.00      1.17480E-03
  325.00      1.16420E-03
  327.00      1.15210E-03
  329.00      1.14310E-03
  331.00      1.13300E-03
  333.00      1.12300E-03
  335.00      1.11230E-03
  337.00      1.10320E-03
  339.00      1.09360E-03
  341.00      1.08390E-03
  343.00      1.07510E-03
  345.00      1.06490E-03
  347.00      1.05640E-03
  349.00      1.04700E-03
  351.00      1.03800E-03
  353.00      1.02880E-03
  355.00      1.02000E-03
  357.00      1.01210E-03
  359.00      1.00240E-03
  361.00      9.94420E-04
  363.00      9.85300E-04
  364.00      9.67090E-04
  365.00      9.00730E-04
  367.00      8.94500E-04
  369.00      8.91270E-04
  371.00      8.92810E-04
  373.00      8.97000E-04
  375.00      9.12830E-04
  377.00      9.18750E-04
  379.00      9.25390E-04
  381.00      9.34940E-04
  383.00      8.99370E-04
  385.00      9.30200E-04
  387.00      9.29390E-04
  389.00      8.76160E-04
  391.00      9.17780E-04
  393.00      9.04290E-04
  395.00      9.03910E-04
  397.00      8.46880E-04
  399.00      8.89250E-04
  401.00      8.82890E-04
  403.00      8.64080E-04
  405.00      8.70110E-04
  407.00      8.63120E-04
  409.00      8.46410E-04
  411.00      8.08780E-04
  413.00      8.42190E-04
  415.00      8.35530E-04
  417.00      8.30200E-04
  419.00      8.22470E-04
  421.00      8.10220E-04
  423.00      8.11470E-04
  425.00      8.05300E-04
  427.00      7.99200E-04
  429.00      7.93170E-04
  431.00      7.87060E-04
  433.00      7.68090E-04
  435.00      7.43000E-04
  437.00      7.69510E-04
  439.00      7.61680E-04
  441.00      7.58180E-04
  443.00      7.52520E-04
  445.00      7.47210E-04
  447.00      7.36500E-04
  449.00      7.36290E-04
  451.00      7.30830E-04
  453.00      7.25290E-04
  455.00      7.12810E-04
  457.00      7.15250E-04
  459.00      7.10100E-04
  461.00      7.05020E-04
  463.00      6.99730E-04
  465.00      6.93120E-04
  467.00      6.89660E-04
  469.00      6.67640E-04
  471.00      6.78940E-04
  473.00      6.75700E-04
  475.00      6.70980E-04
  477.00      6.66300E-04
  479.00      6.61680E-04
  481.00      6.57100E-04
  483.00      6.52520E-04
  485.00      6.40530E-04
  487.00      6.12830E-04
  489.00      6.39000E-04
  491.00      6.34890E-04
  493.00      6.28070E-04
  495.00      6.26320E-04
  497.00      6.22110E-04
  499.00      6.17940E-04
  501.00      6.12330E-04
  503.00      6.09690E-04
  505.00      6.05260E-04
  507.00      6.01620E-04
  509.00      5.97650E-04
  511.00      5.93710E-04
  513.00      5.89800E-04
  515.00      5.85940E-04
  517.00      5.82110E-04
  519.00      5.78320E-04
  521.00      5.74570E-04
  523.00      5.70850E-04
  525.00      5.67150E-04
  527.00      5.63470E-04
  529.00      5.59900E-04
  531.00      5.56320E-04
  533.00      5.52770E-04
  535.00      5.49260E-04
  537.00      5.45780E-04
  539.00      5.42320E-04
  541.00      5.32610E-04
  543.00      5.35520E-04
  545.00      5.32170E-04
  547.00      5.28840E-04
  549.00      5.25550E-04
  551.00      5.22270E-04
  553.00      5.19060E-04
  555.00      5.15860E-04
  557.00      5.12670E-04
  559.00      5.09380E-04
  561.00      5.06420E-04
  563.00      5.03330E-04
  565.00      5.00270E-04
  567.00      4.97240E-04
  569.00      4.89630E-04
  571.00      4.67450E-04
  573.00      4.64810E-04
  575.00      4.62210E-04
  577.00      4.59740E-04
  579.00      4.57580E-04
  581.00      4.55840E-04
  583.00      4.54730E-04
  585.00      4.53840E-04
  587.00      4.49830E-04
  589.00      4.52520E-04
  591.00      4.52210E-04
  593.00      4.52210E-04
  595.00      4.52560E-04
  597.00      4.52380E-04
  599.00      4.51790E-04
  601.00      4.49910E-04
  603.00      4.47370E-04
  605.00      4.45060E-04
  607.00      4.42070E-04
  609.00      4.40120E-04
  611.00      4.37140E-04
  613.00      4.34660E-04
  615.00      4.32690E-04
  617.00      4.29050E-04
  619.00      4.27810E-04
  621.00      4.25410E-04
  623.00      4.21640E-04
  625.00      4.20500E-04
  627.00      4.18310E-04
  629.00      4.15980E-04
  631.00      4.11820E-04
  633.00      4.11380E-04
  635.00      4.09120E-04
  637.00      4.06870E-04
  639.00      4.04630E-04
  641.00      4.00180E-04
  643.00      4.00220E-04
  645.00      3.98040E-04
  647.00      3.95880E-04
  649.00      3.93740E-04
  651.00      3.91600E-04
  653.00      3.86600E-04
  655.00      3.84720E-04
  657.00      3.64960E-04
  659.00      3.83020E-04
  661.00      3.81220E-04
  663.00      3.79190E-04
  665.00      3.77200E-04
  667.00      3.74040E-04
  669.00      3.69230E-04
  671.00      3.71220E-04
  673.00      3.69300E-04
  675.00      3.67370E-04
  677.00      3.65450E-04
  679.00      3.63550E-04
  681.00      3.61660E-04
  683.00      3.59780E-04
  685.00      3.57920E-04
  687.00      3.56070E-04
  689.00      3.51210E-04
  691.00      3.52410E-04
  693.00      3.50620E-04
  695.00      3.48820E-04
  697.00      3.47050E-04
  699.00      3.45280E-04
  701.00      3.43520E-04
  703.00      3.41770E-04
  705.00      3.40060E-04
  707.00      3.36820E-04
  709.00      3.36650E-04
  711.00      3.34960E-04
  713.00      3.33290E-04
  715.00      3.31630E-04
  717.00      3.27910E-04
  719.00      3.27410E-04
  721.00      3.26710E-04
  723.00      3.25100E-04
  725.00      3.23500E-04
  727.00      3.21910E-04
  729.00      3.19730E-04
  731.00      3.18760E-04
  733.00      3.17210E-04
  735.00      3.15660E-04
  737.00      3.14130E-04
  739.00      3.12610E-04
  741.00      3.11100E-04
  743.00      3.09600E-04
  745.00      3.08100E-04
  747.00      3.06630E-04
  749.00      3.05140E-04
  751.00      3.03700E-04
  753.00      3.02260E-04
  755.00      3.00820E-04
  757.00      2.99390E-04
  759.00      2.95180E-04
  761.00      2.96540E-04
  763.00      2.95170E-04
  765.00      2.93790E-04
  767.00      2.92410E-04
  769.00      2.91030E-04
  771.00      2.89680E-04
  773.00      2.88320E-04
  775.00      2.87000E-04
  777.00      2.85660E-04
  779.00      2.84340E-04
  781.00      2.83020E-04
  783.00      2.81730E-04
  785.00      2.80460E-04
  787.00      2.79180E-04
  789.00      2.77900E-04
  791.00      2.76630E-04
  793.00      2.75370E-04
  795.00      2.74120E-04
  797.00      2.72870E-04
  799.00      2.71650E-04
  801.00      2.70420E-04
  803.00      2.69200E-04
  805.00      2.67990E-04
  807.00      2.66790E-04
  809.00      2.65590E-04
  811.00      2.64410E-04
  813.00      2.63230E-04
  815.00      2.62060E-04
  817.00      2.60900E-04
  819.00      2.58930E-04
  821.00      2.50980E-04
  823.00      2.48790E-04
  825.00      2.48750E-04
  827.00      2.47780E-04
  829.00      2.46820E-04
  831.00      2.45800E-04
  833.00      2.44760E-04
  835.00      2.43670E-04
  837.00      2.42790E-04
  839.00      2.41880E-04
  841.00      2.41040E-04
  843.00      2.40200E-04
  845.00      2.39260E-04
  847.00      2.38560E-04
  849.00      2.37850E-04
  851.00      2.36950E-04
  853.00      2.36430E-04
  855.00      2.35150E-04
  857.00      2.35350E-04
  859.00      2.33570E-04
  861.00      2.32960E-04
  863.00      2.33670E-04
  865.00      2.32360E-04
  867.00      2.29040E-04
  869.00      2.31900E-04
  871.00      2.31810E-04
  873.00      2.30480E-04
  875.00      2.24270E-04
  877.00      2.28430E-04
  879.00      2.29440E-04
  881.00      2.28750E-04
  883.00      2.27860E-04
  885.00      2.23980E-04
  887.00      2.17860E-04
  889.00      2.24570E-04
  891.00      2.24620E-04
  893.00      2.23540E-04
  895.00      2.22910E-04
  897.00      2.22020E-04
  899.00      2.19950E-04
  901.00      2.11480E-04
  903.00      2.14860E-04
  905.00      2.17980E-04
  907.00      2.17150E-04
  909.00      2.16560E-04
  911.00      2.15430E-04
  913.00      2.14920E-04
  915.00      2.14060E-04
  917.00      2.13130E-04
  919.00      2.12220E-04
  921.00      2.09460E-04
  923.00      1.99970E-04
  925.00      2.07720E-04
  927.00      2.08800E-04
  929.00      2.08160E-04
  931.00      2.07220E-04
  933.00      2.06510E-04
  935.00      2.02890E-04
  937.00      2.04190E-04
  939.00      2.04090E-04
  941.00      2.03290E-04
  943.00      2.02500E-04
  945.00      2.01710E-04
  947.00      2.00760E-04
  949.00      2.00140E-04
  951.00      1.98790E-04
  953.00      1.96090E-04
  955.00      1.87330E-04
  957.00      1.95660E-04
  959.00      1.96220E-04
  961.00      1.95500E-04
  963.00      1.94660E-04
  965.00      1.94050E-04
  967.00      1.93310E-04
  969.00      1.92560E-04
  971.00      1.91690E-04
  973.00      1.91100E-04
  975.00      1.90290E-04
  977.00      1.88760E-04
  979.00      1.88940E-04
  981.00      1.88230E-04
  983.00      1.87520E-04
  985.00      1.86820E-04
  987.00      1.86120E-04
  989.00      1.85420E-04
  991.00      1.84730E-04
  993.00      1.84040E-04
  995.00      1.83350E-04
  997.00      1.82670E-04
  999.00      1.81990E-04
  1002.5      1.78620E-04
  1007.5      1.75800E-04
  1012.5      1.75510E-04
  1017.5      1.75890E-04
  1022.5      1.74290E-04
  1027.5      1.72720E-04
  1032.5      1.71010E-04
  1037.5      1.69640E-04
  1042.5      1.67600E-04
  1047.5      1.66640E-04
  1052.5      1.65170E-04
  1057.5      1.63710E-04
  1062.5      1.62280E-04
  1067.5      1.60830E-04
  1072.5      1.59470E-04
  1077.5      1.58090E-04
  1082.5      1.56210E-04
  1087.5      1.55380E-04
  1092.5      1.49710E-04
  1097.5      1.52010E-04
  1102.5      1.51350E-04
  1107.5      1.50170E-04
  1112.5      1.48920E-04
  1117.5      1.47730E-04
  1122.5      1.46490E-04
  1127.5      1.45280E-04
  1132.5      1.44080E-04
  1137.5      1.42900E-04
  1142.5      1.41730E-04
  1147.5      1.40570E-04
  1152.5      1.39430E-04
  1157.5      1.38300E-04
  1162.5      1.36320E-04
  1167.5      1.35530E-04
  1172.5      1.34990E-04
  1177.5      1.33920E-04
  1182.5      1.32860E-04
  1187.5      1.31810E-04
  1192.5      1.30770E-04
  1197.5      1.29480E-04
  1202.5      1.28730E-04
  1207.5      1.27730E-04
  1212.5      1.26740E-04
  1217.5      1.25760E-04
  1222.5      1.24790E-04
  1227.5      1.23830E-04
  1232.5      1.22890E-04
  1237.5      1.21950E-04
  1242.5      1.21030E-04
  1247.5      1.20120E-04
  1252.5      1.19170E-04
  1257.5      1.18320E-04
  1262.5      1.17430E-04
  1267.5      1.16560E-04
  1272.5      1.15700E-04
  1277.5      1.14330E-04
  1282.5      1.10580E-04
  1287.5      1.13070E-04
  1292.5      1.12330E-04
  1297.5      1.11390E-04
  1302.5      1.10710E-04
  1307.5      1.09910E-04
  1312.5      1.09110E-04
  1317.5      1.08330E-04
  1322.5      1.07560E-04
  1327.5      1.06790E-04
  1332.5      1.06030E-04
  1337.5      1.05280E-04
  1342.5      1.04520E-04
  1347.5      1.03800E-04
  1352.5      1.03080E-04
  1357.5      1.02360E-04
  1362.5      1.01640E-04
  1367.5      1.00940E-04
  1372.5      1.00240E-04
  1377.5      9.95520E-05
  1382.5      9.88690E-05
  1387.5      9.81930E-05
  1392.5      9.75230E-05
  1397.5      9.68610E-05
