 Castelli and Kurucz 2004-2012 Atmosphere
 T     48000.     G    5.00000 [-1.5] N(He)/Ntot=0.0784 VTURB=2  L/H=1.25 NOVER
 Wavelength  Eddington Hnu
   (nm)    (ergs/s/cm2/Hz/sr)
  9.0900      6.67930E-19
  9.3500      1.81120E-18
  9.6100      4.64050E-18
  9.7700      8.11090E-18
  9.9600      1.53420E-17
  10.200      3.31920E-17
  10.380      5.79450E-17
  10.560      9.93620E-17
  10.770      1.82300E-16
  11.040      3.85210E-16
  11.400      9.91680E-16
  11.780      2.54120E-15
  12.130      5.76640E-15
  12.480      1.25410E-14
  12.710      2.04680E-14
  12.840      2.68250E-14
  13.050      4.10430E-14
  13.240      5.97170E-14
  13.390      7.97550E-14
  13.660      1.32380E-13
  13.980      2.36400E-13
  14.330      4.33830E-13
  14.720      8.24000E-13
  15.100      1.51260E-12
  15.520      2.85580E-12
  15.880      4.81120E-12
  16.200      7.54480E-12
  16.600      1.29240E-11
  17.030      2.23850E-11
  17.340      3.28040E-11
  17.680      4.93840E-11
  18.020      7.31680E-11
  18.170      8.59720E-11
  18.610      1.40130E-10
  19.100      2.33630E-10
  19.390      3.13500E-10
  19.840      4.84940E-10
  20.180      6.66390E-10
  20.500      8.91940E-10
  21.050      1.44120E-09
  21.620      2.31090E-09
  21.980      3.07950E-09
  22.300      3.93840E-09
  22.680      5.22230E-09
  23.000      2.24320E-07
  23.400      1.28840E-06
  24.000      1.13960E-05
  24.650      7.76340E-05
  25.240      1.80340E-04
  25.680      1.50910E-04
  26.000      3.08670E-04
  26.400      4.56500E-04
  26.850      5.18820E-04
  27.350      6.15000E-04
  27.850      6.16840E-04
  28.400      7.56560E-04
  29.000      8.57350E-04
  29.600      7.70270E-04
  30.100      3.66830E-04
  30.800      5.05930E-04
  31.800      6.52280E-04
  32.800      7.41130E-04
  33.800      6.95480E-04
  34.800      7.17640E-04
  35.700      9.59830E-04
  36.600      1.14190E-03
  37.500      1.22610E-03
  38.500      1.13000E-03
  39.500      1.35890E-03
  40.500      1.52200E-03
  41.400      1.57780E-03
  42.200      1.56440E-03
  43.000      1.57350E-03
  44.100      1.74180E-03
  45.100      1.80710E-03
  46.000      1.77400E-03
  47.000      1.82200E-03
  48.000      1.92010E-03
  49.000      1.87020E-03
  50.000      2.00960E-03
  50.600      1.94260E-03
  51.200      2.20740E-03
  52.000      2.20590E-03
  53.000      2.22890E-03
  54.000      2.11590E-03
  55.000      2.07800E-03
  56.000      2.33740E-03
  57.000      2.40490E-03
  58.000      2.40670E-03
  59.000      2.47080E-03
  60.000      2.44090E-03
  61.000      2.37780E-03
  62.000      2.53990E-03
  63.000      2.52080E-03
  64.000      2.61340E-03
  65.000      2.59410E-03
  65.800      2.54330E-03
  66.500      2.65460E-03
  67.500      2.69870E-03
  68.500      2.62610E-03
  69.500      2.74260E-03
  70.500      2.65880E-03
  71.600      2.78520E-03
  72.600      2.82460E-03
  73.500      2.84130E-03
  74.500      2.83230E-03
  75.500      2.83080E-03
  76.500      2.79120E-03
  77.500      2.86390E-03
  78.500      2.84920E-03
  79.500      2.88380E-03
  80.500      2.91710E-03
  81.500      2.93500E-03
  82.500      2.95740E-03
  83.500      2.87020E-03
  84.500      2.97000E-03
  85.500      2.95090E-03
  86.500      2.99740E-03
  87.500      3.01670E-03
  88.500      3.01330E-03
  89.500      3.01850E-03
  90.500      2.99840E-03
  91.500      2.32410E-03
  92.500      3.61920E-03
  93.500      4.56980E-03
  94.500      5.59930E-03
  95.500      6.13400E-03
  96.500      6.96970E-03
  97.500      5.59140E-03
  98.500      6.87570E-03
  99.500      6.39450E-03
  100.50      6.82140E-03
  101.50      6.76850E-03
  102.50      5.53700E-03
  103.50      6.73990E-03
  104.50      6.79710E-03
  105.50      6.75640E-03
  106.50      6.59840E-03
  107.50      6.60640E-03
  108.50      6.23440E-03
  109.50      6.53610E-03
  110.50      6.44110E-03
  111.50      6.38380E-03
  112.50      6.27410E-03
  113.50      6.33030E-03
  114.50      6.28490E-03
  115.50      6.18490E-03
  116.50      6.09300E-03
  117.50      5.80970E-03
  118.50      6.02320E-03
  119.50      5.94660E-03
  120.50      5.89670E-03
  121.50      4.84790E-03
  122.50      5.78970E-03
  123.50      5.70560E-03
  124.50      5.65970E-03
  125.50      5.70280E-03
  126.50      5.66140E-03
  127.50      5.61590E-03
  128.50      5.57060E-03
  129.50      5.52630E-03
  130.50      5.46300E-03
  131.50      5.42430E-03
  132.50      5.36460E-03
  133.50      5.33770E-03
  134.50      5.30360E-03
  135.50      5.22700E-03
  136.50      5.14670E-03
  137.50      5.06120E-03
  138.50      5.07350E-03
  139.50      5.00640E-03
  140.50      4.91030E-03
  141.50      4.97940E-03
  142.50      4.91780E-03
  143.50      4.90690E-03
  144.20      4.83460E-03
  144.70      4.82530E-03
  145.50      4.78470E-03
  146.50      4.75420E-03
  147.50      4.73730E-03
  148.50      4.73030E-03
  149.50      4.68380E-03
  150.50      4.65620E-03
  151.20      4.63870E-03
  151.70      4.60280E-03
  152.50      4.58480E-03
  153.50      4.51720E-03
  154.50      4.33820E-03
  155.50      4.32950E-03
  156.50      4.40380E-03
  157.50      4.39020E-03
  158.50      4.34860E-03
  159.50      4.31990E-03
  160.50      4.26150E-03
  161.50      4.22990E-03
  162.50      4.18480E-03
  163.50      4.08990E-03
  164.50      3.91670E-03
  165.50      4.12460E-03
  166.50      4.10210E-03
  167.20      4.05080E-03
  167.70      4.07210E-03
  168.50      4.04750E-03
  169.50      4.02010E-03
  170.50      3.98390E-03
  171.50      3.90490E-03
  172.50      3.90460E-03
  173.50      3.90510E-03
  174.50      3.87230E-03
  175.50      3.83910E-03
  176.50      3.81690E-03
  177.50      3.78990E-03
  178.50      3.76440E-03
  179.50      3.73280E-03
  180.50      3.70680E-03
  181.50      3.68010E-03
  182.50      3.65290E-03
  183.50      3.62780E-03
  184.50      3.60160E-03
  185.50      3.57410E-03
  186.50      3.54860E-03
  187.50      3.52270E-03
  188.50      3.49640E-03
  189.50      3.47610E-03
  190.50      3.45140E-03
  191.50      3.42660E-03
  192.50      3.39120E-03
  193.50      3.37880E-03
  194.50      3.35530E-03
  195.50      3.33020E-03
  196.70      3.30340E-03
  197.60      3.28210E-03
  198.40      3.26480E-03
  199.50      3.23950E-03
  200.50      3.21770E-03
  201.50      3.19550E-03
  202.50      3.17340E-03
  203.50      3.15150E-03
  204.50      3.12710E-03
  205.50      2.42160E-03
  206.50      2.33900E-03
  207.40      2.37350E-03
  207.80      2.41810E-03
  208.50      2.54220E-03
  209.50      2.81400E-03
  210.50      2.98210E-03
  211.50      2.99190E-03
  212.50      2.97280E-03
  213.50      2.94690E-03
  214.50      2.93240E-03
  215.50      2.95820E-03
  216.50      2.86170E-03
  217.50      2.94450E-03
  218.50      2.82420E-03
  219.50      2.90650E-03
  220.50      2.89500E-03
  221.50      2.76250E-03
  222.50      2.85680E-03
  223.50      2.84200E-03
  224.50      2.81830E-03
  225.50      2.69440E-03
  226.50      2.78600E-03
  227.50      2.76930E-03
  228.50      2.74980E-03
  229.50      2.71720E-03
  230.50      2.61280E-03
  231.50      2.69300E-03
  232.50      2.68130E-03
  233.50      2.66440E-03
  234.50      2.64730E-03
  235.50      2.63050E-03
  236.50      2.61390E-03
  237.50      2.59630E-03
  238.50      2.48470E-03
  239.50      2.55920E-03
  240.50      2.54640E-03
  241.50      2.53130E-03
  242.50      2.51740E-03
  243.50      2.50140E-03
  244.50      2.48620E-03
  245.50      2.46910E-03
  246.50      2.45570E-03
  247.50      2.44100E-03
  248.50      2.42560E-03
  249.50      2.36860E-03
  250.50      2.38250E-03
  251.30      2.21310E-03
  251.80      2.36490E-03
  252.50      2.36180E-03
  253.50      2.35360E-03
  254.50      2.33960E-03
  255.50      2.32550E-03
  256.50      2.31190E-03
  257.50      2.29800E-03
  258.50      2.28440E-03
  259.50      2.26780E-03
  260.50      2.25780E-03
  261.50      2.24350E-03
  262.50      2.23150E-03
  263.50      2.21850E-03
  264.50      2.20540E-03
  265.50      2.19280E-03
  266.50      2.17990E-03
  267.50      2.16560E-03
  268.50      2.15470E-03
  269.50      2.14160E-03
  270.50      2.13040E-03
  271.50      2.11810E-03
  272.50      2.10430E-03
  273.50      2.02460E-03
  274.50      2.08220E-03
  275.50      2.07040E-03
  276.50      2.05810E-03
  277.50      2.04710E-03
  278.50      2.03540E-03
  279.50      2.02370E-03
  280.50      2.01300E-03
  281.50      2.00180E-03
  282.50      1.98980E-03
  283.50      1.97940E-03
  284.50      1.96900E-03
  285.50      1.95810E-03
  286.50      1.94730E-03
  287.50      1.93670E-03
  288.50      1.92610E-03
  289.50      1.91550E-03
  291.00      1.90000E-03
  293.00      1.87960E-03
  295.00      1.85880E-03
  297.00      1.83930E-03
  299.00      1.81890E-03
  301.00      1.80030E-03
  303.00      1.78050E-03
  305.00      1.76200E-03
  307.00      1.74360E-03
  309.00      1.72660E-03
  311.00      1.70880E-03
  313.00      1.69110E-03
  315.00      1.67430E-03
  317.00      1.65710E-03
  319.00      1.63880E-03
  321.00      1.59650E-03
  323.00      1.60810E-03
  325.00      1.59210E-03
  327.00      1.57430E-03
  329.00      1.56060E-03
  331.00      1.54530E-03
  333.00      1.53030E-03
  335.00      1.51480E-03
  337.00      1.50090E-03
  339.00      1.48630E-03
  341.00      1.47180E-03
  343.00      1.45840E-03
  345.00      1.44390E-03
  347.00      1.43090E-03
  349.00      1.41750E-03
  351.00      1.40440E-03
  353.00      1.39100E-03
  355.00      1.37800E-03
  357.00      1.36570E-03
  359.00      1.35250E-03
  361.00      1.34040E-03
  363.00      1.32770E-03
  364.00      1.29620E-03
  365.00      1.18710E-03
  367.00      1.17790E-03
  369.00      1.17020E-03
  371.00      1.16780E-03
  373.00      1.17270E-03
  375.00      1.18530E-03
  377.00      1.19740E-03
  379.00      1.21540E-03
  381.00      1.23330E-03
  383.00      1.18530E-03
  385.00      1.22780E-03
  387.00      1.23440E-03
  389.00      1.14030E-03
  391.00      1.21710E-03
  393.00      1.20350E-03
  395.00      1.19930E-03
  397.00      1.09880E-03
  399.00      1.17700E-03
  401.00      1.17400E-03
  403.00      1.14380E-03
  405.00      1.15780E-03
  407.00      1.14640E-03
  409.00      1.10780E-03
  411.00      1.05230E-03
  413.00      1.11580E-03
  415.00      1.10940E-03
  417.00      1.10110E-03
  419.00      1.08530E-03
  421.00      1.06570E-03
  423.00      1.07420E-03
  425.00      1.06550E-03
  427.00      1.05680E-03
  429.00      1.04820E-03
  431.00      1.03790E-03
  433.00      9.97040E-04
  435.00      9.62850E-04
  437.00      1.01220E-03
  439.00      1.00520E-03
  441.00      9.98880E-04
  443.00      9.90990E-04
  445.00      9.83250E-04
  447.00      9.70060E-04
  449.00      9.67970E-04
  451.00      9.60400E-04
  453.00      9.50600E-04
  455.00      9.27040E-04
  457.00      9.38450E-04
  459.00      9.31290E-04
  461.00      9.24180E-04
  463.00      9.16890E-04
  465.00      9.08900E-04
  467.00      9.02140E-04
  469.00      8.65910E-04
  471.00      8.88810E-04
  473.00      8.83270E-04
  475.00      8.76720E-04
  477.00      8.70230E-04
  479.00      8.63810E-04
  481.00      8.57460E-04
  483.00      8.49670E-04
  485.00      8.23470E-04
  487.00      7.85950E-04
  489.00      8.29970E-04
  491.00      8.26760E-04
  493.00      8.18630E-04
  495.00      8.14960E-04
  497.00      8.09140E-04
  499.00      8.03400E-04
  501.00      7.96710E-04
  503.00      7.92070E-04
  505.00      7.86300E-04
  507.00      7.80980E-04
  509.00      7.75530E-04
  511.00      7.70130E-04
  513.00      7.64790E-04
  515.00      7.59500E-04
  517.00      7.54270E-04
  519.00      7.49090E-04
  521.00      7.43970E-04
  523.00      7.38900E-04
  525.00      7.33860E-04
  527.00      7.28860E-04
  529.00      7.23980E-04
  531.00      7.19110E-04
  533.00      7.14280E-04
  535.00      7.09510E-04
  537.00      7.04780E-04
  539.00      7.00090E-04
  541.00      6.81120E-04
  543.00      6.90550E-04
  545.00      6.86340E-04
  547.00      6.81830E-04
  549.00      6.77380E-04
  551.00      6.72950E-04
  553.00      6.68600E-04
  555.00      6.64280E-04
  557.00      6.59980E-04
  559.00      6.55610E-04
  561.00      6.51540E-04
  563.00      6.47380E-04
  565.00      6.43260E-04
  567.00      6.39170E-04
  569.00      6.27620E-04
  571.00      5.91550E-04
  573.00      5.88100E-04
  575.00      5.84680E-04
  577.00      5.81340E-04
  579.00      5.78170E-04
  581.00      5.74960E-04
  583.00      5.72890E-04
  585.00      5.71010E-04
  587.00      5.67330E-04
  589.00      5.68470E-04
  591.00      5.67860E-04
  593.00      5.67560E-04
  595.00      5.67700E-04
  597.00      5.68100E-04
  599.00      5.69260E-04
  601.00      5.68760E-04
  603.00      5.68480E-04
  605.00      5.67800E-04
  607.00      5.64410E-04
  609.00      5.61600E-04
  611.00      5.58640E-04
  613.00      5.55680E-04
  615.00      5.53100E-04
  617.00      5.48100E-04
  619.00      5.46410E-04
  621.00      5.43420E-04
  623.00      5.38290E-04
  625.00      5.36550E-04
  627.00      5.33990E-04
  629.00      5.30890E-04
  631.00      5.25030E-04
  633.00      5.24420E-04
  635.00      5.21790E-04
  637.00      5.18800E-04
  639.00      5.15460E-04
  641.00      5.09250E-04
  643.00      5.09900E-04
  645.00      5.07110E-04
  647.00      5.04250E-04
  649.00      5.01410E-04
  651.00      4.97950E-04
  653.00      4.90400E-04
  655.00      4.85540E-04
  657.00      4.59310E-04
  659.00      4.85980E-04
  661.00      4.84880E-04
  663.00      4.82210E-04
  665.00      4.79560E-04
  667.00      4.75170E-04
  669.00      4.67970E-04
  671.00      4.71680E-04
  673.00      4.69160E-04
  675.00      4.66610E-04
  677.00      4.64090E-04
  679.00      4.61580E-04
  681.00      4.59100E-04
  683.00      4.56630E-04
  685.00      4.54180E-04
  687.00      4.51740E-04
  689.00      4.42850E-04
  691.00      4.46470E-04
  693.00      4.44590E-04
  695.00      4.42240E-04
  697.00      4.39910E-04
  699.00      4.37600E-04
  701.00      4.35300E-04
  703.00      4.33010E-04
  705.00      4.30760E-04
  707.00      4.27520E-04
  709.00      4.26300E-04
  711.00      4.24090E-04
  713.00      4.21900E-04
  715.00      4.19720E-04
  717.00      4.13180E-04
  719.00      4.12560E-04
  721.00      4.13300E-04
  723.00      4.11200E-04
  725.00      4.09110E-04
  727.00      4.07030E-04
  729.00      4.04680E-04
  731.00      4.02920E-04
  733.00      4.00900E-04
  735.00      3.98890E-04
  737.00      3.96890E-04
  739.00      3.94900E-04
  741.00      3.92940E-04
  743.00      3.90980E-04
  745.00      3.89040E-04
  747.00      3.87120E-04
  749.00      3.85200E-04
  751.00      3.83310E-04
  753.00      3.81430E-04
  755.00      3.79560E-04
  757.00      3.77700E-04
  759.00      3.69370E-04
  761.00      3.73470E-04
  763.00      3.72220E-04
  765.00      3.70420E-04
  767.00      3.68630E-04
  769.00      3.66850E-04
  771.00      3.65090E-04
  773.00      3.63340E-04
  775.00      3.61610E-04
  777.00      3.59880E-04
  779.00      3.58170E-04
  781.00      3.56470E-04
  783.00      3.54780E-04
  785.00      3.53110E-04
  787.00      3.51450E-04
  789.00      3.49800E-04
  791.00      3.48160E-04
  793.00      3.46530E-04
  795.00      3.44910E-04
  797.00      3.43300E-04
  799.00      3.41700E-04
  801.00      3.40120E-04
  803.00      3.38540E-04
  805.00      3.36980E-04
  807.00      3.35430E-04
  809.00      3.33890E-04
  811.00      3.32360E-04
  813.00      3.30840E-04
  815.00      3.29330E-04
  817.00      3.27820E-04
  819.00      3.25000E-04
  821.00      3.12290E-04
  823.00      3.09070E-04
  825.00      3.09120E-04
  827.00      3.08270E-04
  829.00      3.06980E-04
  831.00      3.05670E-04
  833.00      3.04360E-04
  835.00      3.03060E-04
  837.00      3.01820E-04
  839.00      3.00580E-04
  841.00      2.99400E-04
  843.00      2.98230E-04
  845.00      2.97050E-04
  847.00      2.96010E-04
  849.00      2.95050E-04
  851.00      2.94050E-04
  853.00      2.93140E-04
  855.00      2.92060E-04
  857.00      2.91370E-04
  859.00      2.90230E-04
  861.00      2.89430E-04
  863.00      2.89030E-04
  865.00      2.87960E-04
  867.00      2.86340E-04
  869.00      2.86760E-04
  871.00      2.86330E-04
  873.00      2.85190E-04
  875.00      2.82090E-04
  877.00      2.83320E-04
  879.00      2.83850E-04
  881.00      2.83490E-04
  883.00      2.82650E-04
  885.00      2.79030E-04
  887.00      2.74990E-04
  889.00      2.78970E-04
  891.00      2.79330E-04
  893.00      2.78690E-04
  895.00      2.77860E-04
  897.00      2.76420E-04
  899.00      2.73730E-04
  901.00      2.65840E-04
  903.00      2.67700E-04
  905.00      2.71110E-04
  907.00      2.70820E-04
  909.00      2.70220E-04
  911.00      2.68810E-04
  913.00      2.68350E-04
  915.00      2.67250E-04
  917.00      2.65850E-04
  919.00      2.63970E-04
  921.00      2.60160E-04
  923.00      2.50430E-04
  925.00      2.57410E-04
  927.00      2.59560E-04
  929.00      2.59420E-04
  931.00      2.58560E-04
  933.00      2.57040E-04
  935.00      2.50640E-04
  937.00      2.54450E-04
  939.00      2.54360E-04
  941.00      2.53500E-04
  943.00      2.52480E-04
  945.00      2.51480E-04
  947.00      2.50410E-04
  949.00      2.49210E-04
  951.00      2.47160E-04
  953.00      2.42810E-04
  955.00      2.33070E-04
  957.00      2.42040E-04
  959.00      2.43640E-04
  961.00      2.43480E-04
  963.00      2.42620E-04
  965.00      2.41720E-04
  967.00      2.40780E-04
  969.00      2.39840E-04
  971.00      2.38860E-04
  973.00      2.37980E-04
  975.00      2.36650E-04
  977.00      2.34850E-04
  979.00      2.35220E-04
  981.00      2.34320E-04
  983.00      2.33420E-04
  985.00      2.32520E-04
  987.00      2.31630E-04
  989.00      2.30750E-04
  991.00      2.29870E-04
  993.00      2.28990E-04
  995.00      2.28120E-04
  997.00      2.27250E-04
  999.00      2.26260E-04
  1002.5      2.21080E-04
  1007.5      2.17470E-04
  1012.5      2.17120E-04
  1017.5      2.18650E-04
  1022.5      2.16630E-04
  1027.5      2.14640E-04
  1032.5      2.12590E-04
  1037.5      2.10730E-04
  1042.5      2.07760E-04
  1047.5      2.06930E-04
  1052.5      2.05070E-04
  1057.5      2.03230E-04
  1062.5      2.01410E-04
  1067.5      1.99620E-04
  1072.5      1.97860E-04
  1077.5      1.96120E-04
  1082.5      1.94080E-04
  1087.5      1.92480E-04
  1092.5      1.84650E-04
  1097.5      1.87510E-04
  1102.5      1.87700E-04
  1107.5      1.86130E-04
  1112.5      1.84540E-04
  1117.5      1.83070E-04
  1122.5      1.81510E-04
  1127.5      1.79980E-04
  1132.5      1.78470E-04
  1137.5      1.76980E-04
  1142.5      1.75500E-04
  1147.5      1.74040E-04
  1152.5      1.72600E-04
  1157.5      1.71180E-04
  1162.5      1.67880E-04
  1167.5      1.67020E-04
  1172.5      1.67020E-04
  1177.5      1.65670E-04
  1182.5      1.64330E-04
  1187.5      1.63010E-04
  1192.5      1.61710E-04
  1197.5      1.60300E-04
  1202.5      1.59140E-04
  1207.5      1.57880E-04
  1212.5      1.56640E-04
  1217.5      1.55410E-04
  1222.5      1.54190E-04
  1227.5      1.52990E-04
  1232.5      1.51800E-04
  1237.5      1.50630E-04
  1242.5      1.49470E-04
  1247.5      1.48320E-04
  1252.5      1.47180E-04
  1257.5      1.46070E-04
  1262.5      1.44960E-04
  1267.5      1.43870E-04
  1272.5      1.42780E-04
  1277.5      1.40970E-04
  1282.5      1.35380E-04
  1287.5      1.39240E-04
  1292.5      1.38570E-04
  1297.5      1.37520E-04
  1302.5      1.36530E-04
  1307.5      1.35530E-04
  1312.5      1.34540E-04
  1317.5      1.33560E-04
  1322.5      1.32590E-04
  1327.5      1.31630E-04
  1332.5      1.30690E-04
  1337.5      1.29750E-04
  1342.5      1.28820E-04
  1347.5      1.27900E-04
  1352.5      1.26990E-04
  1357.5      1.26090E-04
  1362.5      1.25200E-04
  1367.5      1.24320E-04
  1372.5      1.23450E-04
  1377.5      1.22590E-04
  1382.5      1.21740E-04
  1387.5      1.20890E-04
  1392.5      1.20060E-04
  1397.5      1.19230E-04
