 Castelli and Kurucz 2004-2012 Atmosphere
 T     34000.     G    4.00000 [-1.5] N(He)/Ntot=0.0784 VTURB=2  L/H=1.25 NOVER
 Wavelength  Eddington Hnu
   (nm)    (ergs/s/cm2/Hz/sr)
  9.0900      5.07350E-30
  9.3500      2.60050E-29
  9.6100      1.23130E-28
  9.7700      3.09230E-28
  9.9600      8.91500E-28
  10.200      3.23360E-27
  10.380      8.21890E-27
  10.560      2.03170E-26
  10.770      5.64960E-26
  11.040      2.00090E-25
  11.400      9.95650E-25
  11.780      4.94830E-24
  12.130      2.00300E-23
  12.480      7.55840E-23
  12.710      1.74620E-22
  12.840      2.77050E-22
  13.050      5.73880E-22
  13.240      1.08980E-21
  13.390      1.78760E-21
  13.660      4.25380E-21
  13.980      1.14370E-20
  14.330      3.22340E-20
  14.720      9.70240E-20
  15.100      2.70240E-19
  15.520      7.94870E-19
  15.880      1.92270E-18
  16.200      4.09230E-18
  16.600      1.01300E-17
  17.030      2.56670E-17
  17.340      4.88550E-17
  17.680      9.65790E-17
  18.020      1.86340E-16
  18.170      2.47170E-16
  18.610      5.52310E-16
  19.100      1.29690E-15
  19.390      2.10730E-15
  19.840      4.35650E-15
  20.180      7.38510E-15
  20.500      1.19480E-14
  21.050      2.64190E-14
  21.620      5.76480E-14
  21.980      9.24460E-14
  22.300      1.38890E-13
  22.680      2.21800E-13
  23.000      1.00050E-10
  23.400      5.09430E-10
  24.000      1.26650E-09
  24.650      3.09740E-09
  25.240      5.56340E-09
  25.680      4.28170E-09
  26.000      1.33620E-08
  26.400      4.07460E-08
  26.850      7.44790E-08
  27.350      1.01910E-07
  27.850      9.86460E-08
  28.400      1.97580E-07
  29.000      2.23710E-07
  29.600      1.44670E-07
  30.100      6.13810E-08
  30.800      1.74850E-07
  31.800      6.84610E-07
  32.800      9.21720E-07
  33.800      1.21690E-06
  34.800      1.56420E-06
  35.700      1.91920E-06
  36.600      2.48710E-06
  37.500      2.80350E-06
  38.500      3.26370E-06
  39.500      4.01130E-06
  40.500      4.75880E-06
  41.400      5.54140E-06
  42.200      6.13270E-06
  43.000      6.82630E-06
  44.100      8.31850E-06
  45.100      9.63180E-06
  46.000      1.07420E-05
  47.000      1.25150E-05
  48.000      1.44830E-05
  49.000      1.60960E-05
  50.000      1.89160E-05
  50.600      6.27300E-05
  51.200      1.66220E-04
  52.000      1.62560E-04
  53.000      1.60970E-04
  54.000      1.52420E-04
  55.000      1.67200E-04
  56.000      1.97740E-04
  57.000      2.07200E-04
  58.000      2.02010E-04
  59.000      2.16950E-04
  60.000      2.11440E-04
  61.000      2.24870E-04
  62.000      2.52100E-04
  63.000      2.56820E-04
  64.000      2.66570E-04
  65.000      2.72690E-04
  65.800      2.68360E-04
  66.500      2.82990E-04
  67.500      3.00310E-04
  68.500      2.88890E-04
  69.500      3.14850E-04
  70.500      3.07700E-04
  71.600      3.39020E-04
  72.600      3.46510E-04
  73.500      3.58440E-04
  74.500      3.59450E-04
  75.500      3.66830E-04
  76.500      3.71990E-04
  77.500      3.83730E-04
  78.500      3.97020E-04
  79.500      4.06080E-04
  80.500      4.11800E-04
  81.500      4.22890E-04
  82.500      4.35970E-04
  83.500      4.16790E-04
  84.500      4.50600E-04
  85.500      4.58490E-04
  86.500      4.72230E-04
  87.500      4.80980E-04
  88.500      4.89780E-04
  89.500      4.98900E-04
  90.500      5.02700E-04
  91.500      5.30350E-04
  92.500      1.30890E-03
  93.500      1.82280E-03
  94.500      2.30250E-03
  95.500      2.48410E-03
  96.500      2.78070E-03
  97.500      2.07240E-03
  98.500      2.69440E-03
  99.500      2.58440E-03
  100.50      2.67310E-03
  101.50      2.72160E-03
  102.50      2.25920E-03
  103.50      2.70560E-03
  104.50      2.79120E-03
  105.50      2.78330E-03
  106.50      2.70780E-03
  107.50      2.72120E-03
  108.50      2.62540E-03
  109.50      2.74570E-03
  110.50      2.70490E-03
  111.50      2.69110E-03
  112.50      2.59550E-03
  113.50      2.69810E-03
  114.50      2.68120E-03
  115.50      2.64740E-03
  116.50      2.64250E-03
  117.50      2.34930E-03
  118.50      2.56770E-03
  119.50      2.57680E-03
  120.50      2.53760E-03
  121.50      2.09620E-03
  122.50      2.53600E-03
  123.50      2.56530E-03
  124.50      2.53220E-03
  125.50      2.55630E-03
  126.50      2.56190E-03
  127.50      2.55620E-03
  128.50      2.55100E-03
  129.50      2.49740E-03
  130.50      2.50070E-03
  131.50      2.51740E-03
  132.50      2.49430E-03
  133.50      2.46880E-03
  134.50      2.48410E-03
  135.50      2.45990E-03
  136.50      2.44060E-03
  137.50      2.42300E-03
  138.50      2.41630E-03
  139.50      2.33660E-03
  140.50      2.32100E-03
  141.50      2.37800E-03
  142.50      2.32180E-03
  143.50      2.34870E-03
  144.20      2.34220E-03
  144.70      2.33440E-03
  145.50      2.31260E-03
  146.50      2.30970E-03
  147.50      2.29690E-03
  148.50      2.29920E-03
  149.50      2.27370E-03
  150.50      2.27280E-03
  151.20      2.27150E-03
  151.70      2.25560E-03
  152.50      2.23560E-03
  153.50      2.16460E-03
  154.50      2.07760E-03
  155.50      2.07940E-03
  156.50      2.11780E-03
  157.50      2.14460E-03
  158.50      2.15050E-03
  159.50      2.13820E-03
  160.50      2.07560E-03
  161.50      2.05680E-03
  162.50      2.05160E-03
  163.50      2.03920E-03
  164.50      1.96990E-03
  165.50      2.06440E-03
  166.50      2.05150E-03
  167.20      2.01070E-03
  167.70      2.07520E-03
  168.50      2.05490E-03
  169.50      2.04500E-03
  170.50      2.02510E-03
  171.50      1.99010E-03
  172.50      1.98270E-03
  173.50      2.01370E-03
  174.50      1.99820E-03
  175.50      1.97730E-03
  176.50      1.97960E-03
  177.50      1.97320E-03
  178.50      1.96480E-03
  179.50      1.94610E-03
  180.50      1.94180E-03
  181.50      1.92980E-03
  182.50      1.91610E-03
  183.50      1.91550E-03
  184.50      1.89810E-03
  185.50      1.88320E-03
  186.50      1.87250E-03
  187.50      1.86320E-03
  188.50      1.85210E-03
  189.50      1.84630E-03
  190.50      1.84390E-03
  191.50      1.82920E-03
  192.50      1.80110E-03
  193.50      1.81230E-03
  194.50      1.80610E-03
  195.50      1.78550E-03
  196.70      1.78310E-03
  197.60      1.77680E-03
  198.40      1.76720E-03
  199.50      1.75240E-03
  200.50      1.74980E-03
  201.50      1.74090E-03
  202.50      1.73130E-03
  203.50      1.72110E-03
  204.50      1.71090E-03
  205.50      1.40780E-03
  206.50      1.37710E-03
  207.40      1.41590E-03
  207.80      1.44460E-03
  208.50      1.54330E-03
  209.50      1.65070E-03
  210.50      1.65700E-03
  211.50      1.65540E-03
  212.50      1.64500E-03
  213.50      1.63690E-03
  214.50      1.62980E-03
  215.50      1.64010E-03
  216.50      1.60160E-03
  217.50      1.62750E-03
  218.50      1.58940E-03
  219.50      1.61020E-03
  220.50      1.60200E-03
  221.50      1.56360E-03
  222.50      1.58420E-03
  223.50      1.57580E-03
  224.50      1.56660E-03
  225.50      1.53050E-03
  226.50      1.55020E-03
  227.50      1.54200E-03
  228.50      1.53190E-03
  229.50      1.49940E-03
  230.50      1.49040E-03
  231.50      1.50800E-03
  232.50      1.50070E-03
  233.50      1.49260E-03
  234.50      1.48460E-03
  235.50      1.47650E-03
  236.50      1.46870E-03
  237.50      1.46060E-03
  238.50      1.42530E-03
  239.50      1.44170E-03
  240.50      1.43730E-03
  241.50      1.42940E-03
  242.50      1.42240E-03
  243.50      1.41460E-03
  244.50      1.40720E-03
  245.50      1.39920E-03
  246.50      1.39250E-03
  247.50      1.38530E-03
  248.50      1.37750E-03
  249.50      1.30890E-03
  250.50      1.36110E-03
  251.30      1.30290E-03
  251.80      1.34550E-03
  252.50      1.34900E-03
  253.50      1.34270E-03
  254.50      1.33550E-03
  255.50      1.32850E-03
  256.50      1.32200E-03
  257.50      1.31510E-03
  258.50      1.30840E-03
  259.50      1.30090E-03
  260.50      1.29700E-03
  261.50      1.29000E-03
  262.50      1.28360E-03
  263.50      1.27670E-03
  264.50      1.27000E-03
  265.50      1.26320E-03
  266.50      1.25610E-03
  267.50      1.24840E-03
  268.50      1.24500E-03
  269.50      1.23590E-03
  270.50      1.23270E-03
  271.50      1.22610E-03
  272.50      1.21680E-03
  273.50      1.19370E-03
  274.50      1.20820E-03
  275.50      1.20210E-03
  276.50      1.19210E-03
  277.50      1.19030E-03
  278.50      1.18420E-03
  279.50      1.17660E-03
  280.50      1.17220E-03
  281.50      1.16690E-03
  282.50      1.15670E-03
  283.50      1.15380E-03
  284.50      1.14990E-03
  285.50      1.14420E-03
  286.50      1.13850E-03
  287.50      1.13310E-03
  288.50      1.12760E-03
  289.50      1.12210E-03
  291.00      1.11380E-03
  293.00      1.10330E-03
  295.00      1.08930E-03
  297.00      1.08210E-03
  299.00      1.07110E-03
  301.00      1.06140E-03
  303.00      1.05070E-03
  305.00      1.04110E-03
  307.00      1.03210E-03
  309.00      1.02190E-03
  311.00      1.01280E-03
  313.00      1.00370E-03
  315.00      9.94420E-04
  317.00      9.85300E-04
  319.00      9.72420E-04
  321.00      9.58920E-04
  323.00      9.58800E-04
  325.00      9.50150E-04
  327.00      9.40870E-04
  329.00      9.32880E-04
  331.00      9.25020E-04
  333.00      9.16770E-04
  335.00      9.07560E-04
  337.00      9.00640E-04
  339.00      8.92940E-04
  341.00      8.85110E-04
  343.00      8.76040E-04
  345.00      8.66840E-04
  347.00      8.60760E-04
  349.00      8.53370E-04
  351.00      8.47120E-04
  353.00      8.39750E-04
  355.00      8.32480E-04
  357.00      8.27600E-04
  359.00      8.17860E-04
  361.00      8.11950E-04
  363.00      8.03950E-04
  364.00      7.96660E-04
  365.00      7.59230E-04
  367.00      7.54440E-04
  369.00      7.49200E-04
  371.00      7.43080E-04
  373.00      7.36890E-04
  375.00      7.50710E-04
  377.00      7.52520E-04
  379.00      7.67230E-04
  381.00      7.84010E-04
  383.00      7.34960E-04
  385.00      7.88050E-04
  387.00      7.88250E-04
  389.00      7.18000E-04
  391.00      7.80940E-04
  393.00      7.70550E-04
  395.00      7.69010E-04
  397.00      6.92800E-04
  399.00      7.56180E-04
  401.00      7.50740E-04
  403.00      7.31080E-04
  405.00      7.41750E-04
  407.00      7.34920E-04
  409.00      7.13630E-04
  411.00      6.67340E-04
  413.00      7.15090E-04
  415.00      7.10020E-04
  417.00      7.07060E-04
  419.00      7.00950E-04
  421.00      6.91790E-04
  423.00      6.91430E-04
  425.00      6.85970E-04
  427.00      6.80560E-04
  429.00      6.75550E-04
  431.00      6.69790E-04
  433.00      6.46150E-04
  435.00      6.15150E-04
  437.00      6.54640E-04
  439.00      6.44540E-04
  441.00      6.45430E-04
  443.00      6.40240E-04
  445.00      6.36200E-04
  447.00      6.21370E-04
  449.00      6.26800E-04
  451.00      6.22070E-04
  453.00      6.17500E-04
  455.00      6.08080E-04
  457.00      6.08830E-04
  459.00      6.04280E-04
  461.00      5.99980E-04
  463.00      5.95270E-04
  465.00      5.87590E-04
  467.00      5.86860E-04
  469.00      5.71040E-04
  471.00      5.75480E-04
  473.00      5.74940E-04
  475.00      5.70860E-04
  477.00      5.66890E-04
  479.00      5.62920E-04
  481.00      5.58970E-04
  483.00      5.54710E-04
  485.00      5.38990E-04
  487.00      5.06540E-04
  489.00      5.42730E-04
  491.00      5.39880E-04
  493.00      5.30890E-04
  495.00      5.32490E-04
  497.00      5.28970E-04
  499.00      5.25380E-04
  501.00      5.18780E-04
  503.00      5.18290E-04
  505.00      5.13670E-04
  507.00      5.11390E-04
  509.00      5.07970E-04
  511.00      5.04590E-04
  513.00      5.01240E-04
  515.00      4.97930E-04
  517.00      4.94640E-04
  519.00      4.91400E-04
  521.00      4.88180E-04
  523.00      4.84990E-04
  525.00      4.81800E-04
  527.00      4.78670E-04
  529.00      4.75610E-04
  531.00      4.72540E-04
  533.00      4.69500E-04
  535.00      4.66490E-04
  537.00      4.63510E-04
  539.00      4.60550E-04
  541.00      4.53740E-04
  543.00      4.54730E-04
  545.00      4.51860E-04
  547.00      4.49020E-04
  549.00      4.46200E-04
  551.00      4.43390E-04
  553.00      4.40640E-04
  555.00      4.37900E-04
  557.00      4.35180E-04
  559.00      4.32390E-04
  561.00      4.29820E-04
  563.00      4.27180E-04
  565.00      4.24560E-04
  567.00      4.21960E-04
  569.00      4.17010E-04
  571.00      4.06070E-04
  573.00      4.03740E-04
  575.00      4.01400E-04
  577.00      3.99130E-04
  579.00      3.96920E-04
  581.00      3.94870E-04
  583.00      3.93090E-04
  585.00      3.91670E-04
  587.00      3.84460E-04
  589.00      3.88780E-04
  591.00      3.87650E-04
  593.00      3.86470E-04
  595.00      3.85410E-04
  597.00      3.84300E-04
  599.00      3.83140E-04
  601.00      3.81480E-04
  603.00      3.79240E-04
  605.00      3.77060E-04
  607.00      3.74880E-04
  609.00      3.72720E-04
  611.00      3.70570E-04
  613.00      3.68450E-04
  615.00      3.66350E-04
  617.00      3.64100E-04
  619.00      3.62190E-04
  621.00      3.60130E-04
  623.00      3.57820E-04
  625.00      3.56070E-04
  627.00      3.54070E-04
  629.00      3.52090E-04
  631.00      3.49670E-04
  633.00      3.48160E-04
  635.00      3.46230E-04
  637.00      3.44310E-04
  639.00      3.42400E-04
  641.00      3.39880E-04
  643.00      3.38630E-04
  645.00      3.36770E-04
  647.00      3.34920E-04
  649.00      3.33100E-04
  651.00      3.31280E-04
  653.00      3.28160E-04
  655.00      3.23600E-04
  657.00      3.01830E-04
  659.00      3.23510E-04
  661.00      3.22420E-04
  663.00      3.20700E-04
  665.00      3.19050E-04
  667.00      3.15580E-04
  669.00      3.12900E-04
  671.00      3.13940E-04
  673.00      3.12300E-04
  675.00      3.10660E-04
  677.00      3.09040E-04
  679.00      3.07420E-04
  681.00      3.05810E-04
  683.00      3.04210E-04
  685.00      3.02630E-04
  687.00      3.01050E-04
  689.00      2.98430E-04
  691.00      2.97940E-04
  693.00      2.96410E-04
  695.00      2.94880E-04
  697.00      2.93370E-04
  699.00      2.91860E-04
  701.00      2.90370E-04
  703.00      2.88860E-04
  705.00      2.87420E-04
  707.00      2.83370E-04
  709.00      2.84520E-04
  711.00      2.83090E-04
  713.00      2.81660E-04
  715.00      2.80250E-04
  717.00      2.78050E-04
  719.00      2.77120E-04
  721.00      2.76070E-04
  723.00      2.74660E-04
  725.00      2.73330E-04
  727.00      2.71980E-04
  729.00      2.69380E-04
  731.00      2.69290E-04
  733.00      2.67980E-04
  735.00      2.66670E-04
  737.00      2.65360E-04
  739.00      2.64070E-04
  741.00      2.62790E-04
  743.00      2.61510E-04
  745.00      2.60250E-04
  747.00      2.59000E-04
  749.00      2.57720E-04
  751.00      2.56480E-04
  753.00      2.55280E-04
  755.00      2.54060E-04
  757.00      2.52840E-04
  759.00      2.50570E-04
  761.00      2.50430E-04
  763.00      2.49250E-04
  765.00      2.48070E-04
  767.00      2.46900E-04
  769.00      2.45720E-04
  771.00      2.44580E-04
  773.00      2.43420E-04
  775.00      2.42300E-04
  777.00      2.41170E-04
  779.00      2.40050E-04
  781.00      2.38870E-04
  783.00      2.37820E-04
  785.00      2.36820E-04
  787.00      2.35720E-04
  789.00      2.34620E-04
  791.00      2.33560E-04
  793.00      2.32490E-04
  795.00      2.31430E-04
  797.00      2.30320E-04
  799.00      2.29320E-04
  801.00      2.28280E-04
  803.00      2.27230E-04
  805.00      2.26180E-04
  807.00      2.25180E-04
  809.00      2.24020E-04
  811.00      2.23020E-04
  813.00      2.22160E-04
  815.00      2.20980E-04
  817.00      2.20180E-04
  819.00      2.18810E-04
  821.00      2.15230E-04
  823.00      2.13840E-04
  825.00      2.13540E-04
  827.00      2.12320E-04
  829.00      2.11750E-04
  831.00      2.10860E-04
  833.00      2.09910E-04
  835.00      2.08610E-04
  837.00      2.08010E-04
  839.00      2.07240E-04
  841.00      2.06410E-04
  843.00      2.05490E-04
  845.00      2.04130E-04
  847.00      2.03780E-04
  849.00      2.02920E-04
  851.00      2.01930E-04
  853.00      2.01430E-04
  855.00      1.99610E-04
  857.00      2.00800E-04
  859.00      1.97330E-04
  861.00      1.97120E-04
  863.00      1.99240E-04
  865.00      1.96790E-04
  867.00      1.91280E-04
  869.00      1.97150E-04
  871.00      1.97450E-04
  873.00      1.94820E-04
  875.00      1.85500E-04
  877.00      1.92180E-04
  879.00      1.94960E-04
  881.00      1.94430E-04
  883.00      1.93390E-04
  885.00      1.87390E-04
  887.00      1.79690E-04
  889.00      1.90130E-04
  891.00      1.90590E-04
  893.00      1.90000E-04
  895.00      1.89520E-04
  897.00      1.88550E-04
  899.00      1.85900E-04
  901.00      1.74500E-04
  903.00      1.79570E-04
  905.00      1.84830E-04
  907.00      1.83880E-04
  909.00      1.83910E-04
  911.00      1.83400E-04
  913.00      1.82740E-04
  915.00      1.82000E-04
  917.00      1.81030E-04
  919.00      1.80100E-04
  921.00      1.76080E-04
  923.00      1.64080E-04
  925.00      1.74950E-04
  927.00      1.77110E-04
  929.00      1.76930E-04
  931.00      1.75870E-04
  933.00      1.75520E-04
  935.00      1.73550E-04
  937.00      1.74100E-04
  939.00      1.73450E-04
  941.00      1.72760E-04
  943.00      1.72080E-04
  945.00      1.71410E-04
  947.00      1.70240E-04
  949.00      1.70060E-04
  951.00      1.68030E-04
  953.00      1.64410E-04
  955.00      1.53740E-04
  957.00      1.65110E-04
  959.00      1.66380E-04
  961.00      1.65910E-04
  963.00      1.65100E-04
  965.00      1.64850E-04
  967.00      1.64210E-04
  969.00      1.63520E-04
  971.00      1.62550E-04
  973.00      1.62320E-04
  975.00      1.61710E-04
  977.00      1.60970E-04
  979.00      1.60480E-04
  981.00      1.59870E-04
  983.00      1.59260E-04
  985.00      1.58660E-04
  987.00      1.58060E-04
  989.00      1.57460E-04
  991.00      1.56850E-04
  993.00      1.56280E-04
  995.00      1.55690E-04
  997.00      1.55110E-04
  999.00      1.54520E-04
  1002.5      1.50120E-04
  1007.5      1.47440E-04
  1012.5      1.49550E-04
  1017.5      1.49310E-04
  1022.5      1.47920E-04
  1027.5      1.46600E-04
  1032.5      1.44960E-04
  1037.5      1.43970E-04
  1042.5      1.42570E-04
  1047.5      1.41400E-04
  1052.5      1.40140E-04
  1057.5      1.38900E-04
  1062.5      1.37670E-04
  1067.5      1.36350E-04
  1072.5      1.35270E-04
  1077.5      1.34090E-04
  1082.5      1.32120E-04
  1087.5      1.31690E-04
  1092.5      1.24730E-04
  1097.5      1.28240E-04
  1102.5      1.28090E-04
  1107.5      1.27310E-04
  1112.5      1.26260E-04
  1117.5      1.25210E-04
  1122.5      1.24130E-04
  1127.5      1.23120E-04
  1132.5      1.22090E-04
  1137.5      1.21080E-04
  1142.5      1.20090E-04
  1147.5      1.19100E-04
  1152.5      1.18130E-04
  1157.5      1.17160E-04
  1162.5      1.15870E-04
  1167.5      1.15140E-04
  1172.5      1.14340E-04
  1177.5      1.13430E-04
  1182.5      1.12520E-04
  1187.5      1.11630E-04
  1192.5      1.10740E-04
  1197.5      1.09310E-04
  1202.5      1.09000E-04
  1207.5      1.08150E-04
  1212.5      1.07310E-04
  1217.5      1.06470E-04
  1222.5      1.05650E-04
  1227.5      1.04830E-04
  1232.5      1.04030E-04
  1237.5      1.03230E-04
  1242.5      1.02450E-04
  1247.5      1.01670E-04
  1252.5      1.00790E-04
  1257.5      1.00140E-04
  1262.5      9.93860E-05
  1267.5      9.86420E-05
  1272.5      9.79050E-05
  1277.5      9.62950E-05
  1282.5      9.21170E-05
  1287.5      9.55270E-05
  1292.5      9.50450E-05
  1297.5      9.40320E-05
  1302.5      9.36610E-05
  1307.5      9.29810E-05
  1312.5      9.23080E-05
  1317.5      9.16420E-05
  1322.5      9.09830E-05
  1327.5      9.03320E-05
  1332.5      8.96870E-05
  1337.5      8.90490E-05
  1342.5      8.83800E-05
  1347.5      8.77930E-05
  1352.5      8.71750E-05
  1357.5      8.65640E-05
  1362.5      8.59580E-05
  1367.5      8.53600E-05
  1372.5      8.47670E-05
  1377.5      8.41810E-05
  1382.5      8.36010E-05
  1387.5      8.30260E-05
  1392.5      8.24570E-05
  1397.5      8.18950E-05
