 Castelli and Kurucz 2004-2012 Atmosphere
 T     44000.     G    4.50000 [-1.5] N(He)/Ntot=0.0784 VTURB=2  L/H=1.25 NOVER
 Wavelength  Eddington Hnu
   (nm)    (ergs/s/cm2/Hz/sr)
  9.0900      2.72900E-21
  9.3500      8.26620E-21
  9.6100      2.36670E-20
  9.7700      4.41990E-20
  9.9600      9.04930E-20
  10.200      2.16220E-19
  10.380      4.06290E-19
  10.560      7.49000E-19
  10.770      1.49580E-18
  11.040      3.51640E-18
  11.400      1.03980E-17
  11.780      3.07180E-17
  12.130      7.90720E-17
  12.480      1.94370E-16
  12.710      3.42970E-16
  12.840      4.69130E-16
  13.050      7.68980E-16
  13.240      1.18890E-15
  13.390      1.66470E-15
  13.660      3.00410E-15
  13.980      5.89980E-15
  14.330      1.19690E-14
  14.720      2.53750E-14
  15.100      5.13690E-14
  15.520      1.07760E-13
  15.880      1.97910E-13
  16.200      3.33490E-13
  16.600      6.23770E-13
  17.030      1.18490E-12
  17.340      1.84830E-12
  17.680      2.96760E-12
  18.020      4.68230E-12
  18.170      5.67310E-12
  18.610      9.95020E-12
  19.100      1.80040E-11
  19.390      2.52610E-11
  19.840      4.18630E-11
  20.180      6.04620E-11
  20.500      8.45640E-11
  21.050      1.47000E-10
  21.620      2.53280E-10
  21.980      3.52320E-10
  22.300      4.67890E-10
  22.680      6.47900E-10
  23.000      6.13640E-08
  23.400      2.81590E-07
  24.000      1.99590E-06
  24.650      1.89340E-05
  25.240      4.81640E-05
  25.680      3.81740E-05
  26.000      9.41300E-05
  26.400      1.55290E-04
  26.850      1.88700E-04
  27.350      2.29010E-04
  27.850      2.25760E-04
  28.400      3.03510E-04
  29.000      3.52670E-04
  29.600      2.93730E-04
  30.100      9.32310E-05
  30.800      1.79770E-04
  31.800      2.71670E-04
  32.800      3.23620E-04
  33.800      3.09000E-04
  34.800      3.26890E-04
  35.700      4.60970E-04
  36.600      5.72000E-04
  37.500      6.26910E-04
  38.500      5.84020E-04
  39.500      7.22760E-04
  40.500      8.26710E-04
  41.400      8.68690E-04
  42.200      8.67630E-04
  43.000      8.69470E-04
  44.100      9.83890E-04
  45.100      1.03250E-03
  46.000      1.01840E-03
  47.000      1.05180E-03
  48.000      1.12340E-03
  49.000      1.08900E-03
  50.000      1.19490E-03
  50.600      1.17230E-03
  51.200      1.41140E-03
  52.000      1.41040E-03
  53.000      1.41750E-03
  54.000      1.34310E-03
  55.000      1.31600E-03
  56.000      1.52780E-03
  57.000      1.58830E-03
  58.000      1.59170E-03
  59.000      1.64630E-03
  60.000      1.62280E-03
  61.000      1.58690E-03
  62.000      1.73200E-03
  63.000      1.72410E-03
  64.000      1.79980E-03
  65.000      1.79010E-03
  65.800      1.75400E-03
  66.500      1.84340E-03
  67.500      1.89010E-03
  68.500      1.83780E-03
  69.500      1.93270E-03
  70.500      1.87250E-03
  71.600      1.98510E-03
  72.600      2.02030E-03
  73.500      2.03980E-03
  74.500      2.03610E-03
  75.500      2.04210E-03
  76.500      2.01740E-03
  77.500      2.07900E-03
  78.500      2.07050E-03
  79.500      2.10980E-03
  80.500      2.13700E-03
  81.500      2.16010E-03
  82.500      2.18340E-03
  83.500      2.11120E-03
  84.500      2.20430E-03
  85.500      2.19580E-03
  86.500      2.23930E-03
  87.500      2.25990E-03
  88.500      2.26350E-03
  89.500      2.27260E-03
  90.500      2.26260E-03
  91.500      1.82350E-03
  92.500      3.04380E-03
  93.500      3.87390E-03
  94.500      4.57590E-03
  95.500      4.94570E-03
  96.500      5.42850E-03
  97.500      4.49890E-03
  98.500      5.30410E-03
  99.500      5.00970E-03
  100.50      5.26280E-03
  101.50      5.26330E-03
  102.50      4.54070E-03
  103.50      5.27130E-03
  104.50      5.30190E-03
  105.50      5.27650E-03
  106.50      5.16810E-03
  107.50      5.17400E-03
  108.50      4.97130E-03
  109.50      5.14810E-03
  110.50      5.08440E-03
  111.50      5.04140E-03
  112.50      4.95720E-03
  113.50      5.02170E-03
  114.50      4.99370E-03
  115.50      4.91990E-03
  116.50      4.86770E-03
  117.50      4.60790E-03
  118.50      4.81000E-03
  119.50      4.76450E-03
  120.50      4.74400E-03
  121.50      4.05670E-03
  122.50      4.68010E-03
  123.50      4.61250E-03
  124.50      4.57470E-03
  125.50      4.61280E-03
  126.50      4.58740E-03
  127.50      4.55820E-03
  128.50      4.52900E-03
  129.50      4.49780E-03
  130.50      4.45160E-03
  131.50      4.42810E-03
  132.50      4.38510E-03
  133.50      4.36930E-03
  134.50      4.34860E-03
  135.50      4.28800E-03
  136.50      4.22740E-03
  137.50      4.16740E-03
  138.50      4.17960E-03
  139.50      4.12500E-03
  140.50      4.04910E-03
  141.50      4.11610E-03
  142.50      4.06320E-03
  143.50      4.06340E-03
  144.20      4.00810E-03
  144.70      4.00240E-03
  145.50      3.96980E-03
  146.50      3.95100E-03
  147.50      3.93900E-03
  148.50      3.93910E-03
  149.50      3.90080E-03
  150.50      3.88470E-03
  151.20      3.87550E-03
  151.70      3.84370E-03
  152.50      3.83180E-03
  153.50      3.77090E-03
  154.50      3.61610E-03
  155.50      3.61390E-03
  156.50      3.68250E-03
  157.50      3.68180E-03
  158.50      3.65150E-03
  159.50      3.63070E-03
  160.50      3.57590E-03
  161.50      3.55330E-03
  162.50      3.51710E-03
  163.50      3.45650E-03
  164.50      3.31630E-03
  165.50      3.48220E-03
  166.50      3.46670E-03
  167.20      3.41820E-03
  167.70      3.44940E-03
  168.50      3.42900E-03
  169.50      3.40940E-03
  170.50      3.37950E-03
  171.50      3.31170E-03
  172.50      3.31630E-03
  173.50      3.32370E-03
  174.50      3.29660E-03
  175.50      3.26920E-03
  176.50      3.25510E-03
  177.50      3.23500E-03
  178.50      3.21550E-03
  179.50      3.18930E-03
  180.50      3.17000E-03
  181.50      3.14910E-03
  182.50      3.12750E-03
  183.50      3.10880E-03
  184.50      3.08820E-03
  185.50      3.06600E-03
  186.50      3.04560E-03
  187.50      3.02510E-03
  188.50      3.00480E-03
  189.50      2.98990E-03
  190.50      2.97060E-03
  191.50      2.95090E-03
  192.50      2.92060E-03
  193.50      2.91290E-03
  194.50      2.89410E-03
  195.50      2.87360E-03
  196.70      2.85270E-03
  197.60      2.83570E-03
  198.40      2.82190E-03
  199.50      2.80150E-03
  200.50      2.78420E-03
  201.50      2.76620E-03
  202.50      2.74850E-03
  203.50      2.73080E-03
  204.50      2.71040E-03
  205.50      2.11470E-03
  206.50      2.05530E-03
  207.40      2.10770E-03
  207.80      2.16120E-03
  208.50      2.31520E-03
  209.50      2.55730E-03
  210.50      2.61150E-03
  211.50      2.60510E-03
  212.50      2.58930E-03
  213.50      2.56960E-03
  214.50      2.55840E-03
  215.50      2.58390E-03
  216.50      2.50590E-03
  217.50      2.56890E-03
  218.50      2.47960E-03
  219.50      2.53680E-03
  220.50      2.52420E-03
  221.50      2.43280E-03
  222.50      2.49290E-03
  223.50      2.47860E-03
  224.50      2.46160E-03
  225.50      2.37690E-03
  226.50      2.43310E-03
  227.50      2.41880E-03
  228.50      2.40280E-03
  229.50      2.37410E-03
  230.50      2.30850E-03
  231.50      2.35840E-03
  232.50      2.34640E-03
  233.50      2.33250E-03
  234.50      2.31820E-03
  235.50      2.30440E-03
  236.50      2.29070E-03
  237.50      2.27660E-03
  238.50      2.19940E-03
  239.50      2.24590E-03
  240.50      2.23480E-03
  241.50      2.22200E-03
  242.50      2.21060E-03
  243.50      2.19730E-03
  244.50      2.18460E-03
  245.50      2.17030E-03
  246.50      2.15920E-03
  247.50      2.14710E-03
  248.50      2.13410E-03
  249.50      2.07810E-03
  250.50      2.10330E-03
  251.30      1.97730E-03
  251.80      2.08590E-03
  252.50      2.08140E-03
  253.50      2.07410E-03
  254.50      2.06240E-03
  255.50      2.05050E-03
  256.50      2.03910E-03
  257.50      2.02750E-03
  258.50      2.01600E-03
  259.50      2.00190E-03
  260.50      1.99380E-03
  261.50      1.98160E-03
  262.50      1.97160E-03
  263.50      1.96070E-03
  264.50      1.94960E-03
  265.50      1.93890E-03
  266.50      1.92800E-03
  267.50      1.91580E-03
  268.50      1.90670E-03
  269.50      1.89560E-03
  270.50      1.88630E-03
  271.50      1.87580E-03
  272.50      1.86500E-03
  273.50      1.80700E-03
  274.50      1.84560E-03
  275.50      1.83550E-03
  276.50      1.82490E-03
  277.50      1.81570E-03
  278.50      1.80570E-03
  279.50      1.79570E-03
  280.50      1.78660E-03
  281.50      1.77710E-03
  282.50      1.76670E-03
  283.50      1.75810E-03
  284.50      1.74920E-03
  285.50      1.73990E-03
  286.50      1.73070E-03
  287.50      1.72170E-03
  288.50      1.71270E-03
  289.50      1.70360E-03
  291.00      1.69030E-03
  293.00      1.67290E-03
  295.00      1.65500E-03
  297.00      1.63840E-03
  299.00      1.62080E-03
  301.00      1.60490E-03
  303.00      1.58770E-03
  305.00      1.57190E-03
  307.00      1.55630E-03
  309.00      1.54170E-03
  311.00      1.52630E-03
  313.00      1.51100E-03
  315.00      1.49660E-03
  317.00      1.48180E-03
  319.00      1.46600E-03
  321.00      1.43270E-03
  323.00      1.43940E-03
  325.00      1.42560E-03
  327.00      1.41000E-03
  329.00      1.39830E-03
  331.00      1.38500E-03
  333.00      1.37200E-03
  335.00      1.35840E-03
  337.00      1.34640E-03
  339.00      1.33380E-03
  341.00      1.32120E-03
  343.00      1.30960E-03
  345.00      1.29680E-03
  347.00      1.28560E-03
  349.00      1.27390E-03
  351.00      1.26240E-03
  353.00      1.25070E-03
  355.00      1.23930E-03
  357.00      1.22870E-03
  359.00      1.21710E-03
  361.00      1.20650E-03
  363.00      1.19530E-03
  364.00      1.16840E-03
  365.00      1.07430E-03
  367.00      1.06630E-03
  369.00      1.06090E-03
  371.00      1.06250E-03
  373.00      1.06920E-03
  375.00      1.08510E-03
  377.00      1.09610E-03
  379.00      1.10950E-03
  381.00      1.12110E-03
  383.00      1.07840E-03
  385.00      1.11540E-03
  387.00      1.11820E-03
  389.00      1.04380E-03
  391.00      1.10300E-03
  393.00      1.08690E-03
  395.00      1.08620E-03
  397.00      1.00770E-03
  399.00      1.06740E-03
  401.00      1.06230E-03
  403.00      1.03620E-03
  405.00      1.04620E-03
  407.00      1.03720E-03
  409.00      1.01050E-03
  411.00      9.63010E-04
  413.00      1.01080E-03
  415.00      1.00330E-03
  417.00      9.95960E-04
  419.00      9.84280E-04
  421.00      9.67470E-04
  423.00      9.72310E-04
  425.00      9.64570E-04
  427.00      9.56930E-04
  429.00      9.49370E-04
  431.00      9.41300E-04
  433.00      9.12090E-04
  435.00      8.82140E-04
  437.00      9.19030E-04
  439.00      9.11160E-04
  441.00      9.05700E-04
  443.00      8.98700E-04
  445.00      8.91890E-04
  447.00      8.80280E-04
  449.00      8.78340E-04
  451.00      8.71630E-04
  453.00      8.64060E-04
  455.00      8.45660E-04
  457.00      8.52180E-04
  459.00      8.45820E-04
  461.00      8.39510E-04
  463.00      8.33010E-04
  465.00      8.25690E-04
  467.00      8.20170E-04
  469.00      7.90010E-04
  471.00      8.08090E-04
  473.00      8.03160E-04
  475.00      7.97320E-04
  477.00      7.91550E-04
  479.00      7.85840E-04
  481.00      7.80190E-04
  483.00      7.74260E-04
  485.00      7.55680E-04
  487.00      7.22550E-04
  489.00      7.57170E-04
  491.00      7.52830E-04
  493.00      7.45520E-04
  495.00      7.42300E-04
  497.00      7.37110E-04
  499.00      7.31980E-04
  501.00      7.25870E-04
  503.00      7.21870E-04
  505.00      7.16670E-04
  507.00      7.11960E-04
  509.00      7.07090E-04
  511.00      7.02270E-04
  513.00      6.97490E-04
  515.00      6.92760E-04
  517.00      6.88080E-04
  519.00      6.83450E-04
  521.00      6.78860E-04
  523.00      6.74320E-04
  525.00      6.69800E-04
  527.00      6.65320E-04
  529.00      6.60960E-04
  531.00      6.56590E-04
  533.00      6.52260E-04
  535.00      6.47990E-04
  537.00      6.43750E-04
  539.00      6.39540E-04
  541.00      6.25130E-04
  543.00      6.31250E-04
  545.00      6.27190E-04
  547.00      6.23150E-04
  549.00      6.19150E-04
  551.00      6.15170E-04
  553.00      6.11270E-04
  555.00      6.07380E-04
  557.00      6.03510E-04
  559.00      5.99560E-04
  561.00      5.95930E-04
  563.00      5.92190E-04
  565.00      5.88480E-04
  567.00      5.84810E-04
  569.00      5.74600E-04
  571.00      5.43060E-04
  573.00      5.39930E-04
  575.00      5.36850E-04
  577.00      5.33880E-04
  579.00      5.31180E-04
  581.00      5.28680E-04
  583.00      5.27280E-04
  585.00      5.26210E-04
  587.00      5.22950E-04
  589.00      5.24780E-04
  591.00      5.24570E-04
  593.00      5.24740E-04
  595.00      5.25350E-04
  597.00      5.25930E-04
  599.00      5.26990E-04
  601.00      5.25450E-04
  603.00      5.23340E-04
  605.00      5.21800E-04
  607.00      5.18200E-04
  609.00      5.15850E-04
  611.00      5.12360E-04
  613.00      5.09400E-04
  615.00      5.07170E-04
  617.00      5.02480E-04
  619.00      5.01220E-04
  621.00      4.98420E-04
  623.00      4.93550E-04
  625.00      4.92330E-04
  627.00      4.89900E-04
  629.00      4.87100E-04
  631.00      4.81550E-04
  633.00      4.81390E-04
  635.00      4.78860E-04
  637.00      4.76160E-04
  639.00      4.73300E-04
  641.00      4.67260E-04
  643.00      4.68180E-04
  645.00      4.65580E-04
  647.00      4.62990E-04
  649.00      4.60420E-04
  651.00      4.57680E-04
  653.00      4.50680E-04
  655.00      4.48160E-04
  657.00      4.24780E-04
  659.00      4.47260E-04
  661.00      4.45440E-04
  663.00      4.43020E-04
  665.00      4.40620E-04
  667.00      4.36900E-04
  669.00      4.30320E-04
  671.00      4.33480E-04
  673.00      4.31190E-04
  675.00      4.28880E-04
  677.00      4.26600E-04
  679.00      4.24320E-04
  681.00      4.22070E-04
  683.00      4.19830E-04
  685.00      4.17610E-04
  687.00      4.15400E-04
  689.00      4.08030E-04
  691.00      4.10880E-04
  693.00      4.08900E-04
  695.00      4.06760E-04
  697.00      4.04650E-04
  699.00      4.02540E-04
  701.00      4.00450E-04
  703.00      3.98370E-04
  705.00      3.96330E-04
  707.00      3.93200E-04
  709.00      3.92270E-04
  711.00      3.90270E-04
  713.00      3.88270E-04
  715.00      3.86300E-04
  717.00      3.80930E-04
  719.00      3.80520E-04
  721.00      3.80460E-04
  723.00      3.78540E-04
  725.00      3.76640E-04
  727.00      3.74750E-04
  729.00      3.72540E-04
  731.00      3.71010E-04
  733.00      3.69170E-04
  735.00      3.67340E-04
  737.00      3.65520E-04
  739.00      3.63720E-04
  741.00      3.61920E-04
  743.00      3.60150E-04
  745.00      3.58370E-04
  747.00      3.56630E-04
  749.00      3.54870E-04
  751.00      3.53160E-04
  753.00      3.51450E-04
  755.00      3.49740E-04
  757.00      3.48050E-04
  759.00      3.41600E-04
  761.00      3.44450E-04
  763.00      3.43050E-04
  765.00      3.41410E-04
  767.00      3.39780E-04
  769.00      3.38160E-04
  771.00      3.36550E-04
  773.00      3.34940E-04
  775.00      3.33370E-04
  777.00      3.31800E-04
  779.00      3.30240E-04
  781.00      3.28680E-04
  783.00      3.27150E-04
  785.00      3.25620E-04
  787.00      3.24110E-04
  789.00      3.22600E-04
  791.00      3.21100E-04
  793.00      3.19620E-04
  795.00      3.18140E-04
  797.00      3.16670E-04
  799.00      3.15210E-04
  801.00      3.13770E-04
  803.00      3.12330E-04
  805.00      3.10900E-04
  807.00      3.09480E-04
  809.00      3.08080E-04
  811.00      3.06680E-04
  813.00      3.05290E-04
  815.00      3.03910E-04
  817.00      3.02530E-04
  819.00      3.00000E-04
  821.00      2.88660E-04
  823.00      2.85880E-04
  825.00      2.85900E-04
  827.00      2.84970E-04
  829.00      2.83790E-04
  831.00      2.82600E-04
  833.00      2.81400E-04
  835.00      2.80210E-04
  837.00      2.79100E-04
  839.00      2.78010E-04
  841.00      2.77000E-04
  843.00      2.76010E-04
  845.00      2.74990E-04
  847.00      2.74100E-04
  849.00      2.73300E-04
  851.00      2.72400E-04
  853.00      2.71700E-04
  855.00      2.70640E-04
  857.00      2.70300E-04
  859.00      2.69030E-04
  861.00      2.68310E-04
  863.00      2.68340E-04
  865.00      2.67240E-04
  867.00      2.65050E-04
  869.00      2.66410E-04
  871.00      2.66190E-04
  873.00      2.65050E-04
  875.00      2.60580E-04
  877.00      2.63130E-04
  879.00      2.63950E-04
  881.00      2.63510E-04
  883.00      2.62690E-04
  885.00      2.58670E-04
  887.00      2.53320E-04
  889.00      2.58890E-04
  891.00      2.58960E-04
  893.00      2.57960E-04
  895.00      2.57520E-04
  897.00      2.56150E-04
  899.00      2.53770E-04
  901.00      2.45160E-04
  903.00      2.47880E-04
  905.00      2.51280E-04
  907.00      2.50880E-04
  909.00      2.50120E-04
  911.00      2.48600E-04
  913.00      2.48180E-04
  915.00      2.47170E-04
  917.00      2.46110E-04
  919.00      2.44700E-04
  921.00      2.41460E-04
  923.00      2.31360E-04
  925.00      2.39040E-04
  927.00      2.40650E-04
  929.00      2.40250E-04
  931.00      2.39240E-04
  933.00      2.38150E-04
  935.00      2.32880E-04
  937.00      2.35370E-04
  939.00      2.35470E-04
  941.00      2.34550E-04
  943.00      2.33630E-04
  945.00      2.32700E-04
  947.00      2.31710E-04
  949.00      2.30860E-04
  951.00      2.29200E-04
  953.00      2.25700E-04
  955.00      2.16070E-04
  957.00      2.24990E-04
  959.00      2.26020E-04
  961.00      2.25490E-04
  963.00      2.24560E-04
  965.00      2.23750E-04
  967.00      2.22880E-04
  969.00      2.22020E-04
  971.00      2.21100E-04
  973.00      2.20310E-04
  975.00      2.19200E-04
  977.00      2.17280E-04
  979.00      2.17780E-04
  981.00      2.16950E-04
  983.00      2.16120E-04
  985.00      2.15300E-04
  987.00      2.14480E-04
  989.00      2.13670E-04
  991.00      2.12860E-04
  993.00      2.12050E-04
  995.00      2.11250E-04
  997.00      2.10460E-04
  999.00      2.09660E-04
  1002.5      2.05450E-04
  1007.5      2.02120E-04
  1012.5      2.01510E-04
  1017.5      2.02550E-04
  1022.5      2.00690E-04
  1027.5      1.98860E-04
  1032.5      1.96950E-04
  1037.5      1.95260E-04
  1042.5      1.92590E-04
  1047.5      1.91770E-04
  1052.5      1.90050E-04
  1057.5      1.88360E-04
  1062.5      1.86690E-04
  1067.5      1.85030E-04
  1072.5      1.83420E-04
  1077.5      1.81820E-04
  1082.5      1.79870E-04
  1087.5      1.78600E-04
  1092.5      1.71900E-04
  1097.5      1.74460E-04
  1102.5      1.74060E-04
  1107.5      1.72620E-04
  1112.5      1.71150E-04
  1117.5      1.69800E-04
  1122.5      1.68370E-04
  1127.5      1.66960E-04
  1132.5      1.65560E-04
  1137.5      1.64190E-04
  1142.5      1.62830E-04
  1147.5      1.61490E-04
  1152.5      1.60160E-04
  1157.5      1.58850E-04
  1162.5      1.56140E-04
  1167.5      1.55270E-04
  1172.5      1.55010E-04
  1177.5      1.53770E-04
  1182.5      1.52530E-04
  1187.5      1.51310E-04
  1192.5      1.50110E-04
  1197.5      1.48770E-04
  1202.5      1.47750E-04
  1207.5      1.46580E-04
  1212.5      1.45430E-04
  1217.5      1.44300E-04
  1222.5      1.43180E-04
  1227.5      1.42070E-04
  1232.5      1.40970E-04
  1237.5      1.39890E-04
  1242.5      1.38820E-04
  1247.5      1.37760E-04
  1252.5      1.36700E-04
  1257.5      1.35680E-04
  1262.5      1.34660E-04
  1267.5      1.33640E-04
  1272.5      1.32640E-04
  1277.5      1.31140E-04
  1282.5      1.26410E-04
  1287.5      1.29550E-04
  1292.5      1.28750E-04
  1297.5      1.27760E-04
  1302.5      1.26870E-04
  1307.5      1.25940E-04
  1312.5      1.25030E-04
  1317.5      1.24120E-04
  1322.5      1.23230E-04
  1327.5      1.22340E-04
  1332.5      1.21460E-04
  1337.5      1.20600E-04
  1342.5      1.19730E-04
  1347.5      1.18890E-04
  1352.5      1.18050E-04
  1357.5      1.17220E-04
  1362.5      1.16390E-04
  1367.5      1.15580E-04
  1372.5      1.14770E-04
  1377.5      1.13980E-04
  1382.5      1.13190E-04
  1387.5      1.12410E-04
  1392.5      1.11640E-04
  1397.5      1.10870E-04
