 Castelli and Kurucz 2004-2012 Atmosphere
 T     40000.     G    5.00000 [-1.5] N(He)/Ntot=0.0784 VTURB=2  L/H=1.25 NOVER
 Wavelength  Eddington Hnu
   (nm)    (ergs/s/cm2/Hz/sr)
  9.0900      8.04120E-24
  9.3500      2.96000E-23
  9.6100      1.02320E-22
  9.7700      2.13210E-22
  9.9600      4.95650E-22
  10.200      1.38230E-21
  10.380      2.90370E-21
  10.560      5.96280E-21
  10.770      1.34340E-20
  11.040      3.66520E-20
  11.400      1.30810E-19
  11.780      4.65220E-19
  12.130      1.40530E-18
  12.480      4.01290E-18
  12.710      7.77430E-18
  12.840      1.11910E-17
  13.050      1.98830E-17
  13.240      3.29710E-17
  13.390      4.86980E-17
  13.660      9.63790E-17
  13.980      2.09980E-16
  14.330      4.74320E-16
  14.720      1.12650E-15
  15.100      2.51870E-15
  15.520      5.87030E-15
  15.880      1.17220E-14
  16.200      2.11710E-14
  16.600      4.30160E-14
  17.030      8.89530E-14
  17.340      1.46950E-13
  17.680      2.50100E-13
  18.020      4.17660E-13
  18.170      5.20380E-13
  18.610      9.73650E-13
  19.100      1.89170E-12
  19.390      2.76050E-12
  19.840      4.85820E-12
  20.180      7.32360E-12
  20.500      1.06430E-11
  21.050      1.97070E-11
  21.620      3.61360E-11
  21.980      5.21540E-11
  22.300      7.15210E-11
  22.680      1.02800E-10
  23.000      7.45480E-09
  23.400      3.29370E-08
  24.000      9.53210E-08
  24.650      4.83660E-07
  25.240      1.61230E-06
  25.680      1.36920E-06
  26.000      5.32260E-06
  26.400      1.31190E-05
  26.850      2.13060E-05
  27.350      2.87570E-05
  27.850      2.92650E-05
  28.400      4.67830E-05
  29.000      5.49630E-05
  29.600      4.07500E-05
  30.100      8.72250E-06
  30.800      2.68420E-05
  31.800      5.78480E-05
  32.800      7.14660E-05
  33.800      7.39230E-05
  34.800      8.38320E-05
  35.700      1.07600E-04
  36.600      1.30200E-04
  37.500      1.39640E-04
  38.500      1.36050E-04
  39.500      1.60140E-04
  40.500      1.76140E-04
  41.400      1.84710E-04
  42.200      1.85320E-04
  43.000      1.86580E-04
  44.100      2.07070E-04
  45.100      2.18470E-04
  46.000      2.19510E-04
  47.000      2.30540E-04
  48.000      2.47140E-04
  49.000      2.48320E-04
  50.000      2.72740E-04
  50.600      3.86370E-04
  51.200      7.15150E-04
  52.000      7.10030E-04
  53.000      7.17130E-04
  54.000      6.77530E-04
  55.000      7.08520E-04
  56.000      8.10990E-04
  57.000      8.37970E-04
  58.000      8.29130E-04
  59.000      8.69060E-04
  60.000      8.57500E-04
  61.000      8.69930E-04
  62.000      9.50180E-04
  63.000      9.59930E-04
  64.000      9.93520E-04
  65.000      9.97430E-04
  65.800      9.82750E-04
  66.500      1.02550E-03
  67.500      1.06910E-03
  68.500      1.04250E-03
  69.500      1.09860E-03
  70.500      1.07470E-03
  71.600      1.14800E-03
  72.600      1.16950E-03
  73.500      1.19070E-03
  74.500      1.19070E-03
  75.500      1.20400E-03
  76.500      1.20530E-03
  77.500      1.23390E-03
  78.500      1.25100E-03
  79.500      1.27140E-03
  80.500      1.28650E-03
  81.500      1.30780E-03
  82.500      1.33150E-03
  83.500      1.28300E-03
  84.500      1.35400E-03
  85.500      1.36170E-03
  86.500      1.39010E-03
  87.500      1.40580E-03
  88.500      1.41700E-03
  89.500      1.42830E-03
  90.500      1.42890E-03
  91.500      1.20120E-03
  92.500      2.04490E-03
  93.500      2.75940E-03
  94.500      3.70730E-03
  95.500      4.12460E-03
  96.500      4.94810E-03
  97.500      3.61310E-03
  98.500      4.95600E-03
  99.500      4.58600E-03
  100.50      4.91970E-03
  101.50      4.91560E-03
  102.50      3.65760E-03
  103.50      4.84040E-03
  104.50      4.95730E-03
  105.50      4.93320E-03
  106.50      4.80760E-03
  107.50      4.79520E-03
  108.50      4.49570E-03
  109.50      4.78210E-03
  110.50      4.70940E-03
  111.50      4.66420E-03
  112.50      4.53860E-03
  113.50      4.63340E-03
  114.50      4.59840E-03
  115.50      4.51740E-03
  116.50      4.47580E-03
  117.50      4.11560E-03
  118.50      4.36400E-03
  119.50      4.34780E-03
  120.50      4.26730E-03
  121.50      3.27330E-03
  122.50      4.19880E-03
  123.50      4.22900E-03
  124.50      4.18610E-03
  125.50      4.21260E-03
  126.50      4.19600E-03
  127.50      4.17070E-03
  128.50      4.14590E-03
  129.50      4.08970E-03
  130.50      4.06630E-03
  131.50      4.05290E-03
  132.50      4.01100E-03
  133.50      3.98450E-03
  134.50      3.96670E-03
  135.50      3.92090E-03
  136.50      3.87810E-03
  137.50      3.83310E-03
  138.50      3.81800E-03
  139.50      3.74040E-03
  140.50      3.68930E-03
  141.50      3.74170E-03
  142.50      3.67140E-03
  143.50      3.68290E-03
  144.20      3.65260E-03
  144.70      3.64030E-03
  145.50      3.60760E-03
  146.50      3.59110E-03
  147.50      3.56620E-03
  148.50      3.56110E-03
  149.50      3.52350E-03
  150.50      3.51010E-03
  151.20      3.49880E-03
  151.70      3.47400E-03
  152.50      3.44670E-03
  153.50      3.36700E-03
  154.50      3.22710E-03
  155.50      3.23180E-03
  156.50      3.27930E-03
  157.50      3.28880E-03
  158.50      3.28090E-03
  159.50      3.25560E-03
  160.50      3.18390E-03
  161.50      3.15410E-03
  162.50      3.13050E-03
  163.50      3.06740E-03
  164.50      2.94350E-03
  165.50      3.11340E-03
  166.50      3.09720E-03
  167.20      3.04420E-03
  167.70      3.09660E-03
  168.50      3.07180E-03
  169.50      3.05300E-03
  170.50      3.02370E-03
  171.50      2.96380E-03
  172.50      2.95910E-03
  173.50      2.98010E-03
  174.50      2.95460E-03
  175.50      2.92400E-03
  176.50      2.91750E-03
  177.50      2.90010E-03
  178.50      2.88340E-03
  179.50      2.85660E-03
  180.50      2.84160E-03
  181.50      2.82230E-03
  182.50      2.80040E-03
  183.50      2.78780E-03
  184.50      2.76660E-03
  185.50      2.74520E-03
  186.50      2.72600E-03
  187.50      2.70720E-03
  188.50      2.68890E-03
  189.50      2.67780E-03
  190.50      2.66250E-03
  191.50      2.64370E-03
  192.50      2.60680E-03
  193.50      2.60990E-03
  194.50      2.59360E-03
  195.50      2.57200E-03
  196.70      2.55570E-03
  197.60      2.54140E-03
  198.40      2.52830E-03
  199.50      2.50910E-03
  200.50      2.49460E-03
  201.50      2.47850E-03
  202.50      2.46230E-03
  203.50      2.44630E-03
  204.50      2.42980E-03
  205.50      1.89030E-03
  206.50      1.82650E-03
  207.40      1.85150E-03
  207.80      1.88730E-03
  208.50      1.98130E-03
  209.50      2.18520E-03
  210.50      2.32140E-03
  211.50      2.33240E-03
  212.50      2.31720E-03
  213.50      2.29990E-03
  214.50      2.28880E-03
  215.50      2.30300E-03
  216.50      2.23440E-03
  217.50      2.29240E-03
  218.50      2.20710E-03
  219.50      2.26470E-03
  220.50      2.25600E-03
  221.50      2.15960E-03
  222.50      2.22740E-03
  223.50      2.21670E-03
  224.50      2.19850E-03
  225.50      2.10720E-03
  226.50      2.17480E-03
  227.50      2.16230E-03
  228.50      2.14680E-03
  229.50      2.11350E-03
  230.50      2.04550E-03
  231.50      2.10540E-03
  232.50      2.09660E-03
  233.50      2.08400E-03
  234.50      2.07110E-03
  235.50      2.05860E-03
  236.50      2.04620E-03
  237.50      2.03290E-03
  238.50      1.94820E-03
  239.50      2.00330E-03
  240.50      1.99680E-03
  241.50      1.98490E-03
  242.50      1.97380E-03
  243.50      1.96170E-03
  244.50      1.95030E-03
  245.50      1.93770E-03
  246.50      1.92750E-03
  247.50      1.91630E-03
  248.50      1.90470E-03
  249.50      1.84140E-03
  250.50      1.87270E-03
  251.30      1.74460E-03
  251.80      1.85520E-03
  252.50      1.85940E-03
  253.50      1.85050E-03
  254.50      1.83990E-03
  255.50      1.82920E-03
  256.50      1.81890E-03
  257.50      1.80850E-03
  258.50      1.79830E-03
  259.50      1.78670E-03
  260.50      1.77950E-03
  261.50      1.76900E-03
  262.50      1.75950E-03
  263.50      1.74960E-03
  264.50      1.73960E-03
  265.50      1.72990E-03
  266.50      1.71950E-03
  267.50      1.70820E-03
  268.50      1.70120E-03
  269.50      1.68960E-03
  270.50      1.68280E-03
  271.50      1.67320E-03
  272.50      1.66060E-03
  273.50      1.60400E-03
  274.50      1.64620E-03
  275.50      1.63720E-03
  276.50      1.62470E-03
  277.50      1.61950E-03
  278.50      1.61070E-03
  279.50      1.60070E-03
  280.50      1.59320E-03
  281.50      1.58490E-03
  282.50      1.57270E-03
  283.50      1.56610E-03
  284.50      1.55980E-03
  285.50      1.55150E-03
  286.50      1.54320E-03
  287.50      1.53520E-03
  288.50      1.52710E-03
  289.50      1.51890E-03
  291.00      1.50700E-03
  293.00      1.49140E-03
  295.00      1.47270E-03
  297.00      1.46050E-03
  299.00      1.44460E-03
  301.00      1.43050E-03
  303.00      1.41510E-03
  305.00      1.40100E-03
  307.00      1.38780E-03
  309.00      1.37390E-03
  311.00      1.36020E-03
  313.00      1.34680E-03
  315.00      1.33380E-03
  317.00      1.32060E-03
  319.00      1.30310E-03
  321.00      1.27550E-03
  323.00      1.28270E-03
  325.00      1.27030E-03
  327.00      1.25670E-03
  329.00      1.24580E-03
  331.00      1.23430E-03
  333.00      1.22270E-03
  335.00      1.21000E-03
  337.00      1.19980E-03
  339.00      1.18880E-03
  341.00      1.17770E-03
  343.00      1.16590E-03
  345.00      1.15370E-03
  347.00      1.14450E-03
  349.00      1.13490E-03
  351.00      1.12500E-03
  353.00      1.11440E-03
  355.00      1.10390E-03
  357.00      1.09600E-03
  359.00      1.08330E-03
  361.00      1.07510E-03
  363.00      1.06380E-03
  364.00      1.04620E-03
  365.00      9.73980E-04
  367.00      9.67020E-04
  369.00      9.60380E-04
  371.00      9.54620E-04
  373.00      9.56020E-04
  375.00      9.62000E-04
  377.00      9.63080E-04
  379.00      9.78640E-04
  381.00      9.98540E-04
  383.00      9.42890E-04
  385.00      1.00250E-03
  387.00      1.01160E-03
  389.00      9.09280E-04
  391.00      1.00040E-03
  393.00      9.92600E-04
  395.00      9.86040E-04
  397.00      8.76040E-04
  399.00      9.67130E-04
  401.00      9.66290E-04
  403.00      9.35750E-04
  405.00      9.55530E-04
  407.00      9.44880E-04
  409.00      9.03860E-04
  411.00      8.46680E-04
  413.00      9.18090E-04
  415.00      9.14000E-04
  417.00      9.09660E-04
  419.00      8.97890E-04
  421.00      8.83420E-04
  423.00      8.88250E-04
  425.00      8.81040E-04
  427.00      8.73850E-04
  429.00      8.66890E-04
  431.00      8.56970E-04
  433.00      8.13660E-04
  435.00      7.78510E-04
  437.00      8.35820E-04
  439.00      8.25510E-04
  441.00      8.26630E-04
  443.00      8.19800E-04
  445.00      8.14060E-04
  447.00      7.93610E-04
  449.00      8.01440E-04
  451.00      7.95230E-04
  453.00      7.87650E-04
  455.00      7.69600E-04
  457.00      7.77430E-04
  459.00      7.71510E-04
  461.00      7.65730E-04
  463.00      7.59590E-04
  465.00      7.51400E-04
  467.00      7.47770E-04
  469.00      7.19620E-04
  471.00      7.34240E-04
  473.00      7.32330E-04
  475.00      7.26960E-04
  477.00      7.21650E-04
  479.00      7.16390E-04
  481.00      7.11140E-04
  483.00      7.03430E-04
  485.00      6.74950E-04
  487.00      6.37310E-04
  489.00      6.87060E-04
  491.00      6.85560E-04
  493.00      6.74330E-04
  495.00      6.76300E-04
  497.00      6.71590E-04
  499.00      6.66880E-04
  501.00      6.59120E-04
  503.00      6.57580E-04
  505.00      6.52070E-04
  507.00      6.48490E-04
  509.00      6.44020E-04
  511.00      6.39580E-04
  513.00      6.35200E-04
  515.00      6.30850E-04
  517.00      6.26550E-04
  519.00      6.22300E-04
  521.00      6.18090E-04
  523.00      6.13930E-04
  525.00      6.09780E-04
  527.00      6.05660E-04
  529.00      6.01670E-04
  531.00      5.97660E-04
  533.00      5.93690E-04
  535.00      5.89770E-04
  537.00      5.85880E-04
  539.00      5.82020E-04
  541.00      5.67690E-04
  543.00      5.74320E-04
  545.00      5.70700E-04
  547.00      5.66990E-04
  549.00      5.63330E-04
  551.00      5.59680E-04
  553.00      5.56100E-04
  555.00      5.52540E-04
  557.00      5.49000E-04
  559.00      5.45370E-04
  561.00      5.42050E-04
  563.00      5.38620E-04
  565.00      5.35220E-04
  567.00      5.31860E-04
  569.00      5.23700E-04
  571.00      5.00480E-04
  573.00      4.97570E-04
  575.00      4.94690E-04
  577.00      4.91860E-04
  579.00      4.89090E-04
  581.00      4.86370E-04
  583.00      4.84100E-04
  585.00      4.82210E-04
  587.00      4.75070E-04
  589.00      4.79020E-04
  591.00      4.78230E-04
  593.00      4.77400E-04
  595.00      4.76740E-04
  597.00      4.76230E-04
  599.00      4.75990E-04
  601.00      4.75180E-04
  603.00      4.73980E-04
  605.00      4.73310E-04
  607.00      4.70780E-04
  609.00      4.68610E-04
  611.00      4.65670E-04
  613.00      4.63110E-04
  615.00      4.60410E-04
  617.00      4.57430E-04
  619.00      4.55060E-04
  621.00      4.52420E-04
  623.00      4.49210E-04
  625.00      4.47170E-04
  627.00      4.44630E-04
  629.00      4.42080E-04
  631.00      4.38460E-04
  633.00      4.37030E-04
  635.00      4.34560E-04
  637.00      4.32090E-04
  639.00      4.29600E-04
  641.00      4.25630E-04
  643.00      4.24810E-04
  645.00      4.22430E-04
  647.00      4.20060E-04
  649.00      4.17720E-04
  651.00      4.14980E-04
  653.00      4.09690E-04
  655.00      4.01960E-04
  657.00      3.76370E-04
  659.00      4.04090E-04
  661.00      4.03900E-04
  663.00      4.01840E-04
  665.00      3.99700E-04
  667.00      3.95090E-04
  669.00      3.90670E-04
  671.00      3.93160E-04
  673.00      3.91090E-04
  675.00      3.88970E-04
  677.00      3.86900E-04
  679.00      3.84830E-04
  681.00      3.82770E-04
  683.00      3.80730E-04
  685.00      3.78700E-04
  687.00      3.76690E-04
  689.00      3.71460E-04
  691.00      3.72560E-04
  693.00      3.70770E-04
  695.00      3.68820E-04
  697.00      3.66890E-04
  699.00      3.64980E-04
  701.00      3.63070E-04
  703.00      3.61160E-04
  705.00      3.59310E-04
  707.00      3.55060E-04
  709.00      3.55620E-04
  711.00      3.53790E-04
  713.00      3.51980E-04
  715.00      3.50180E-04
  717.00      3.46030E-04
  719.00      3.45180E-04
  721.00      3.44860E-04
  723.00      3.43110E-04
  725.00      3.41380E-04
  727.00      3.39670E-04
  729.00      3.36890E-04
  731.00      3.36260E-04
  733.00      3.34590E-04
  735.00      3.32920E-04
  737.00      3.31260E-04
  739.00      3.29620E-04
  741.00      3.27980E-04
  743.00      3.26370E-04
  745.00      3.24760E-04
  747.00      3.23170E-04
  749.00      3.21560E-04
  751.00      3.20010E-04
  753.00      3.18450E-04
  755.00      3.16900E-04
  757.00      3.15360E-04
  759.00      3.10080E-04
  761.00      3.12070E-04
  763.00      3.10820E-04
  765.00      3.09320E-04
  767.00      3.07840E-04
  769.00      3.06360E-04
  771.00      3.04900E-04
  773.00      3.03430E-04
  775.00      3.02010E-04
  777.00      3.00580E-04
  779.00      2.99160E-04
  781.00      2.97720E-04
  783.00      2.96340E-04
  785.00      2.95020E-04
  787.00      2.93640E-04
  789.00      2.92260E-04
  791.00      2.90900E-04
  793.00      2.89550E-04
  795.00      2.88210E-04
  797.00      2.86870E-04
  799.00      2.85540E-04
  801.00      2.84230E-04
  803.00      2.82920E-04
  805.00      2.81620E-04
  807.00      2.80330E-04
  809.00      2.79050E-04
  811.00      2.77780E-04
  813.00      2.76510E-04
  815.00      2.75260E-04
  817.00      2.74010E-04
  819.00      2.71940E-04
  821.00      2.64280E-04
  823.00      2.61580E-04
  825.00      2.61640E-04
  827.00      2.60810E-04
  829.00      2.59870E-04
  831.00      2.58790E-04
  833.00      2.57630E-04
  835.00      2.56360E-04
  837.00      2.55430E-04
  839.00      2.54410E-04
  841.00      2.53370E-04
  843.00      2.52320E-04
  845.00      2.51010E-04
  847.00      2.50320E-04
  849.00      2.49360E-04
  851.00      2.48480E-04
  853.00      2.47500E-04
  855.00      2.46590E-04
  857.00      2.45970E-04
  859.00      2.44270E-04
  861.00      2.43950E-04
  863.00      2.43780E-04
  865.00      2.42230E-04
  867.00      2.40440E-04
  869.00      2.41460E-04
  871.00      2.41250E-04
  873.00      2.39310E-04
  875.00      2.35440E-04
  877.00      2.37110E-04
  879.00      2.38600E-04
  881.00      2.38330E-04
  883.00      2.37150E-04
  885.00      2.32190E-04
  887.00      2.27880E-04
  889.00      2.33490E-04
  891.00      2.34440E-04
  893.00      2.33960E-04
  895.00      2.33330E-04
  897.00      2.31980E-04
  899.00      2.28600E-04
  901.00      2.19440E-04
  903.00      2.22120E-04
  905.00      2.27060E-04
  907.00      2.26750E-04
  909.00      2.26760E-04
  911.00      2.26010E-04
  913.00      2.25600E-04
  915.00      2.24600E-04
  917.00      2.23030E-04
  919.00      2.21400E-04
  921.00      2.16390E-04
  923.00      2.06090E-04
  925.00      2.14310E-04
  927.00      2.17640E-04
  929.00      2.17730E-04
  931.00      2.17030E-04
  933.00      2.16310E-04
  935.00      2.11690E-04
  937.00      2.14350E-04
  939.00      2.14020E-04
  941.00      2.13160E-04
  943.00      2.12310E-04
  945.00      2.11470E-04
  947.00      2.10190E-04
  949.00      2.09190E-04
  951.00      2.06780E-04
  953.00      2.01620E-04
  955.00      1.91810E-04
  957.00      2.01850E-04
  959.00      2.04400E-04
  961.00      2.04320E-04
  963.00      2.03750E-04
  965.00      2.03290E-04
  967.00      2.02500E-04
  969.00      2.01680E-04
  971.00      2.00660E-04
  973.00      2.00150E-04
  975.00      1.99300E-04
  977.00      1.98150E-04
  979.00      1.97850E-04
  981.00      1.97090E-04
  983.00      1.96340E-04
  985.00      1.95580E-04
  987.00      1.94840E-04
  989.00      1.94090E-04
  991.00      1.93350E-04
  993.00      1.92620E-04
  995.00      1.91890E-04
  997.00      1.91160E-04
  999.00      1.90000E-04
  1002.5      1.84320E-04
  1007.5      1.81170E-04
  1012.5      1.82970E-04
  1017.5      1.83950E-04
  1022.5      1.82240E-04
  1027.5      1.80590E-04
  1032.5      1.78630E-04
  1037.5      1.77310E-04
  1042.5      1.75290E-04
  1047.5      1.74120E-04
  1052.5      1.72560E-04
  1057.5      1.71010E-04
  1062.5      1.69490E-04
  1067.5      1.67920E-04
  1072.5      1.66510E-04
  1077.5      1.65050E-04
  1082.5      1.62890E-04
  1087.5      1.61770E-04
  1092.5      1.53400E-04
  1097.5      1.56920E-04
  1102.5      1.57670E-04
  1107.5      1.56630E-04
  1112.5      1.55330E-04
  1117.5      1.54050E-04
  1122.5      1.52730E-04
  1127.5      1.51460E-04
  1132.5      1.50200E-04
  1137.5      1.48940E-04
  1142.5      1.47710E-04
  1147.5      1.46480E-04
  1152.5      1.45280E-04
  1157.5      1.44080E-04
  1162.5      1.41750E-04
  1167.5      1.41130E-04
  1172.5      1.40590E-04
  1177.5      1.39460E-04
  1182.5      1.38340E-04
  1187.5      1.37230E-04
  1192.5      1.36130E-04
  1197.5      1.34480E-04
  1202.5      1.33980E-04
  1207.5      1.32930E-04
  1212.5      1.31880E-04
  1217.5      1.30850E-04
  1222.5      1.29830E-04
  1227.5      1.28820E-04
  1232.5      1.27830E-04
  1237.5      1.26840E-04
  1242.5      1.25870E-04
  1247.5      1.24910E-04
  1252.5      1.23880E-04
  1257.5      1.23020E-04
  1262.5      1.22090E-04
  1267.5      1.21170E-04
  1272.5      1.20230E-04
  1277.5      1.18080E-04
  1282.5      1.12800E-04
  1287.5      1.16980E-04
  1292.5      1.16720E-04
  1297.5      1.15610E-04
  1302.5      1.15010E-04
  1307.5      1.14170E-04
  1312.5      1.13340E-04
  1317.5      1.12520E-04
  1322.5      1.11700E-04
  1327.5      1.10900E-04
  1332.5      1.10100E-04
  1337.5      1.09310E-04
  1342.5      1.08510E-04
  1347.5      1.07760E-04
  1352.5      1.07000E-04
  1357.5      1.06250E-04
  1362.5      1.05500E-04
  1367.5      1.04760E-04
  1372.5      1.04030E-04
  1377.5      1.03300E-04
  1382.5      1.02590E-04
  1387.5      1.01880E-04
  1392.5      1.01180E-04
  1397.5      1.00480E-04
