 Castelli and Kurucz 2004-2012 Atmosphere
 T     33000.     G    4.50000 [-1.5] N(He)/Ntot=0.0784 VTURB=2  L/H=1.25 NOVER
 Wavelength  Eddington Hnu
   (nm)    (ergs/s/cm2/Hz/sr)
  9.0900      9.40540E-32
  9.3500      5.47560E-31
  9.6100      2.91550E-30
  9.7700      7.83100E-30
  9.9600      2.43570E-29
  10.200      9.65390E-29
  10.380      2.61130E-28
  10.560      6.84400E-28
  10.770      2.02820E-27
  11.040      7.74830E-27
  11.400      4.22260E-26
  11.780      2.28340E-25
  12.130      9.91180E-25
  12.480      3.99220E-24
  12.710      9.60000E-24
  12.840      1.55550E-23
  13.050      3.32920E-23
  13.240      6.50390E-23
  13.390      1.09000E-22
  13.660      2.69240E-22
  13.980      7.54790E-22
  14.330      2.22130E-21
  14.720      6.99840E-21
  15.100      2.03280E-20
  15.520      6.25110E-20
  15.880      1.56840E-19
  16.200      3.44480E-19
  16.600      8.86100E-19
  17.030      2.33660E-18
  17.340      4.57520E-18
  17.680      9.32240E-18
  18.020      1.85270E-17
  18.170      2.48910E-17
  18.610      5.77200E-17
  19.100      1.41140E-16
  19.390      2.34810E-16
  19.840      5.03130E-16
  20.180      8.75850E-16
  20.500      1.45230E-15
  21.050      3.34550E-15
  21.620      7.61130E-15
  21.980      1.25240E-14
  22.300      1.92420E-14
  22.680      3.15400E-14
  23.000      1.01490E-11
  23.400      5.74100E-11
  24.000      1.42060E-10
  24.650      3.02880E-10
  25.240      5.01510E-10
  25.680      4.54470E-10
  26.000      9.77140E-10
  26.400      1.43560E-09
  26.850      2.00390E-09
  27.350      2.60200E-09
  27.850      3.15900E-09
  28.400      5.13530E-09
  29.000      6.81300E-09
  29.600      8.27240E-09
  30.100      7.83210E-09
  30.800      1.20300E-08
  31.800      2.79020E-08
  32.800      4.03980E-08
  33.800      6.20670E-08
  34.800      9.05500E-08
  35.700      1.21160E-07
  36.600      1.69800E-07
  37.500      2.19280E-07
  38.500      3.03040E-07
  39.500      4.04230E-07
  40.500      5.25840E-07
  41.400      6.69180E-07
  42.200      8.01780E-07
  43.000      9.62430E-07
  44.100      1.24240E-06
  45.100      1.54010E-06
  46.000      1.82810E-06
  47.000      2.25330E-06
  48.000      2.72110E-06
  49.000      3.21820E-06
  50.000      3.89780E-06
  50.600      1.65330E-05
  51.200      5.77430E-05
  52.000      5.72930E-05
  53.000      5.88860E-05
  54.000      5.53580E-05
  55.000      6.31770E-05
  56.000      7.12810E-05
  57.000      7.52930E-05
  58.000      7.29890E-05
  59.000      7.99810E-05
  60.000      8.04760E-05
  61.000      8.54600E-05
  62.000      9.38150E-05
  63.000      9.71710E-05
  64.000      9.92700E-05
  65.000      1.04420E-04
  65.800      1.05510E-04
  66.500      1.09750E-04
  67.500      1.14870E-04
  68.500      1.13450E-04
  69.500      1.24960E-04
  70.500      1.24890E-04
  71.600      1.36030E-04
  72.600      1.39870E-04
  73.500      1.45950E-04
  74.500      1.49800E-04
  75.500      1.54390E-04
  76.500      1.58960E-04
  77.500      1.64900E-04
  78.500      1.72840E-04
  79.500      1.77460E-04
  80.500      1.81930E-04
  81.500      1.87750E-04
  82.500      1.95360E-04
  83.500      1.90390E-04
  84.500      2.05670E-04
  85.500      2.11330E-04
  86.500      2.18740E-04
  87.500      2.24830E-04
  88.500      2.31220E-04
  89.500      2.37670E-04
  90.500      2.41470E-04
  91.500      2.62000E-04
  92.500      8.15430E-04
  93.500      1.32640E-03
  94.500      2.08240E-03
  95.500      2.35270E-03
  96.500      2.87300E-03
  97.500      1.75950E-03
  98.500      2.84900E-03
  99.500      2.68430E-03
  100.50      2.83450E-03
  101.50      2.81980E-03
  102.50      1.91060E-03
  103.50      2.77330E-03
  104.50      2.95000E-03
  105.50      2.93590E-03
  106.50      2.80390E-03
  107.50      2.84330E-03
  108.50      2.67440E-03
  109.50      2.86320E-03
  110.50      2.80240E-03
  111.50      2.79070E-03
  112.50      2.65710E-03
  113.50      2.78260E-03
  114.50      2.73450E-03
  115.50      2.71840E-03
  116.50      2.70720E-03
  117.50      2.35380E-03
  118.50      2.61620E-03
  119.50      2.60610E-03
  120.50      2.51880E-03
  121.50      1.74100E-03
  122.50      2.51540E-03
  123.50      2.59060E-03
  124.50      2.55110E-03
  125.50      2.57370E-03
  126.50      2.57690E-03
  127.50      2.56720E-03
  128.50      2.55710E-03
  129.50      2.46970E-03
  130.50      2.48290E-03
  131.50      2.51040E-03
  132.50      2.47330E-03
  133.50      2.43710E-03
  134.50      2.45700E-03
  135.50      2.43910E-03
  136.50      2.41390E-03
  137.50      2.39780E-03
  138.50      2.38140E-03
  139.50      2.26870E-03
  140.50      2.26790E-03
  141.50      2.32610E-03
  142.50      2.26920E-03
  143.50      2.29420E-03
  144.20      2.29300E-03
  144.70      2.28150E-03
  145.50      2.25890E-03
  146.50      2.24900E-03
  147.50      2.23050E-03
  148.50      2.22870E-03
  149.50      2.20260E-03
  150.50      2.18840E-03
  151.20      2.18420E-03
  151.70      2.17150E-03
  152.50      2.14920E-03
  153.50      2.07070E-03
  154.50      2.00710E-03
  155.50      1.99810E-03
  156.50      2.02880E-03
  157.50      2.04900E-03
  158.50      2.05530E-03
  159.50      2.04170E-03
  160.50      1.97940E-03
  161.50      1.95470E-03
  162.50      1.95660E-03
  163.50      1.94250E-03
  164.50      1.87450E-03
  165.50      1.96050E-03
  166.50      1.94770E-03
  167.20      1.91180E-03
  167.70      1.96730E-03
  168.50      1.94600E-03
  169.50      1.93170E-03
  170.50      1.91100E-03
  171.50      1.87950E-03
  172.50      1.86530E-03
  173.50      1.89280E-03
  174.50      1.87630E-03
  175.50      1.85730E-03
  176.50      1.85090E-03
  177.50      1.84430E-03
  178.50      1.83750E-03
  179.50      1.82140E-03
  180.50      1.81630E-03
  181.50      1.80100E-03
  182.50      1.78770E-03
  183.50      1.78460E-03
  184.50      1.75870E-03
  185.50      1.73950E-03
  186.50      1.73380E-03
  187.50      1.72970E-03
  188.50      1.70770E-03
  189.50      1.69150E-03
  190.50      1.70070E-03
  191.50      1.67620E-03
  192.50      1.65000E-03
  193.50      1.66320E-03
  194.50      1.66370E-03
  195.50      1.63030E-03
  196.70      1.63870E-03
  197.60      1.63770E-03
  198.40      1.62060E-03
  199.50      1.59810E-03
  200.50      1.60670E-03
  201.50      1.60010E-03
  202.50      1.59190E-03
  203.50      1.57830E-03
  204.50      1.56830E-03
  205.50      1.35590E-03
  206.50      1.32520E-03
  207.40      1.34210E-03
  207.80      1.34590E-03
  208.50      1.39300E-03
  209.50      1.47260E-03
  210.50      1.51170E-03
  211.50      1.51110E-03
  212.50      1.50080E-03
  213.50      1.49210E-03
  214.50      1.48340E-03
  215.50      1.48440E-03
  216.50      1.45730E-03
  217.50      1.47200E-03
  218.50      1.44270E-03
  219.50      1.45530E-03
  220.50      1.44750E-03
  221.50      1.41580E-03
  222.50      1.42980E-03
  223.50      1.42140E-03
  224.50      1.41270E-03
  225.50      1.38260E-03
  226.50      1.39660E-03
  227.50      1.38870E-03
  228.50      1.37880E-03
  229.50      1.34640E-03
  230.50      1.34300E-03
  231.50      1.35520E-03
  232.50      1.34820E-03
  233.50      1.34020E-03
  234.50      1.33290E-03
  235.50      1.32510E-03
  236.50      1.31750E-03
  237.50      1.30960E-03
  238.50      1.28170E-03
  239.50      1.29240E-03
  240.50      1.28740E-03
  241.50      1.27990E-03
  242.50      1.27290E-03
  243.50      1.26520E-03
  244.50      1.25840E-03
  245.50      1.25110E-03
  246.50      1.24440E-03
  247.50      1.23740E-03
  248.50      1.23040E-03
  249.50      1.17260E-03
  250.50      1.21460E-03
  251.30      1.17130E-03
  251.80      1.20110E-03
  252.50      1.20340E-03
  253.50      1.19710E-03
  254.50      1.18930E-03
  255.50      1.18320E-03
  256.50      1.17740E-03
  257.50      1.17090E-03
  258.50      1.16470E-03
  259.50      1.15820E-03
  260.50      1.15570E-03
  261.50      1.14920E-03
  262.50      1.14310E-03
  263.50      1.13660E-03
  264.50      1.13010E-03
  265.50      1.12330E-03
  266.50      1.11570E-03
  267.50      1.10860E-03
  268.50      1.10690E-03
  269.50      1.09580E-03
  270.50      1.09490E-03
  271.50      1.08910E-03
  272.50      1.07800E-03
  273.50      1.06470E-03
  274.50      1.07230E-03
  275.50      1.06680E-03
  276.50      1.05490E-03
  277.50      1.05590E-03
  278.50      1.05030E-03
  279.50      1.04170E-03
  280.50      1.03880E-03
  281.50      1.03430E-03
  282.50      1.02180E-03
  283.50      1.01940E-03
  284.50      1.01860E-03
  285.50      1.01330E-03
  286.50      1.00800E-03
  287.50      1.00300E-03
  288.50      9.98050E-04
  289.50      9.92980E-04
  291.00      9.85320E-04
  293.00      9.75700E-04
  295.00      9.60650E-04
  297.00      9.56350E-04
  299.00      9.46530E-04
  301.00      9.37300E-04
  303.00      9.28080E-04
  305.00      9.19340E-04
  307.00      9.10870E-04
  309.00      9.01040E-04
  311.00      8.93350E-04
  313.00      8.85180E-04
  315.00      8.76540E-04
  317.00      8.68380E-04
  319.00      8.54850E-04
  321.00      8.47590E-04
  323.00      8.44180E-04
  325.00      8.36450E-04
  327.00      8.28940E-04
  329.00      8.20850E-04
  331.00      8.14220E-04
  333.00      8.06680E-04
  335.00      7.98300E-04
  337.00      7.92290E-04
  339.00      7.85420E-04
  341.00      7.78440E-04
  343.00      7.69240E-04
  345.00      7.60380E-04
  347.00      7.55360E-04
  349.00      7.48730E-04
  351.00      7.43000E-04
  353.00      7.37550E-04
  355.00      7.30960E-04
  357.00      7.27980E-04
  359.00      7.17620E-04
  361.00      7.13470E-04
  363.00      7.05430E-04
  364.00      7.04920E-04
  365.00      6.87580E-04
  367.00      6.83880E-04
  369.00      6.78310E-04
  371.00      6.66280E-04
  373.00      6.53990E-04
  375.00      6.57720E-04
  377.00      6.51270E-04
  379.00      6.73080E-04
  381.00      6.96030E-04
  383.00      6.34070E-04
  385.00      7.11540E-04
  387.00      7.19290E-04
  389.00      6.16020E-04
  391.00      7.15360E-04
  393.00      7.10700E-04
  395.00      7.04450E-04
  397.00      5.93960E-04
  399.00      6.90470E-04
  401.00      6.89560E-04
  403.00      6.63850E-04
  405.00      6.84280E-04
  407.00      6.75100E-04
  409.00      6.39340E-04
  411.00      5.81850E-04
  413.00      6.54190E-04
  415.00      6.52160E-04
  417.00      6.51000E-04
  419.00      6.45710E-04
  421.00      6.39270E-04
  423.00      6.36540E-04
  425.00      6.31160E-04
  427.00      6.25380E-04
  429.00      6.20910E-04
  431.00      6.13400E-04
  433.00      5.74490E-04
  435.00      5.38560E-04
  437.00      5.98440E-04
  439.00      5.85690E-04
  441.00      5.92280E-04
  443.00      5.87140E-04
  445.00      5.83870E-04
  447.00      5.61380E-04
  449.00      5.74870E-04
  451.00      5.70780E-04
  453.00      5.66410E-04
  455.00      5.59400E-04
  457.00      5.58030E-04
  459.00      5.53640E-04
  461.00      5.49610E-04
  463.00      5.45320E-04
  465.00      5.38040E-04
  467.00      5.37310E-04
  469.00      5.26910E-04
  471.00      5.24670E-04
  473.00      5.26080E-04
  475.00      5.22200E-04
  477.00      5.18600E-04
  479.00      5.14860E-04
  481.00      5.10940E-04
  483.00      5.05080E-04
  485.00      4.79060E-04
  487.00      4.41870E-04
  489.00      4.93280E-04
  491.00      4.92230E-04
  493.00      4.80840E-04
  495.00      4.86190E-04
  497.00      4.83030E-04
  499.00      4.79670E-04
  501.00      4.71990E-04
  503.00      4.73030E-04
  505.00      4.68000E-04
  507.00      4.66600E-04
  509.00      4.63410E-04
  511.00      4.60260E-04
  513.00      4.57130E-04
  515.00      4.54020E-04
  517.00      4.50960E-04
  519.00      4.47960E-04
  521.00      4.44970E-04
  523.00      4.42000E-04
  525.00      4.39040E-04
  527.00      4.36130E-04
  529.00      4.33280E-04
  531.00      4.30430E-04
  533.00      4.27610E-04
  535.00      4.24810E-04
  537.00      4.22040E-04
  539.00      4.19280E-04
  541.00      4.14700E-04
  543.00      4.13890E-04
  545.00      4.11230E-04
  547.00      4.08590E-04
  549.00      4.05980E-04
  551.00      4.03390E-04
  553.00      4.00820E-04
  555.00      3.98290E-04
  557.00      3.95770E-04
  559.00      3.93250E-04
  561.00      3.90810E-04
  563.00      3.88360E-04
  565.00      3.85940E-04
  567.00      3.83500E-04
  569.00      3.80320E-04
  571.00      3.75990E-04
  573.00      3.73730E-04
  575.00      3.71440E-04
  577.00      3.69270E-04
  579.00      3.67060E-04
  581.00      3.64870E-04
  583.00      3.62700E-04
  585.00      3.60670E-04
  587.00      3.50450E-04
  589.00      3.56220E-04
  591.00      3.54830E-04
  593.00      3.52960E-04
  595.00      3.51110E-04
  597.00      3.49320E-04
  599.00      3.47890E-04
  601.00      3.45950E-04
  603.00      3.43910E-04
  605.00      3.41910E-04
  607.00      3.39920E-04
  609.00      3.37930E-04
  611.00      3.35960E-04
  613.00      3.34010E-04
  615.00      3.32060E-04
  617.00      3.30160E-04
  619.00      3.28260E-04
  621.00      3.26380E-04
  623.00      3.24520E-04
  625.00      3.22660E-04
  627.00      3.20830E-04
  629.00      3.19010E-04
  631.00      3.17200E-04
  633.00      3.15420E-04
  635.00      3.13640E-04
  637.00      3.11880E-04
  639.00      3.10140E-04
  641.00      3.08400E-04
  643.00      3.06690E-04
  645.00      3.04990E-04
  647.00      3.03280E-04
  649.00      3.01610E-04
  651.00      2.99960E-04
  653.00      2.97150E-04
  655.00      2.88730E-04
  657.00      2.64330E-04
  659.00      2.91420E-04
  661.00      2.91670E-04
  663.00      2.90290E-04
  665.00      2.88810E-04
  667.00      2.84930E-04
  669.00      2.83260E-04
  671.00      2.84170E-04
  673.00      2.82650E-04
  675.00      2.81160E-04
  677.00      2.79670E-04
  679.00      2.78160E-04
  681.00      2.76720E-04
  683.00      2.75260E-04
  685.00      2.73810E-04
  687.00      2.72380E-04
  689.00      2.70820E-04
  691.00      2.69520E-04
  693.00      2.68130E-04
  695.00      2.66740E-04
  697.00      2.65360E-04
  699.00      2.63990E-04
  701.00      2.62630E-04
  703.00      2.61270E-04
  705.00      2.59940E-04
  707.00      2.55460E-04
  709.00      2.57300E-04
  711.00      2.55980E-04
  713.00      2.54690E-04
  715.00      2.53400E-04
  717.00      2.51980E-04
  719.00      2.50800E-04
  721.00      2.49590E-04
  723.00      2.48200E-04
  725.00      2.47090E-04
  727.00      2.45870E-04
  729.00      2.43100E-04
  731.00      2.43420E-04
  733.00      2.42230E-04
  735.00      2.41040E-04
  737.00      2.39850E-04
  739.00      2.38670E-04
  741.00      2.37500E-04
  743.00      2.36340E-04
  745.00      2.35210E-04
  747.00      2.34050E-04
  749.00      2.32920E-04
  751.00      2.31750E-04
  753.00      2.30680E-04
  755.00      2.29570E-04
  757.00      2.28470E-04
  759.00      2.27210E-04
  761.00      2.26280E-04
  763.00      2.25210E-04
  765.00      2.24140E-04
  767.00      2.23070E-04
  769.00      2.22010E-04
  771.00      2.20970E-04
  773.00      2.19920E-04
  775.00      2.18890E-04
  777.00      2.17860E-04
  779.00      2.16840E-04
  781.00      2.15750E-04
  783.00      2.14830E-04
  785.00      2.13960E-04
  787.00      2.12950E-04
  789.00      2.11940E-04
  791.00      2.11000E-04
  793.00      2.10030E-04
  795.00      2.09070E-04
  797.00      2.08010E-04
  799.00      2.07150E-04
  801.00      2.06210E-04
  803.00      2.05230E-04
  805.00      2.04250E-04
  807.00      2.03330E-04
  809.00      2.02210E-04
  811.00      2.01330E-04
  813.00      2.00580E-04
  815.00      1.99490E-04
  817.00      1.98790E-04
  819.00      1.97680E-04
  821.00      1.96010E-04
  823.00      1.95250E-04
  825.00      1.94610E-04
  827.00      1.93230E-04
  829.00      1.92890E-04
  831.00      1.92100E-04
  833.00      1.91180E-04
  835.00      1.89750E-04
  837.00      1.89340E-04
  839.00      1.88700E-04
  841.00      1.87890E-04
  843.00      1.86980E-04
  845.00      1.85340E-04
  847.00      1.85360E-04
  849.00      1.84290E-04
  851.00      1.83600E-04
  853.00      1.82620E-04
  855.00      1.81380E-04
  857.00      1.81970E-04
  859.00      1.78310E-04
  861.00      1.78650E-04
  863.00      1.80380E-04
  865.00      1.77420E-04
  867.00      1.72910E-04
  869.00      1.78080E-04
  871.00      1.78690E-04
  873.00      1.75230E-04
  875.00      1.66390E-04
  877.00      1.72250E-04
  879.00      1.76230E-04
  881.00      1.76090E-04
  883.00      1.74660E-04
  885.00      1.67000E-04
  887.00      1.59750E-04
  889.00      1.70970E-04
  891.00      1.72620E-04
  893.00      1.72250E-04
  895.00      1.71840E-04
  897.00      1.70760E-04
  899.00      1.67110E-04
  901.00      1.54310E-04
  903.00      1.59460E-04
  905.00      1.66810E-04
  907.00      1.66240E-04
  909.00      1.66790E-04
  911.00      1.66740E-04
  913.00      1.66150E-04
  915.00      1.65460E-04
  917.00      1.64070E-04
  919.00      1.62940E-04
  921.00      1.57300E-04
  923.00      1.44090E-04
  925.00      1.56050E-04
  927.00      1.60130E-04
  929.00      1.60350E-04
  931.00      1.59550E-04
  933.00      1.59530E-04
  935.00      1.58450E-04
  937.00      1.58280E-04
  939.00      1.57650E-04
  941.00      1.57020E-04
  943.00      1.56400E-04
  945.00      1.55770E-04
  947.00      1.54350E-04
  949.00      1.54060E-04
  951.00      1.51650E-04
  953.00      1.46270E-04
  955.00      1.34620E-04
  957.00      1.47650E-04
  959.00      1.50460E-04
  961.00      1.50290E-04
  963.00      1.49710E-04
  965.00      1.49780E-04
  967.00      1.49200E-04
  969.00      1.48530E-04
  971.00      1.47650E-04
  973.00      1.47470E-04
  975.00      1.46910E-04
  977.00      1.46340E-04
  979.00      1.45780E-04
  981.00      1.45220E-04
  983.00      1.44670E-04
  985.00      1.44120E-04
  987.00      1.43570E-04
  989.00      1.43020E-04
  991.00      1.42430E-04
  993.00      1.41940E-04
  995.00      1.41400E-04
  997.00      1.40860E-04
  999.00      1.39950E-04
  1002.5      1.34270E-04
  1007.5      1.31580E-04
  1012.5      1.35980E-04
  1017.5      1.35580E-04
  1022.5      1.34290E-04
  1027.5      1.33100E-04
  1032.5      1.31470E-04
  1037.5      1.30700E-04
  1042.5      1.29520E-04
  1047.5      1.28350E-04
  1052.5      1.27200E-04
  1057.5      1.26070E-04
  1062.5      1.24950E-04
  1067.5      1.23680E-04
  1072.5      1.22760E-04
  1077.5      1.21690E-04
  1082.5      1.19690E-04
  1087.5      1.19210E-04
  1092.5      1.10660E-04
  1097.5      1.15150E-04
  1102.5      1.15920E-04
  1107.5      1.15450E-04
  1112.5      1.14550E-04
  1117.5      1.13580E-04
  1122.5      1.12580E-04
  1127.5      1.11680E-04
  1132.5      1.10740E-04
  1137.5      1.09820E-04
  1142.5      1.08910E-04
  1147.5      1.08020E-04
  1152.5      1.07130E-04
  1157.5      1.06250E-04
  1162.5      1.05310E-04
  1167.5      1.04520E-04
  1172.5      1.03690E-04
  1177.5      1.02850E-04
  1182.5      1.02030E-04
  1187.5      1.01210E-04
  1192.5      1.00410E-04
  1197.5      9.87720E-05
  1202.5      9.88240E-05
  1207.5      9.80470E-05
  1212.5      9.72790E-05
  1217.5      9.65200E-05
  1222.5      9.57700E-05
  1227.5      9.50290E-05
  1232.5      9.42960E-05
  1237.5      9.35710E-05
  1242.5      9.28550E-05
  1247.5      9.21460E-05
  1252.5      9.13060E-05
  1257.5      9.07540E-05
  1262.5      9.00700E-05
  1267.5      8.93940E-05
  1272.5      8.86720E-05
  1277.5      8.66950E-05
  1282.5      8.15970E-05
  1287.5      8.62000E-05
  1292.5      8.61220E-05
  1297.5      8.50170E-05
  1302.5      8.48650E-05
  1307.5      8.42470E-05
  1312.5      8.36350E-05
  1317.5      8.30290E-05
  1322.5      8.24300E-05
  1327.5      8.18380E-05
  1332.5      8.12520E-05
  1337.5      8.06710E-05
  1342.5      8.00480E-05
  1347.5      7.95300E-05
  1352.5      7.89680E-05
  1357.5      7.84130E-05
  1362.5      7.78610E-05
  1367.5      7.73190E-05
  1372.5      7.67790E-05
  1377.5      7.62480E-05
  1382.5      7.57200E-05
  1387.5      7.51980E-05
  1392.5      7.46810E-05
  1397.5      7.41700E-05
