 Castelli and Kurucz 2004-2012 Atmosphere
 T     41000.     G    4.50000 [-1.5] N(He)/Ntot=0.0784 VTURB=2  L/H=1.25 NOVER
 Wavelength  Eddington Hnu
   (nm)    (ergs/s/cm2/Hz/sr)
  9.0900      2.39650E-23
  9.3500      8.36280E-23
  9.6100      2.74620E-22
  9.7700      5.55790E-22
  9.9600      1.25170E-21
  10.200      3.35910E-21
  10.380      6.86530E-21
  10.560      1.37370E-20
  10.770      3.00890E-20
  11.040      7.94060E-20
  11.400      2.72320E-19
  11.780      9.33760E-19
  12.130      2.73920E-18
  12.480      7.62490E-18
  12.710      1.45470E-17
  12.840      2.07740E-17
  13.050      3.64520E-17
  13.240      5.98120E-17
  13.390      8.76480E-17
  13.660      1.71210E-16
  13.980      3.67790E-16
  14.330      8.18600E-16
  14.720      1.91560E-15
  15.100      4.22790E-15
  15.520      9.71950E-15
  15.880      1.91940E-14
  16.200      3.43400E-14
  16.600      6.90220E-14
  17.030      1.41090E-13
  17.340      2.31310E-13
  17.680      3.90290E-13
  18.020      6.46040E-13
  18.170      8.01240E-13
  18.610      1.48670E-12
  19.100      2.85850E-12
  19.390      4.14450E-12
  19.840      7.21940E-12
  20.180      1.08070E-11
  20.500      1.56170E-11
  21.050      2.86300E-11
  21.620      5.19040E-11
  21.980      7.44140E-11
  22.300      1.01480E-10
  22.680      1.44930E-10
  23.000      1.63410E-08
  23.400      6.96940E-08
  24.000      2.09030E-07
  24.650      2.21610E-06
  25.240      7.31310E-06
  25.680      5.57530E-06
  26.000      1.93040E-05
  26.400      4.05090E-05
  26.850      5.71870E-05
  27.350      7.26090E-05
  27.850      7.10430E-05
  28.400      1.07130E-04
  29.000      1.25300E-04
  29.600      9.30760E-05
  30.100      1.86810E-05
  30.800      5.54820E-05
  31.800      1.09180E-04
  32.800      1.36400E-04
  33.800      1.36120E-04
  34.800      1.49350E-04
  35.700      2.09850E-04
  36.600      2.62920E-04
  37.500      2.88680E-04
  38.500      2.74550E-04
  39.500      3.37110E-04
  40.500      3.82650E-04
  41.400      4.02510E-04
  42.200      4.03060E-04
  43.000      4.01820E-04
  44.100      4.53290E-04
  45.100      4.77120E-04
  46.000      4.71420E-04
  47.000      4.87030E-04
  48.000      5.21890E-04
  49.000      5.07860E-04
  50.000      5.61190E-04
  50.600      6.27720E-04
  51.200      8.97840E-04
  52.000      8.93580E-04
  53.000      8.94540E-04
  54.000      8.47920E-04
  55.000      8.53260E-04
  56.000      9.99210E-04
  57.000      1.03970E-03
  58.000      1.03690E-03
  59.000      1.08130E-03
  60.000      1.06360E-03
  61.000      1.06170E-03
  62.000      1.16960E-03
  63.000      1.17380E-03
  64.000      1.22460E-03
  65.000      1.22380E-03
  65.800      1.20080E-03
  66.500      1.26260E-03
  67.500      1.31000E-03
  68.500      1.27490E-03
  69.500      1.34460E-03
  70.500      1.30660E-03
  71.600      1.39910E-03
  72.600      1.42700E-03
  73.500      1.44790E-03
  74.500      1.44710E-03
  75.500      1.45900E-03
  76.500      1.45150E-03
  77.500      1.49400E-03
  78.500      1.50020E-03
  79.500      1.53070E-03
  80.500      1.55010E-03
  81.500      1.57430E-03
  82.500      1.59840E-03
  83.500      1.53970E-03
  84.500      1.62210E-03
  85.500      1.62470E-03
  86.500      1.66000E-03
  87.500      1.67870E-03
  88.500      1.68810E-03
  89.500      1.69890E-03
  90.500      1.69670E-03
  91.500      1.41010E-03
  92.500      2.44690E-03
  93.500      3.20440E-03
  94.500      3.91710E-03
  95.500      4.25250E-03
  96.500      4.76340E-03
  97.500      3.81490E-03
  98.500      4.66520E-03
  99.500      4.39750E-03
  100.50      4.62520E-03
  101.50      4.64680E-03
  102.50      3.89040E-03
  103.50      4.63500E-03
  104.50      4.68280E-03
  105.50      4.66180E-03
  106.50      4.56200E-03
  107.50      4.56000E-03
  108.50      4.37070E-03
  109.50      4.55100E-03
  110.50      4.49330E-03
  111.50      4.45380E-03
  112.50      4.36150E-03
  113.50      4.43750E-03
  114.50      4.41360E-03
  115.50      4.34390E-03
  116.50      4.30620E-03
  117.50      4.01890E-03
  118.50      4.23060E-03
  119.50      4.20810E-03
  120.50      4.17770E-03
  121.50      3.49580E-03
  122.50      4.12390E-03
  123.50      4.09590E-03
  124.50      4.05910E-03
  125.50      4.09040E-03
  126.50      4.07320E-03
  127.50      4.05070E-03
  128.50      4.02890E-03
  129.50      3.99390E-03
  130.50      3.96110E-03
  131.50      3.94520E-03
  132.50      3.90830E-03
  133.50      3.89270E-03
  134.50      3.87610E-03
  135.50      3.82680E-03
  136.50      3.77980E-03
  137.50      3.73340E-03
  138.50      3.73410E-03
  139.50      3.67610E-03
  140.50      3.61530E-03
  141.50      3.67420E-03
  142.50      3.61690E-03
  143.50      3.62470E-03
  144.20      3.58510E-03
  144.70      3.57770E-03
  145.50      3.54750E-03
  146.50      3.53370E-03
  147.50      3.51850E-03
  148.50      3.51820E-03
  149.50      3.48260E-03
  150.50      3.47220E-03
  151.20      3.46470E-03
  151.70      3.43720E-03
  152.50      3.41960E-03
  153.50      3.35260E-03
  154.50      3.20990E-03
  155.50      3.21350E-03
  156.50      3.27190E-03
  157.50      3.28050E-03
  158.50      3.26320E-03
  159.50      3.24290E-03
  160.50      3.18140E-03
  161.50      3.15920E-03
  162.50      3.13050E-03
  163.50      3.07750E-03
  164.50      2.95520E-03
  165.50      3.11190E-03
  166.50      3.09760E-03
  167.20      3.04800E-03
  167.70      3.09230E-03
  168.50      3.07110E-03
  169.50      3.05460E-03
  170.50      3.02680E-03
  171.50      2.96610E-03
  172.50      2.96880E-03
  173.50      2.98410E-03
  174.50      2.95950E-03
  175.50      2.93240E-03
  176.50      2.92430E-03
  177.50      2.90760E-03
  178.50      2.89110E-03
  179.50      2.86640E-03
  180.50      2.85120E-03
  181.50      2.83290E-03
  182.50      2.81300E-03
  183.50      2.79910E-03
  184.50      2.77980E-03
  185.50      2.76020E-03
  186.50      2.74160E-03
  187.50      2.72330E-03
  188.50      2.70600E-03
  189.50      2.69500E-03
  190.50      2.67860E-03
  191.50      2.66130E-03
  192.50      2.63030E-03
  193.50      2.62850E-03
  194.50      2.61210E-03
  195.50      2.59260E-03
  196.70      2.57570E-03
  197.60      2.56110E-03
  198.40      2.54870E-03
  199.50      2.53080E-03
  200.50      2.51580E-03
  201.50      2.50000E-03
  202.50      2.48430E-03
  203.50      2.46880E-03
  204.50      2.45150E-03
  205.50      1.90520E-03
  206.50      1.84990E-03
  207.40      1.89840E-03
  207.80      1.94750E-03
  208.50      2.08710E-03
  209.50      2.31090E-03
  210.50      2.36490E-03
  211.50      2.36020E-03
  212.50      2.34560E-03
  213.50      2.32870E-03
  214.50      2.31940E-03
  215.50      2.34260E-03
  216.50      2.27070E-03
  217.50      2.33060E-03
  218.50      2.24810E-03
  219.50      2.30200E-03
  220.50      2.29100E-03
  221.50      2.20640E-03
  222.50      2.26310E-03
  223.50      2.25050E-03
  224.50      2.23510E-03
  225.50      2.15670E-03
  226.50      2.21000E-03
  227.50      2.19720E-03
  228.50      2.18250E-03
  229.50      2.15330E-03
  230.50      2.09610E-03
  231.50      2.14310E-03
  232.50      2.13260E-03
  233.50      2.12020E-03
  234.50      2.10750E-03
  235.50      2.09520E-03
  236.50      2.08290E-03
  237.50      2.07030E-03
  238.50      1.99840E-03
  239.50      2.04190E-03
  240.50      2.03340E-03
  241.50      2.02180E-03
  242.50      2.01140E-03
  243.50      1.99950E-03
  244.50      1.98810E-03
  245.50      1.97540E-03
  246.50      1.96540E-03
  247.50      1.95460E-03
  248.50      1.94300E-03
  249.50      1.88340E-03
  250.50      1.91480E-03
  251.30      1.79920E-03
  251.80      1.89780E-03
  252.50      1.89690E-03
  253.50      1.88930E-03
  254.50      1.87880E-03
  255.50      1.86820E-03
  256.50      1.85800E-03
  257.50      1.84760E-03
  258.50      1.83740E-03
  259.50      1.82500E-03
  260.50      1.81770E-03
  261.50      1.80700E-03
  262.50      1.79780E-03
  263.50      1.78800E-03
  264.50      1.77800E-03
  265.50      1.76850E-03
  266.50      1.75850E-03
  267.50      1.74740E-03
  268.50      1.73960E-03
  269.50      1.72930E-03
  270.50      1.72140E-03
  271.50      1.71190E-03
  272.50      1.70130E-03
  273.50      1.64910E-03
  274.50      1.68480E-03
  275.50      1.67570E-03
  276.50      1.66530E-03
  277.50      1.65800E-03
  278.50      1.64900E-03
  279.50      1.63970E-03
  280.50      1.63180E-03
  281.50      1.62330E-03
  282.50      1.61300E-03
  283.50      1.60580E-03
  284.50      1.59820E-03
  285.50      1.58990E-03
  286.50      1.58150E-03
  287.50      1.57350E-03
  288.50      1.56530E-03
  289.50      1.55720E-03
  291.00      1.54520E-03
  293.00      1.52960E-03
  295.00      1.51260E-03
  297.00      1.49840E-03
  299.00      1.48240E-03
  301.00      1.46820E-03
  303.00      1.45260E-03
  305.00      1.43830E-03
  307.00      1.42490E-03
  309.00      1.41120E-03
  311.00      1.39740E-03
  313.00      1.38370E-03
  315.00      1.37070E-03
  317.00      1.35730E-03
  319.00      1.34190E-03
  321.00      1.31280E-03
  323.00      1.31900E-03
  325.00      1.30650E-03
  327.00      1.29230E-03
  329.00      1.28180E-03
  331.00      1.26990E-03
  333.00      1.25820E-03
  335.00      1.24560E-03
  337.00      1.23490E-03
  339.00      1.22370E-03
  341.00      1.21240E-03
  343.00      1.20200E-03
  345.00      1.19010E-03
  347.00      1.18030E-03
  349.00      1.16960E-03
  351.00      1.15900E-03
  353.00      1.14820E-03
  355.00      1.13780E-03
  357.00      1.12880E-03
  359.00      1.11750E-03
  361.00      1.10830E-03
  363.00      1.09760E-03
  364.00      1.07490E-03
  365.00      9.92050E-04
  367.00      9.84870E-04
  369.00      9.79620E-04
  371.00      9.79820E-04
  373.00      9.85060E-04
  375.00      9.98990E-04
  377.00      1.00720E-03
  379.00      1.02150E-03
  381.00      1.03470E-03
  383.00      9.89830E-04
  385.00      1.03210E-03
  387.00      1.03560E-03
  389.00      9.59170E-04
  391.00      1.02250E-03
  393.00      1.00810E-03
  395.00      1.00710E-03
  397.00      9.25890E-04
  399.00      9.89530E-04
  401.00      9.85260E-04
  403.00      9.59120E-04
  405.00      9.71140E-04
  407.00      9.62480E-04
  409.00      9.35180E-04
  411.00      8.87460E-04
  413.00      9.37520E-04
  415.00      9.30770E-04
  417.00      9.24720E-04
  419.00      9.14020E-04
  421.00      8.98570E-04
  423.00      9.03070E-04
  425.00      8.95930E-04
  427.00      8.88850E-04
  429.00      8.81910E-04
  431.00      8.74180E-04
  433.00      8.44530E-04
  435.00      8.14360E-04
  437.00      8.53620E-04
  439.00      8.45130E-04
  441.00      8.41570E-04
  443.00      8.35030E-04
  445.00      8.28900E-04
  447.00      8.15590E-04
  449.00      8.16370E-04
  451.00      8.10090E-04
  453.00      8.03060E-04
  455.00      7.86120E-04
  457.00      7.92200E-04
  459.00      7.86320E-04
  461.00      7.80490E-04
  463.00      7.74430E-04
  465.00      7.67000E-04
  467.00      7.62610E-04
  469.00      7.34630E-04
  471.00      7.50570E-04
  473.00      7.46950E-04
  475.00      7.41560E-04
  477.00      7.36220E-04
  479.00      7.30950E-04
  481.00      7.25720E-04
  483.00      7.20040E-04
  485.00      7.00970E-04
  487.00      6.67960E-04
  489.00      7.04110E-04
  491.00      7.00430E-04
  493.00      6.92210E-04
  495.00      6.90680E-04
  497.00      6.85890E-04
  499.00      6.81150E-04
  501.00      6.74740E-04
  503.00      6.71790E-04
  505.00      6.66750E-04
  507.00      6.62630E-04
  509.00      6.58130E-04
  511.00      6.53660E-04
  513.00      6.49240E-04
  515.00      6.44870E-04
  517.00      6.40540E-04
  519.00      6.36250E-04
  521.00      6.32000E-04
  523.00      6.27800E-04
  525.00      6.23620E-04
  527.00      6.19460E-04
  529.00      6.15430E-04
  531.00      6.11390E-04
  533.00      6.07380E-04
  535.00      6.03420E-04
  537.00      5.99490E-04
  539.00      5.95600E-04
  541.00      5.82330E-04
  543.00      5.87920E-04
  545.00      5.84160E-04
  547.00      5.80410E-04
  549.00      5.76710E-04
  551.00      5.73020E-04
  553.00      5.69410E-04
  555.00      5.65800E-04
  557.00      5.62230E-04
  559.00      5.58530E-04
  561.00      5.55200E-04
  563.00      5.51730E-04
  565.00      5.48290E-04
  567.00      5.44890E-04
  569.00      5.35710E-04
  571.00      5.07840E-04
  573.00      5.04930E-04
  575.00      5.02060E-04
  577.00      4.99280E-04
  579.00      4.96710E-04
  581.00      4.94340E-04
  583.00      4.92840E-04
  585.00      4.91790E-04
  587.00      4.87570E-04
  589.00      4.90270E-04
  591.00      4.89970E-04
  593.00      4.89960E-04
  595.00      4.90300E-04
  597.00      4.90650E-04
  599.00      4.91300E-04
  601.00      4.89990E-04
  603.00      4.87900E-04
  605.00      4.86480E-04
  607.00      4.83240E-04
  609.00      4.81040E-04
  611.00      4.77790E-04
  613.00      4.75030E-04
  615.00      4.72790E-04
  617.00      4.68740E-04
  619.00      4.67350E-04
  621.00      4.64670E-04
  623.00      4.60490E-04
  625.00      4.59060E-04
  627.00      4.56760E-04
  629.00      4.54160E-04
  631.00      4.49360E-04
  633.00      4.48960E-04
  635.00      4.46520E-04
  637.00      4.44010E-04
  639.00      4.41440E-04
  641.00      4.36170E-04
  643.00      4.36610E-04
  645.00      4.34190E-04
  647.00      4.31780E-04
  649.00      4.29400E-04
  651.00      4.26860E-04
  653.00      4.20700E-04
  655.00      4.17370E-04
  657.00      3.94340E-04
  659.00      4.16990E-04
  661.00      4.15490E-04
  663.00      4.13240E-04
  665.00      4.11030E-04
  667.00      4.07230E-04
  669.00      4.01490E-04
  671.00      4.04390E-04
  673.00      4.02260E-04
  675.00      4.00110E-04
  677.00      3.97990E-04
  679.00      3.95880E-04
  681.00      3.93790E-04
  683.00      3.91710E-04
  685.00      3.89640E-04
  687.00      3.87590E-04
  689.00      3.81170E-04
  691.00      3.83410E-04
  693.00      3.81550E-04
  695.00      3.79570E-04
  697.00      3.77600E-04
  699.00      3.75640E-04
  701.00      3.73700E-04
  703.00      3.71760E-04
  705.00      3.69870E-04
  707.00      3.66370E-04
  709.00      3.66100E-04
  711.00      3.64230E-04
  713.00      3.62380E-04
  715.00      3.60540E-04
  717.00      3.55820E-04
  719.00      3.55310E-04
  721.00      3.55120E-04
  723.00      3.53340E-04
  725.00      3.51570E-04
  727.00      3.49810E-04
  729.00      3.47450E-04
  731.00      3.46330E-04
  733.00      3.44620E-04
  735.00      3.42920E-04
  737.00      3.41230E-04
  739.00      3.39550E-04
  741.00      3.37880E-04
  743.00      3.36230E-04
  745.00      3.34580E-04
  747.00      3.32960E-04
  749.00      3.31320E-04
  751.00      3.29730E-04
  753.00      3.28140E-04
  755.00      3.26550E-04
  757.00      3.24980E-04
  759.00      3.19250E-04
  761.00      3.21650E-04
  763.00      3.20330E-04
  765.00      3.18800E-04
  767.00      3.17290E-04
  769.00      3.15770E-04
  771.00      3.14280E-04
  773.00      3.12780E-04
  775.00      3.11330E-04
  777.00      3.09860E-04
  779.00      3.08410E-04
  781.00      3.06960E-04
  783.00      3.05530E-04
  785.00      3.04130E-04
  787.00      3.02720E-04
  789.00      3.01320E-04
  791.00      2.99930E-04
  793.00      2.98540E-04
  795.00      2.97170E-04
  797.00      2.95800E-04
  799.00      2.94440E-04
  801.00      2.93100E-04
  803.00      2.91760E-04
  805.00      2.90430E-04
  807.00      2.89110E-04
  809.00      2.87800E-04
  811.00      2.86500E-04
  813.00      2.85200E-04
  815.00      2.83920E-04
  817.00      2.82640E-04
  819.00      2.80350E-04
  821.00      2.70620E-04
  823.00      2.68010E-04
  825.00      2.68060E-04
  827.00      2.67150E-04
  829.00      2.66090E-04
  831.00      2.64980E-04
  833.00      2.63850E-04
  835.00      2.62680E-04
  837.00      2.61670E-04
  839.00      2.60640E-04
  841.00      2.59680E-04
  843.00      2.58720E-04
  845.00      2.57660E-04
  847.00      2.56870E-04
  849.00      2.56060E-04
  851.00      2.55210E-04
  853.00      2.54500E-04
  855.00      2.53460E-04
  857.00      2.53200E-04
  859.00      2.51710E-04
  861.00      2.51140E-04
  863.00      2.51310E-04
  865.00      2.50040E-04
  867.00      2.47680E-04
  869.00      2.49370E-04
  871.00      2.49240E-04
  873.00      2.47840E-04
  875.00      2.43000E-04
  877.00      2.45830E-04
  879.00      2.47020E-04
  881.00      2.46610E-04
  883.00      2.45730E-04
  885.00      2.41320E-04
  887.00      2.35860E-04
  889.00      2.42060E-04
  891.00      2.42330E-04
  893.00      2.41440E-04
  895.00      2.40980E-04
  897.00      2.39650E-04
  899.00      2.37180E-04
  901.00      2.28190E-04
  903.00      2.31180E-04
  905.00      2.35070E-04
  907.00      2.34570E-04
  909.00      2.34090E-04
  911.00      2.32840E-04
  913.00      2.32360E-04
  915.00      2.31420E-04
  917.00      2.30350E-04
  919.00      2.28930E-04
  921.00      2.25430E-04
  923.00      2.15180E-04
  925.00      2.23270E-04
  927.00      2.25140E-04
  929.00      2.24960E-04
  931.00      2.23930E-04
  933.00      2.23000E-04
  935.00      2.18250E-04
  937.00      2.20540E-04
  939.00      2.20510E-04
  941.00      2.19630E-04
  943.00      2.18770E-04
  945.00      2.17900E-04
  947.00      2.16870E-04
  949.00      2.16190E-04
  951.00      2.14260E-04
  953.00      2.10630E-04
  955.00      2.01010E-04
  957.00      2.10280E-04
  959.00      2.11500E-04
  961.00      2.11080E-04
  963.00      2.10210E-04
  965.00      2.09540E-04
  967.00      2.08730E-04
  969.00      2.07920E-04
  971.00      2.06980E-04
  973.00      2.06320E-04
  975.00      2.05320E-04
  977.00      2.03700E-04
  979.00      2.03960E-04
  981.00      2.03190E-04
  983.00      2.02410E-04
  985.00      2.01640E-04
  987.00      2.00880E-04
  989.00      2.00120E-04
  991.00      1.99360E-04
  993.00      1.98610E-04
  995.00      1.97860E-04
  997.00      1.97120E-04
  999.00      1.96380E-04
  1002.5      1.91940E-04
  1007.5      1.88810E-04
  1012.5      1.88830E-04
  1017.5      1.89730E-04
  1022.5      1.87990E-04
  1027.5      1.86280E-04
  1032.5      1.84420E-04
  1037.5      1.82920E-04
  1042.5      1.80560E-04
  1047.5      1.79650E-04
  1052.5      1.78050E-04
  1057.5      1.76470E-04
  1062.5      1.74910E-04
  1067.5      1.73330E-04
  1072.5      1.71850E-04
  1077.5      1.70350E-04
  1082.5      1.68360E-04
  1087.5      1.67300E-04
  1092.5      1.60450E-04
  1097.5      1.63230E-04
  1102.5      1.63030E-04
  1107.5      1.61740E-04
  1112.5      1.60380E-04
  1117.5      1.59100E-04
  1122.5      1.57750E-04
  1127.5      1.56440E-04
  1132.5      1.55130E-04
  1137.5      1.53850E-04
  1142.5      1.52580E-04
  1147.5      1.51320E-04
  1152.5      1.50080E-04
  1157.5      1.48850E-04
  1162.5      1.46410E-04
  1167.5      1.45610E-04
  1172.5      1.45270E-04
  1177.5      1.44100E-04
  1182.5      1.42950E-04
  1187.5      1.41810E-04
  1192.5      1.40680E-04
  1197.5      1.39280E-04
  1202.5      1.38470E-04
  1207.5      1.37380E-04
  1212.5      1.36310E-04
  1217.5      1.35250E-04
  1222.5      1.34200E-04
  1227.5      1.33160E-04
  1232.5      1.32140E-04
  1237.5      1.31120E-04
  1242.5      1.30120E-04
  1247.5      1.29130E-04
  1252.5      1.28110E-04
  1257.5      1.27190E-04
  1262.5      1.26230E-04
  1267.5      1.25280E-04
  1272.5      1.24340E-04
  1277.5      1.22740E-04
  1282.5      1.18140E-04
  1287.5      1.21390E-04
  1292.5      1.20700E-04
  1297.5      1.19710E-04
  1302.5      1.18950E-04
  1307.5      1.18080E-04
  1312.5      1.17220E-04
  1317.5      1.16380E-04
  1322.5      1.15540E-04
  1327.5      1.14710E-04
  1332.5      1.13890E-04
  1337.5      1.13080E-04
  1342.5      1.12260E-04
  1347.5      1.11480E-04
  1352.5      1.10690E-04
  1357.5      1.09910E-04
  1362.5      1.09140E-04
  1367.5      1.08380E-04
  1372.5      1.07630E-04
  1377.5      1.06880E-04
  1382.5      1.06140E-04
  1387.5      1.05410E-04
  1392.5      1.04690E-04
  1397.5      1.03970E-04
