 Castelli and Kurucz 2004-2012 Atmosphere
 T     42000.     G    4.50000 [-1.5] N(He)/Ntot=0.0784 VTURB=2  L/H=1.25 NOVER
 Wavelength  Eddington Hnu
   (nm)    (ergs/s/cm2/Hz/sr)
  9.0900      1.20390E-22
  9.3500      3.99950E-22
  9.6100      1.25210E-21
  9.7700      2.46320E-21
  9.9600      5.36090E-21
  10.200      1.38080E-20
  10.380      2.74100E-20
  10.560      5.32560E-20
  10.770      1.12770E-19
  11.040      2.85350E-19
  11.400      9.27330E-19
  11.780      3.01410E-18
  12.130      8.44160E-18
  12.480      2.25050E-17
  12.710      4.18000E-17
  12.840      5.88240E-17
  13.050      1.00900E-16
  13.240      1.62340E-16
  13.390      2.34380E-16
  13.660      4.46300E-16
  13.980      9.31730E-16
  14.330      2.01570E-15
  14.720      4.57750E-15
  15.100      9.84270E-15
  15.520      2.20250E-14
  15.880      4.25920E-14
  16.200      7.48800E-14
  16.600      1.47350E-13
  17.030      2.94850E-13
  17.340      4.76490E-13
  17.680      7.92710E-13
  18.020      1.29380E-12
  18.170      1.59390E-12
  18.610      2.90610E-12
  19.100      5.48720E-12
  19.390      7.87900E-12
  19.840      1.35210E-11
  20.180      2.00140E-11
  20.500      2.86170E-11
  21.050      5.16020E-11
  21.620      9.20730E-11
  21.980      1.30710E-10
  22.300      1.76730E-10
  22.680      2.49860E-10
  23.000      2.64180E-08
  23.400      1.11440E-07
  24.000      4.16200E-07
  24.650      4.99250E-06
  25.240      1.51680E-05
  25.680      1.15910E-05
  26.000      3.56420E-05
  26.400      6.80170E-05
  26.850      9.08000E-05
  27.350      1.13290E-04
  27.850      1.11110E-04
  28.400      1.60590E-04
  29.000      1.87510E-04
  29.600      1.45350E-04
  30.100      3.38610E-05
  30.800      8.66590E-05
  31.800      1.54570E-04
  32.800      1.90140E-04
  33.800      1.86250E-04
  34.800      2.01420E-04
  35.700      2.84760E-04
  36.600      3.55970E-04
  37.500      3.91150E-04
  38.500      3.69220E-04
  39.500      4.55370E-04
  40.500      5.18830E-04
  41.400      5.45640E-04
  42.200      5.45930E-04
  43.000      5.44820E-04
  44.100      6.15610E-04
  45.100      6.47300E-04
  46.000      6.38670E-04
  47.000      6.59210E-04
  48.000      7.05500E-04
  49.000      6.84030E-04
  50.000      7.54450E-04
  50.600      7.90980E-04
  51.200      1.05450E-03
  52.000      1.05130E-03
  53.000      1.05340E-03
  54.000      9.98550E-04
  55.000      9.94570E-04
  56.000      1.16190E-03
  57.000      1.20900E-03
  58.000      1.20760E-03
  59.000      1.25570E-03
  60.000      1.23610E-03
  61.000      1.22450E-03
  62.000      1.34510E-03
  63.000      1.34620E-03
  64.000      1.40470E-03
  65.000      1.40120E-03
  65.800      1.37400E-03
  66.500      1.44470E-03
  67.500      1.49290E-03
  68.500      1.45260E-03
  69.500      1.53030E-03
  70.500      1.48530E-03
  71.600      1.58520E-03
  72.600      1.61560E-03
  73.500      1.63630E-03
  74.500      1.63470E-03
  75.500      1.64520E-03
  76.500      1.63290E-03
  77.500      1.68140E-03
  78.500      1.68320E-03
  79.500      1.71670E-03
  80.500      1.73860E-03
  81.500      1.76290E-03
  82.500      1.78710E-03
  83.500      1.72370E-03
  84.500      1.81030E-03
  85.500      1.80970E-03
  86.500      1.84790E-03
  87.500      1.86740E-03
  88.500      1.87530E-03
  89.500      1.88570E-03
  90.500      1.88120E-03
  91.500      1.54470E-03
  92.500      2.64070E-03
  93.500      3.42420E-03
  94.500      4.13370E-03
  95.500      4.48060E-03
  96.500      4.98360E-03
  97.500      4.04180E-03
  98.500      4.87670E-03
  99.500      4.59980E-03
  100.50      4.83700E-03
  101.50      4.85140E-03
  102.50      4.10640E-03
  103.50      4.84680E-03
  104.50      4.88720E-03
  105.50      4.86500E-03
  106.50      4.76240E-03
  107.50      4.76230E-03
  108.50      4.56920E-03
  109.50      4.74830E-03
  110.50      4.68880E-03
  111.50      4.64820E-03
  112.50      4.55920E-03
  113.50      4.63050E-03
  114.50      4.60550E-03
  115.50      4.53430E-03
  116.50      4.49180E-03
  117.50      4.21320E-03
  118.50      4.42230E-03
  119.50      4.39240E-03
  120.50      4.36610E-03
  121.50      3.68260E-03
  122.50      4.30860E-03
  123.50      4.26700E-03
  124.50      4.23000E-03
  125.50      4.26350E-03
  126.50      4.24330E-03
  127.50      4.21910E-03
  128.50      4.19470E-03
  129.50      4.16130E-03
  130.50      4.12390E-03
  131.50      4.10520E-03
  132.50      4.06640E-03
  133.50      4.05100E-03
  134.50      4.03290E-03
  135.50      3.98000E-03
  136.50      3.92860E-03
  137.50      3.87790E-03
  138.50      3.88210E-03
  139.50      3.82560E-03
  140.50      3.75960E-03
  141.50      3.82090E-03
  142.50      3.76550E-03
  143.50      3.77050E-03
  144.20      3.72550E-03
  144.70      3.71870E-03
  145.50      3.68780E-03
  146.50      3.67240E-03
  147.50      3.65830E-03
  148.50      3.65810E-03
  149.50      3.62170E-03
  150.50      3.60960E-03
  151.20      3.60150E-03
  151.70      3.57250E-03
  152.50      3.55680E-03
  153.50      3.49210E-03
  154.50      3.34450E-03
  155.50      3.34670E-03
  156.50      3.40880E-03
  157.50      3.41420E-03
  158.50      3.39250E-03
  159.50      3.37200E-03
  160.50      3.31280E-03
  161.50      3.29060E-03
  162.50      3.25910E-03
  163.50      3.20290E-03
  164.50      3.07450E-03
  165.50      3.23510E-03
  166.50      3.22060E-03
  167.20      3.17140E-03
  167.70      3.21110E-03
  168.50      3.19020E-03
  169.50      3.17270E-03
  170.50      3.14430E-03
  171.50      3.08100E-03
  172.50      3.08480E-03
  173.50      3.09710E-03
  174.50      3.07170E-03
  175.50      3.04450E-03
  176.50      3.03440E-03
  177.50      3.01640E-03
  178.50      2.99900E-03
  179.50      2.97390E-03
  180.50      2.95730E-03
  181.50      2.93820E-03
  182.50      2.91770E-03
  183.50      2.90220E-03
  184.50      2.88240E-03
  185.50      2.86210E-03
  186.50      2.84290E-03
  187.50      2.82400E-03
  188.50      2.80540E-03
  189.50      2.79310E-03
  190.50      2.77570E-03
  191.50      2.75770E-03
  192.50      2.72700E-03
  193.50      2.72320E-03
  194.50      2.70600E-03
  195.50      2.68620E-03
  196.70      2.66790E-03
  197.60      2.65250E-03
  198.40      2.63980E-03
  199.50      2.62100E-03
  200.50      2.60510E-03
  201.50      2.58870E-03
  202.50      2.57230E-03
  203.50      2.55610E-03
  204.50      2.53780E-03
  205.50      1.97260E-03
  206.50      1.91580E-03
  207.40      1.96590E-03
  207.80      2.01660E-03
  208.50      2.16190E-03
  209.50      2.39290E-03
  210.50      2.44720E-03
  211.50      2.44190E-03
  212.50      2.42700E-03
  213.50      2.40920E-03
  214.50      2.39930E-03
  215.50      2.42370E-03
  216.50      2.34920E-03
  217.50      2.41090E-03
  218.50      2.32560E-03
  219.50      2.38110E-03
  220.50      2.36960E-03
  221.50      2.28220E-03
  222.50      2.34060E-03
  223.50      2.32740E-03
  224.50      2.31150E-03
  225.50      2.23050E-03
  226.50      2.28520E-03
  227.50      2.27190E-03
  228.50      2.25680E-03
  229.50      2.22780E-03
  230.50      2.16740E-03
  231.50      2.21570E-03
  232.50      2.20480E-03
  233.50      2.19180E-03
  234.50      2.17860E-03
  235.50      2.16580E-03
  236.50      2.15310E-03
  237.50      2.14000E-03
  238.50      2.06590E-03
  239.50      2.11070E-03
  240.50      2.10140E-03
  241.50      2.08940E-03
  242.50      2.07870E-03
  243.50      2.06630E-03
  244.50      2.05450E-03
  245.50      2.04130E-03
  246.50      2.03090E-03
  247.50      2.01960E-03
  248.50      2.00750E-03
  249.50      1.94930E-03
  250.50      1.97870E-03
  251.30      1.85880E-03
  251.80      1.96130E-03
  252.50      1.95930E-03
  253.50      1.95170E-03
  254.50      1.94090E-03
  255.50      1.92980E-03
  256.50      1.91920E-03
  257.50      1.90840E-03
  258.50      1.89780E-03
  259.50      1.88480E-03
  260.50      1.87720E-03
  261.50      1.86610E-03
  262.50      1.85660E-03
  263.50      1.84650E-03
  264.50      1.83600E-03
  265.50      1.82610E-03
  266.50      1.81580E-03
  267.50      1.80440E-03
  268.50      1.79610E-03
  269.50      1.78560E-03
  270.50      1.77720E-03
  271.50      1.76730E-03
  272.50      1.75660E-03
  273.50      1.70230E-03
  274.50      1.73920E-03
  275.50      1.72980E-03
  276.50      1.71940E-03
  277.50      1.71140E-03
  278.50      1.70200E-03
  279.50      1.69250E-03
  280.50      1.68420E-03
  281.50      1.67540E-03
  282.50      1.66510E-03
  283.50      1.65740E-03
  284.50      1.64930E-03
  285.50      1.64070E-03
  286.50      1.63210E-03
  287.50      1.62370E-03
  288.50      1.61520E-03
  289.50      1.60680E-03
  291.00      1.59440E-03
  293.00      1.57810E-03
  295.00      1.56090E-03
  297.00      1.54580E-03
  299.00      1.52930E-03
  301.00      1.51460E-03
  303.00      1.49840E-03
  305.00      1.48360E-03
  307.00      1.46950E-03
  309.00      1.45550E-03
  311.00      1.44110E-03
  313.00      1.42690E-03
  315.00      1.41350E-03
  317.00      1.39960E-03
  319.00      1.38400E-03
  321.00      1.35330E-03
  323.00      1.35990E-03
  325.00      1.34700E-03
  327.00      1.33230E-03
  329.00      1.32140E-03
  331.00      1.30900E-03
  333.00      1.29690E-03
  335.00      1.28400E-03
  337.00      1.27290E-03
  339.00      1.26110E-03
  341.00      1.24940E-03
  343.00      1.23860E-03
  345.00      1.22640E-03
  347.00      1.21620E-03
  349.00      1.20500E-03
  351.00      1.19420E-03
  353.00      1.18310E-03
  355.00      1.17240E-03
  357.00      1.16280E-03
  359.00      1.15140E-03
  361.00      1.14170E-03
  363.00      1.13100E-03
  364.00      1.10660E-03
  365.00      1.01930E-03
  367.00      1.01190E-03
  369.00      1.00660E-03
  371.00      1.00750E-03
  373.00      1.01340E-03
  375.00      1.02820E-03
  377.00      1.03750E-03
  379.00      1.05140E-03
  381.00      1.06400E-03
  383.00      1.02020E-03
  385.00      1.06030E-03
  387.00      1.06350E-03
  389.00      9.88160E-04
  391.00      1.04970E-03
  393.00      1.03470E-03
  395.00      1.03390E-03
  397.00      9.53940E-04
  399.00      1.01580E-03
  401.00      1.01140E-03
  403.00      9.85300E-04
  405.00      9.96520E-04
  407.00      9.87690E-04
  409.00      9.60770E-04
  411.00      9.13320E-04
  413.00      9.62300E-04
  415.00      9.55330E-04
  417.00      9.48830E-04
  419.00      9.37770E-04
  421.00      9.21800E-04
  423.00      9.26510E-04
  425.00      9.19170E-04
  427.00      9.11920E-04
  429.00      9.04760E-04
  431.00      8.97020E-04
  433.00      8.67530E-04
  435.00      8.37580E-04
  437.00      8.75740E-04
  439.00      8.67580E-04
  441.00      8.63290E-04
  443.00      8.56610E-04
  445.00      8.50250E-04
  447.00      8.37640E-04
  449.00      8.37380E-04
  451.00      8.30940E-04
  453.00      8.23700E-04
  455.00      8.06230E-04
  457.00      8.12530E-04
  459.00      8.06520E-04
  461.00      8.00510E-04
  463.00      7.94300E-04
  465.00      7.86920E-04
  467.00      7.82140E-04
  469.00      7.53270E-04
  471.00      7.70090E-04
  473.00      7.66030E-04
  475.00      7.60490E-04
  477.00      7.55010E-04
  479.00      7.49580E-04
  481.00      7.44210E-04
  483.00      7.38420E-04
  485.00      7.19640E-04
  487.00      6.86720E-04
  489.00      7.22230E-04
  491.00      7.18230E-04
  493.00      7.10340E-04
  495.00      7.08220E-04
  497.00      7.03300E-04
  499.00      6.98430E-04
  501.00      6.92130E-04
  503.00      6.88810E-04
  505.00      6.83730E-04
  507.00      6.79400E-04
  509.00      6.74780E-04
  511.00      6.70190E-04
  513.00      6.65650E-04
  515.00      6.61150E-04
  517.00      6.56710E-04
  519.00      6.52300E-04
  521.00      6.47940E-04
  523.00      6.43630E-04
  525.00      6.39330E-04
  527.00      6.35070E-04
  529.00      6.30920E-04
  531.00      6.26770E-04
  533.00      6.22660E-04
  535.00      6.18590E-04
  537.00      6.14560E-04
  539.00      6.10560E-04
  541.00      5.96860E-04
  543.00      6.02680E-04
  545.00      5.98820E-04
  547.00      5.94970E-04
  549.00      5.91170E-04
  551.00      5.87380E-04
  553.00      5.83670E-04
  555.00      5.79970E-04
  557.00      5.76300E-04
  559.00      5.72510E-04
  561.00      5.69080E-04
  563.00      5.65520E-04
  565.00      5.61990E-04
  567.00      5.58500E-04
  569.00      5.48920E-04
  571.00      5.19520E-04
  573.00      5.16540E-04
  575.00      5.13600E-04
  577.00      5.10770E-04
  579.00      5.08160E-04
  581.00      5.05760E-04
  583.00      5.04310E-04
  585.00      5.03280E-04
  587.00      4.99470E-04
  589.00      5.01850E-04
  591.00      5.01610E-04
  593.00      5.01700E-04
  595.00      5.02170E-04
  597.00      5.02640E-04
  599.00      5.03460E-04
  601.00      5.02080E-04
  603.00      4.99990E-04
  605.00      4.98590E-04
  607.00      4.95220E-04
  609.00      4.92920E-04
  611.00      4.89560E-04
  613.00      4.86730E-04
  615.00      4.84560E-04
  617.00      4.80210E-04
  619.00      4.78940E-04
  621.00      4.76230E-04
  623.00      4.71730E-04
  625.00      4.70450E-04
  627.00      4.68110E-04
  629.00      4.65440E-04
  631.00      4.60350E-04
  633.00      4.60020E-04
  635.00      4.57600E-04
  637.00      4.55030E-04
  639.00      4.52380E-04
  641.00      4.46770E-04
  643.00      4.47430E-04
  645.00      4.44950E-04
  647.00      4.42480E-04
  649.00      4.40030E-04
  651.00      4.37430E-04
  653.00      4.30930E-04
  655.00      4.27960E-04
  657.00      4.04880E-04
  659.00      4.27350E-04
  661.00      4.25760E-04
  663.00      4.23450E-04
  665.00      4.21180E-04
  667.00      4.17410E-04
  669.00      4.11340E-04
  671.00      4.14370E-04
  673.00      4.12190E-04
  675.00      4.09980E-04
  677.00      4.07810E-04
  679.00      4.05640E-04
  681.00      4.03490E-04
  683.00      4.01360E-04
  685.00      3.99240E-04
  687.00      3.97140E-04
  689.00      3.90330E-04
  691.00      3.92840E-04
  693.00      3.90940E-04
  695.00      3.88900E-04
  697.00      3.86890E-04
  699.00      3.84880E-04
  701.00      3.82890E-04
  703.00      3.80900E-04
  705.00      3.78960E-04
  707.00      3.75590E-04
  709.00      3.75090E-04
  711.00      3.73180E-04
  713.00      3.71280E-04
  715.00      3.69390E-04
  717.00      3.64380E-04
  719.00      3.63950E-04
  721.00      3.63830E-04
  723.00      3.62000E-04
  725.00      3.60190E-04
  727.00      3.58390E-04
  729.00      3.56090E-04
  731.00      3.54820E-04
  733.00      3.53060E-04
  735.00      3.51320E-04
  737.00      3.49580E-04
  739.00      3.47860E-04
  741.00      3.46150E-04
  743.00      3.44450E-04
  745.00      3.42760E-04
  747.00      3.41100E-04
  749.00      3.39420E-04
  751.00      3.37790E-04
  753.00      3.36160E-04
  755.00      3.34530E-04
  757.00      3.32920E-04
  759.00      3.26900E-04
  761.00      3.29500E-04
  763.00      3.28150E-04
  765.00      3.26590E-04
  767.00      3.25030E-04
  769.00      3.23480E-04
  771.00      3.21950E-04
  773.00      3.20410E-04
  775.00      3.18920E-04
  777.00      3.17420E-04
  779.00      3.15930E-04
  781.00      3.14440E-04
  783.00      3.12980E-04
  785.00      3.11540E-04
  787.00      3.10090E-04
  789.00      3.08650E-04
  791.00      3.07220E-04
  793.00      3.05800E-04
  795.00      3.04390E-04
  797.00      3.02990E-04
  799.00      3.01600E-04
  801.00      3.00220E-04
  803.00      2.98840E-04
  805.00      2.97490E-04
  807.00      2.96130E-04
  809.00      2.94790E-04
  811.00      2.93450E-04
  813.00      2.92130E-04
  815.00      2.90810E-04
  817.00      2.89500E-04
  819.00      2.87120E-04
  821.00      2.76740E-04
  823.00      2.74060E-04
  825.00      2.74100E-04
  827.00      2.73190E-04
  829.00      2.72090E-04
  831.00      2.70960E-04
  833.00      2.69800E-04
  835.00      2.68630E-04
  837.00      2.67590E-04
  839.00      2.66530E-04
  841.00      2.65560E-04
  843.00      2.64590E-04
  845.00      2.63560E-04
  847.00      2.62730E-04
  849.00      2.61930E-04
  851.00      2.61060E-04
  853.00      2.60360E-04
  855.00      2.59320E-04
  857.00      2.59040E-04
  859.00      2.57650E-04
  861.00      2.57020E-04
  863.00      2.57140E-04
  865.00      2.55950E-04
  867.00      2.53670E-04
  869.00      2.55220E-04
  871.00      2.55050E-04
  873.00      2.53770E-04
  875.00      2.49110E-04
  877.00      2.51820E-04
  879.00      2.52860E-04
  881.00      2.52430E-04
  883.00      2.51580E-04
  885.00      2.47350E-04
  887.00      2.41950E-04
  889.00      2.47870E-04
  891.00      2.48060E-04
  893.00      2.47130E-04
  895.00      2.46690E-04
  897.00      2.45350E-04
  899.00      2.42920E-04
  901.00      2.34120E-04
  903.00      2.36990E-04
  905.00      2.40670E-04
  907.00      2.40210E-04
  909.00      2.39640E-04
  911.00      2.38290E-04
  913.00      2.37810E-04
  915.00      2.36850E-04
  917.00      2.35770E-04
  919.00      2.34390E-04
  921.00      2.30990E-04
  923.00      2.20840E-04
  925.00      2.28740E-04
  927.00      2.30510E-04
  929.00      2.30230E-04
  931.00      2.29200E-04
  933.00      2.28220E-04
  935.00      2.23260E-04
  937.00      2.25640E-04
  939.00      2.25670E-04
  941.00      2.24780E-04
  943.00      2.23890E-04
  945.00      2.23010E-04
  947.00      2.21990E-04
  949.00      2.21250E-04
  951.00      2.19440E-04
  953.00      2.15870E-04
  955.00      2.06280E-04
  957.00      2.15380E-04
  959.00      2.16530E-04
  961.00      2.16070E-04
  963.00      2.15160E-04
  965.00      2.14440E-04
  967.00      2.13610E-04
  969.00      2.12780E-04
  971.00      2.11850E-04
  973.00      2.11150E-04
  975.00      2.10110E-04
  977.00      2.08370E-04
  979.00      2.08730E-04
  981.00      2.07940E-04
  983.00      2.07140E-04
  985.00      2.06360E-04
  987.00      2.05580E-04
  989.00      2.04800E-04
  991.00      2.04020E-04
  993.00      2.03250E-04
  995.00      2.02490E-04
  997.00      2.01720E-04
  999.00      2.00960E-04
  1002.5      1.96630E-04
  1007.5      1.93440E-04
  1012.5      1.93190E-04
  1017.5      1.94160E-04
  1022.5      1.92380E-04
  1027.5      1.90630E-04
  1032.5      1.88750E-04
  1037.5      1.87190E-04
  1042.5      1.84690E-04
  1047.5      1.83840E-04
  1052.5      1.82200E-04
  1057.5      1.80580E-04
  1062.5      1.78980E-04
  1067.5      1.77380E-04
  1072.5      1.75850E-04
  1077.5      1.74320E-04
  1082.5      1.72340E-04
  1087.5      1.71230E-04
  1092.5      1.64450E-04
  1097.5      1.67120E-04
  1102.5      1.66850E-04
  1107.5      1.65510E-04
  1112.5      1.64110E-04
  1117.5      1.62800E-04
  1122.5      1.61430E-04
  1127.5      1.60080E-04
  1132.5      1.58750E-04
  1137.5      1.57430E-04
  1142.5      1.56130E-04
  1147.5      1.54850E-04
  1152.5      1.53580E-04
  1157.5      1.52320E-04
  1162.5      1.49780E-04
  1167.5      1.48950E-04
  1172.5      1.48650E-04
  1177.5      1.47450E-04
  1182.5      1.46270E-04
  1187.5      1.45110E-04
  1192.5      1.43950E-04
  1197.5      1.42590E-04
  1202.5      1.41690E-04
  1207.5      1.40580E-04
  1212.5      1.39480E-04
  1217.5      1.38390E-04
  1222.5      1.37320E-04
  1227.5      1.36260E-04
  1232.5      1.35210E-04
  1237.5      1.34170E-04
  1242.5      1.33140E-04
  1247.5      1.32130E-04
  1252.5      1.31100E-04
  1257.5      1.30140E-04
  1262.5      1.29160E-04
  1267.5      1.28190E-04
  1272.5      1.27230E-04
  1277.5      1.25660E-04
  1282.5      1.21040E-04
  1287.5      1.24220E-04
  1292.5      1.23500E-04
  1297.5      1.22510E-04
  1302.5      1.21700E-04
  1307.5      1.20810E-04
  1312.5      1.19940E-04
  1317.5      1.19070E-04
  1322.5      1.18210E-04
  1327.5      1.17360E-04
  1332.5      1.16520E-04
  1337.5      1.15690E-04
  1342.5      1.14860E-04
  1347.5      1.14060E-04
  1352.5      1.13250E-04
  1357.5      1.12450E-04
  1362.5      1.11670E-04
  1367.5      1.10890E-04
  1372.5      1.10120E-04
  1377.5      1.09350E-04
  1382.5      1.08600E-04
  1387.5      1.07850E-04
  1392.5      1.07110E-04
  1397.5      1.06370E-04
