 Castelli and Kurucz 2004-2012 Atmosphere
 T     45000.     G    4.50000 [-1.5] N(He)/Ntot=0.0784 VTURB=2  L/H=1.25 NOVER
 Wavelength  Eddington Hnu
   (nm)    (ergs/s/cm2/Hz/sr)
  9.0900      1.26220E-20
  9.3500      3.67310E-20
  9.6100      1.01010E-19
  9.7700      1.84260E-19
  9.9600      3.66720E-19
  10.200      8.45930E-19
  10.380      1.54910E-18
  10.560      2.78440E-18
  10.770      5.39720E-18
  11.040      1.22360E-17
  11.400      3.45580E-17
  11.780      9.74990E-17
  12.130      2.41050E-16
  12.480      5.69930E-16
  12.710      9.81390E-16
  12.840      1.32470E-15
  13.050      2.12590E-15
  13.240      3.22620E-15
  13.390      4.45260E-15
  13.660      7.83180E-15
  13.980      1.49460E-14
  14.330      2.94210E-14
  14.720      6.03280E-14
  15.100      1.18640E-13
  15.520      2.41160E-13
  15.880      4.31620E-13
  16.200      7.11940E-13
  16.600      1.29730E-12
  17.030      2.39700E-12
  17.340      3.66980E-12
  17.680      5.78190E-12
  18.020      8.95310E-12
  18.170      1.07450E-11
  18.610      1.84580E-11
  19.100      3.26090E-11
  19.390      4.51650E-11
  19.840      7.33680E-11
  20.180      1.04430E-10
  20.500      1.44290E-10
  21.050      2.45750E-10
  21.620      4.15010E-10
  21.980      5.70540E-10
  22.300      7.49840E-10
  22.680      1.02590E-09
  23.000      9.09370E-08
  23.400      4.80700E-07
  24.000      4.31070E-06
  24.650      3.25010E-05
  25.240      7.62330E-05
  25.680      6.20120E-05
  26.000      1.38930E-04
  26.400      2.16830E-04
  26.850      2.53640E-04
  27.350      3.04500E-04
  27.850      3.01050E-04
  28.400      3.92620E-04
  29.000      4.54800E-04
  29.600      3.89920E-04
  30.100      1.43200E-04
  30.800      2.43580E-04
  31.800      3.44410E-04
  32.800      4.03840E-04
  33.800      3.82530E-04
  34.800      4.01300E-04
  35.700      5.62280E-04
  36.600      6.94440E-04
  37.500      7.59060E-04
  38.500      7.02960E-04
  39.500      8.69760E-04
  40.500      9.95650E-04
  41.400      1.04550E-03
  42.200      1.04320E-03
  43.000      1.04810E-03
  44.100      1.18580E-03
  45.100      1.24300E-03
  46.000      1.22650E-03
  47.000      1.26740E-03
  48.000      1.35210E-03
  49.000      1.31330E-03
  50.000      1.43640E-03
  50.600      1.38930E-03
  51.200      1.61460E-03
  52.000      1.61450E-03
  53.000      1.62490E-03
  54.000      1.53950E-03
  55.000      1.49870E-03
  56.000      1.73360E-03
  57.000      1.80100E-03
  58.000      1.80780E-03
  59.000      1.86530E-03
  60.000      1.83960E-03
  61.000      1.78930E-03
  62.000      1.94640E-03
  63.000      1.93240E-03
  64.000      2.01800E-03
  65.000      2.00490E-03
  65.800      1.96430E-03
  66.500      2.06350E-03
  67.500      2.10810E-03
  68.500      2.04880E-03
  69.500      2.15330E-03
  70.500      2.08450E-03
  71.600      2.20280E-03
  72.600      2.24040E-03
  73.500      2.25900E-03
  74.500      2.25390E-03
  75.500      2.25700E-03
  76.500      2.22450E-03
  77.500      2.29350E-03
  78.500      2.27960E-03
  79.500      2.32120E-03
  80.500      2.35140E-03
  81.500      2.37310E-03
  82.500      2.39560E-03
  83.500      2.31900E-03
  84.500      2.41480E-03
  85.500      2.40160E-03
  86.500      2.44770E-03
  87.500      2.46860E-03
  88.500      2.46940E-03
  89.500      2.47780E-03
  90.500      2.46470E-03
  91.500      1.97250E-03
  92.500      3.25520E-03
  93.500      4.10540E-03
  94.500      4.80230E-03
  95.500      5.18340E-03
  96.500      5.65400E-03
  97.500      4.73140E-03
  98.500      5.52030E-03
  99.500      5.21800E-03
  100.50      5.47740E-03
  101.50      5.47120E-03
  102.50      4.76080E-03
  103.50      5.48490E-03
  104.50      5.51140E-03
  105.50      5.48470E-03
  106.50      5.37340E-03
  107.50      5.38290E-03
  108.50      5.17530E-03
  109.50      5.34990E-03
  110.50      5.28460E-03
  111.50      5.24080E-03
  112.50      5.15900E-03
  113.50      5.21930E-03
  114.50      5.19000E-03
  115.50      5.11590E-03
  116.50      5.05760E-03
  117.50      4.80870E-03
  118.50      5.00560E-03
  119.50      4.95320E-03
  120.50      4.93400E-03
  121.50      4.24560E-03
  122.50      4.86710E-03
  123.50      4.78690E-03
  124.50      4.74870E-03
  125.50      4.78920E-03
  126.50      4.76110E-03
  127.50      4.72960E-03
  128.50      4.69790E-03
  129.50      4.66740E-03
  130.50      4.61710E-03
  131.50      4.59130E-03
  132.50      4.54610E-03
  133.50      4.52990E-03
  134.50      4.50750E-03
  135.50      4.44360E-03
  136.50      4.37820E-03
  137.50      4.31310E-03
  138.50      4.32950E-03
  139.50      4.27560E-03
  140.50      4.19480E-03
  141.50      4.26480E-03
  142.50      4.21320E-03
  143.50      4.21100E-03
  144.20      4.15070E-03
  144.70      4.14530E-03
  145.50      4.11190E-03
  146.50      4.09130E-03
  147.50      4.08050E-03
  148.50      4.08070E-03
  149.50      4.04150E-03
  150.50      4.02350E-03
  151.20      4.01360E-03
  151.70      3.98040E-03
  152.50      3.97010E-03
  153.50      3.91060E-03
  154.50      3.75340E-03
  155.50      3.74840E-03
  156.50      3.81980E-03
  157.50      3.81660E-03
  158.50      3.78180E-03
  159.50      3.76090E-03
  160.50      3.70810E-03
  161.50      3.68510E-03
  162.50      3.64680E-03
  163.50      3.58460E-03
  164.50      3.43890E-03
  165.50      3.60660E-03
  166.50      3.59030E-03
  167.20      3.54240E-03
  167.70      3.56950E-03
  168.50      3.54920E-03
  169.50      3.52850E-03
  170.50      3.49790E-03
  171.50      3.42810E-03
  172.50      3.43280E-03
  173.50      3.43780E-03
  174.50      3.41030E-03
  175.50      3.38260E-03
  176.50      3.36640E-03
  177.50      3.34510E-03
  178.50      3.32450E-03
  179.50      3.29780E-03
  180.50      3.27720E-03
  181.50      3.25540E-03
  182.50      3.23320E-03
  183.50      3.21310E-03
  184.50      3.19170E-03
  185.50      3.16880E-03
  186.50      3.14770E-03
  187.50      3.12640E-03
  188.50      3.10510E-03
  189.50      3.08890E-03
  190.50      3.06870E-03
  191.50      3.04820E-03
  192.50      3.01810E-03
  193.50      3.00860E-03
  194.50      2.98910E-03
  195.50      2.96800E-03
  196.70      2.94590E-03
  197.60      2.92800E-03
  198.40      2.91380E-03
  199.50      2.89250E-03
  200.50      2.87450E-03
  201.50      2.85580E-03
  202.50      2.83740E-03
  203.50      2.81900E-03
  204.50      2.79740E-03
  205.50      2.18940E-03
  206.50      2.12890E-03
  207.40      2.18200E-03
  207.80      2.23650E-03
  208.50      2.39390E-03
  209.50      2.64040E-03
  210.50      2.69420E-03
  211.50      2.68710E-03
  212.50      2.67070E-03
  213.50      2.65020E-03
  214.50      2.63830E-03
  215.50      2.66380E-03
  216.50      2.58460E-03
  217.50      2.64760E-03
  218.50      2.55690E-03
  219.50      2.61470E-03
  220.50      2.60150E-03
  221.50      2.50830E-03
  222.50      2.56870E-03
  223.50      2.55390E-03
  224.50      2.53640E-03
  225.50      2.45050E-03
  226.50      2.50670E-03
  227.50      2.49190E-03
  228.50      2.47540E-03
  229.50      2.44660E-03
  230.50      2.37920E-03
  231.50      2.42930E-03
  232.50      2.41690E-03
  233.50      2.40240E-03
  234.50      2.38770E-03
  235.50      2.37340E-03
  236.50      2.35910E-03
  237.50      2.34460E-03
  238.50      2.26620E-03
  239.50      2.31350E-03
  240.50      2.30110E-03
  241.50      2.28800E-03
  242.50      2.27610E-03
  243.50      2.26240E-03
  244.50      2.24920E-03
  245.50      2.23440E-03
  246.50      2.22290E-03
  247.50      2.21040E-03
  248.50      2.19690E-03
  249.50      2.14190E-03
  250.50      2.16530E-03
  251.30      2.03690E-03
  251.80      2.14770E-03
  252.50      2.14210E-03
  253.50      2.13480E-03
  254.50      2.12280E-03
  255.50      2.11050E-03
  256.50      2.09870E-03
  257.50      2.08660E-03
  258.50      2.07470E-03
  259.50      2.06010E-03
  260.50      2.05170E-03
  261.50      2.03910E-03
  262.50      2.02870E-03
  263.50      2.01750E-03
  264.50      2.00600E-03
  265.50      1.99500E-03
  266.50      1.98370E-03
  267.50      1.97110E-03
  268.50      1.96170E-03
  269.50      1.95040E-03
  270.50      1.94050E-03
  271.50      1.92970E-03
  272.50      1.91860E-03
  273.50      1.85930E-03
  274.50      1.89840E-03
  275.50      1.88800E-03
  276.50      1.87720E-03
  277.50      1.86750E-03
  278.50      1.85710E-03
  279.50      1.84690E-03
  280.50      1.83750E-03
  281.50      1.82770E-03
  282.50      1.81710E-03
  283.50      1.80800E-03
  284.50      1.79870E-03
  285.50      1.78920E-03
  286.50      1.77960E-03
  287.50      1.77030E-03
  288.50      1.76100E-03
  289.50      1.75170E-03
  291.00      1.73790E-03
  293.00      1.71990E-03
  295.00      1.70160E-03
  297.00      1.68430E-03
  299.00      1.66610E-03
  301.00      1.64980E-03
  303.00      1.63200E-03
  305.00      1.61570E-03
  307.00      1.59940E-03
  309.00      1.58440E-03
  311.00      1.56860E-03
  313.00      1.55270E-03
  315.00      1.53790E-03
  317.00      1.52260E-03
  319.00      1.50670E-03
  321.00      1.47200E-03
  323.00      1.47880E-03
  325.00      1.46450E-03
  327.00      1.44850E-03
  329.00      1.43640E-03
  331.00      1.42270E-03
  333.00      1.40930E-03
  335.00      1.39530E-03
  337.00      1.38280E-03
  339.00      1.36980E-03
  341.00      1.35680E-03
  343.00      1.34480E-03
  345.00      1.33170E-03
  347.00      1.32010E-03
  349.00      1.30800E-03
  351.00      1.29610E-03
  353.00      1.28410E-03
  355.00      1.27240E-03
  357.00      1.26130E-03
  359.00      1.24950E-03
  361.00      1.23860E-03
  363.00      1.22710E-03
  364.00      1.19920E-03
  365.00      1.10250E-03
  367.00      1.09420E-03
  369.00      1.08870E-03
  371.00      1.09030E-03
  373.00      1.09720E-03
  375.00      1.11360E-03
  377.00      1.12520E-03
  379.00      1.13820E-03
  381.00      1.14930E-03
  383.00      1.10710E-03
  385.00      1.14290E-03
  387.00      1.14540E-03
  389.00      1.07120E-03
  391.00      1.12950E-03
  393.00      1.11300E-03
  395.00      1.11220E-03
  397.00      1.03420E-03
  399.00      1.09290E-03
  401.00      1.08780E-03
  403.00      1.06140E-03
  405.00      1.07090E-03
  407.00      1.06160E-03
  409.00      1.03520E-03
  411.00      9.87500E-04
  413.00      1.03470E-03
  415.00      1.02710E-03
  417.00      1.01940E-03
  419.00      1.00740E-03
  421.00      9.90280E-04
  423.00      9.95080E-04
  425.00      9.87140E-04
  427.00      9.79300E-04
  429.00      9.71540E-04
  431.00      9.63450E-04
  433.00      9.34160E-04
  435.00      9.04090E-04
  437.00      9.40460E-04
  439.00      9.32790E-04
  441.00      9.26740E-04
  443.00      9.19590E-04
  445.00      9.12570E-04
  447.00      9.01450E-04
  449.00      8.98690E-04
  451.00      8.91810E-04
  453.00      8.84060E-04
  455.00      8.65330E-04
  457.00      8.71850E-04
  459.00      8.65330E-04
  461.00      8.58860E-04
  463.00      8.52220E-04
  465.00      8.44870E-04
  467.00      8.39180E-04
  469.00      8.08430E-04
  471.00      8.26850E-04
  473.00      8.21580E-04
  475.00      8.15600E-04
  477.00      8.09680E-04
  479.00      8.03830E-04
  481.00      7.98030E-04
  483.00      7.91980E-04
  485.00      7.73500E-04
  487.00      7.40160E-04
  489.00      7.74630E-04
  491.00      7.69990E-04
  493.00      7.62890E-04
  495.00      7.59200E-04
  497.00      7.53880E-04
  499.00      7.48630E-04
  501.00      7.42570E-04
  503.00      7.38260E-04
  505.00      7.32980E-04
  507.00      7.28110E-04
  509.00      7.23120E-04
  511.00      7.18170E-04
  513.00      7.13270E-04
  515.00      7.08430E-04
  517.00      7.03630E-04
  519.00      6.98880E-04
  521.00      6.94180E-04
  523.00      6.89530E-04
  525.00      6.84900E-04
  527.00      6.80310E-04
  529.00      6.75840E-04
  531.00      6.71360E-04
  533.00      6.66930E-04
  535.00      6.62550E-04
  537.00      6.58200E-04
  539.00      6.53900E-04
  541.00      6.39200E-04
  543.00      6.45400E-04
  545.00      6.41240E-04
  547.00      6.37100E-04
  549.00      6.33010E-04
  551.00      6.28930E-04
  553.00      6.24930E-04
  555.00      6.20950E-04
  557.00      6.16990E-04
  559.00      6.12940E-04
  561.00      6.09220E-04
  563.00      6.05390E-04
  565.00      6.01590E-04
  567.00      5.97820E-04
  569.00      5.87370E-04
  571.00      5.55080E-04
  573.00      5.51880E-04
  575.00      5.48710E-04
  577.00      5.45680E-04
  579.00      5.42920E-04
  581.00      5.40330E-04
  583.00      5.38940E-04
  585.00      5.37810E-04
  587.00      5.34760E-04
  589.00      5.36330E-04
  591.00      5.36100E-04
  593.00      5.36280E-04
  595.00      5.36900E-04
  597.00      5.37510E-04
  599.00      5.38640E-04
  601.00      5.37010E-04
  603.00      5.34900E-04
  605.00      5.33300E-04
  607.00      5.29590E-04
  609.00      5.27200E-04
  611.00      5.23620E-04
  613.00      5.20590E-04
  615.00      5.18320E-04
  617.00      5.13480E-04
  619.00      5.12230E-04
  621.00      5.09360E-04
  623.00      5.04340E-04
  625.00      5.03120E-04
  627.00      5.00630E-04
  629.00      4.97770E-04
  631.00      4.91970E-04
  633.00      4.91920E-04
  635.00      4.89340E-04
  637.00      4.86570E-04
  639.00      4.83640E-04
  641.00      4.77410E-04
  643.00      4.78410E-04
  645.00      4.75740E-04
  647.00      4.73090E-04
  649.00      4.70460E-04
  651.00      4.67660E-04
  653.00      4.60460E-04
  655.00      4.58090E-04
  657.00      4.34500E-04
  659.00      4.57030E-04
  661.00      4.55130E-04
  663.00      4.52650E-04
  665.00      4.50200E-04
  667.00      4.46560E-04
  669.00      4.39730E-04
  671.00      4.42890E-04
  673.00      4.40550E-04
  675.00      4.38180E-04
  677.00      4.35840E-04
  679.00      4.33520E-04
  681.00      4.31210E-04
  683.00      4.28920E-04
  685.00      4.26640E-04
  687.00      4.24380E-04
  689.00      4.16810E-04
  691.00      4.19760E-04
  693.00      4.17730E-04
  695.00      4.15550E-04
  697.00      4.13380E-04
  699.00      4.11230E-04
  701.00      4.09090E-04
  703.00      4.06970E-04
  705.00      4.04870E-04
  707.00      4.01850E-04
  709.00      4.00720E-04
  711.00      3.98670E-04
  713.00      3.96630E-04
  715.00      3.94610E-04
  717.00      3.89100E-04
  719.00      3.88680E-04
  721.00      3.88630E-04
  723.00      3.86680E-04
  725.00      3.84730E-04
  727.00      3.82800E-04
  729.00      3.80610E-04
  731.00      3.78970E-04
  733.00      3.77090E-04
  735.00      3.75210E-04
  737.00      3.73350E-04
  739.00      3.71500E-04
  741.00      3.69670E-04
  743.00      3.67850E-04
  745.00      3.66040E-04
  747.00      3.64250E-04
  749.00      3.62460E-04
  751.00      3.60700E-04
  753.00      3.58950E-04
  755.00      3.57210E-04
  757.00      3.55480E-04
  759.00      3.48860E-04
  761.00      3.51790E-04
  763.00      3.50370E-04
  765.00      3.48690E-04
  767.00      3.47020E-04
  769.00      3.45360E-04
  771.00      3.43720E-04
  773.00      3.42070E-04
  775.00      3.40470E-04
  777.00      3.38860E-04
  779.00      3.37260E-04
  781.00      3.35670E-04
  783.00      3.34100E-04
  785.00      3.32540E-04
  787.00      3.30990E-04
  789.00      3.29450E-04
  791.00      3.27920E-04
  793.00      3.26390E-04
  795.00      3.24880E-04
  797.00      3.23380E-04
  799.00      3.21890E-04
  801.00      3.20410E-04
  803.00      3.18940E-04
  805.00      3.17480E-04
  807.00      3.16030E-04
  809.00      3.14590E-04
  811.00      3.13160E-04
  813.00      3.11740E-04
  815.00      3.10330E-04
  817.00      3.08920E-04
  819.00      3.06330E-04
  821.00      2.94660E-04
  823.00      2.91820E-04
  825.00      2.91840E-04
  827.00      2.90880E-04
  829.00      2.89670E-04
  831.00      2.88450E-04
  833.00      2.87220E-04
  835.00      2.86020E-04
  837.00      2.84880E-04
  839.00      2.83770E-04
  841.00      2.82740E-04
  843.00      2.81730E-04
  845.00      2.80700E-04
  847.00      2.79780E-04
  849.00      2.78970E-04
  851.00      2.78050E-04
  853.00      2.77340E-04
  855.00      2.76260E-04
  857.00      2.75890E-04
  859.00      2.74650E-04
  861.00      2.73900E-04
  863.00      2.73880E-04
  865.00      2.72810E-04
  867.00      2.70630E-04
  869.00      2.71920E-04
  871.00      2.71670E-04
  873.00      2.70580E-04
  875.00      2.66160E-04
  877.00      2.68650E-04
  879.00      2.69410E-04
  881.00      2.68960E-04
  883.00      2.68150E-04
  885.00      2.64190E-04
  887.00      2.58830E-04
  889.00      2.64280E-04
  891.00      2.64300E-04
  893.00      2.63280E-04
  895.00      2.62810E-04
  897.00      2.61470E-04
  899.00      2.59070E-04
  901.00      2.50510E-04
  903.00      2.53170E-04
  905.00      2.56480E-04
  907.00      2.56130E-04
  909.00      2.55300E-04
  911.00      2.53700E-04
  913.00      2.53260E-04
  915.00      2.52230E-04
  917.00      2.51160E-04
  919.00      2.49730E-04
  921.00      2.46560E-04
  923.00      2.36440E-04
  925.00      2.44060E-04
  927.00      2.45610E-04
  929.00      2.45170E-04
  931.00      2.44140E-04
  933.00      2.43010E-04
  935.00      2.37630E-04
  937.00      2.40160E-04
  939.00      2.40260E-04
  941.00      2.39350E-04
  943.00      2.38400E-04
  945.00      2.37450E-04
  947.00      2.36460E-04
  949.00      2.35580E-04
  951.00      2.33950E-04
  953.00      2.30470E-04
  955.00      2.20800E-04
  957.00      2.29680E-04
  959.00      2.30640E-04
  961.00      2.30090E-04
  963.00      2.29150E-04
  965.00      2.28310E-04
  967.00      2.27420E-04
  969.00      2.26540E-04
  971.00      2.25620E-04
  973.00      2.24790E-04
  975.00      2.23660E-04
  977.00      2.21670E-04
  979.00      2.22210E-04
  981.00      2.21360E-04
  983.00      2.20520E-04
  985.00      2.19680E-04
  987.00      2.18840E-04
  989.00      2.18010E-04
  991.00      2.17180E-04
  993.00      2.16360E-04
  995.00      2.15550E-04
  997.00      2.14730E-04
  999.00      2.13920E-04
  1002.5      2.09730E-04
  1007.5      2.06340E-04
  1012.5      2.05600E-04
  1017.5      2.06660E-04
  1022.5      2.04760E-04
  1027.5      2.02890E-04
  1032.5      2.00960E-04
  1037.5      1.99220E-04
  1042.5      1.96470E-04
  1047.5      1.95640E-04
  1052.5      1.93890E-04
  1057.5      1.92170E-04
  1062.5      1.90460E-04
  1067.5      1.88770E-04
  1072.5      1.87120E-04
  1077.5      1.85480E-04
  1082.5      1.83550E-04
  1087.5      1.82230E-04
  1092.5      1.75520E-04
  1097.5      1.78020E-04
  1102.5      1.77580E-04
  1107.5      1.76090E-04
  1112.5      1.74600E-04
  1117.5      1.73210E-04
  1122.5      1.71750E-04
  1127.5      1.70310E-04
  1132.5      1.68890E-04
  1137.5      1.67480E-04
  1142.5      1.66100E-04
  1147.5      1.64720E-04
  1152.5      1.63370E-04
  1157.5      1.62030E-04
  1162.5      1.59250E-04
  1167.5      1.58370E-04
  1172.5      1.58120E-04
  1177.5      1.56840E-04
  1182.5      1.55580E-04
  1187.5      1.54340E-04
  1192.5      1.53110E-04
  1197.5      1.51780E-04
  1202.5      1.50700E-04
  1207.5      1.49510E-04
  1212.5      1.48340E-04
  1217.5      1.47180E-04
  1222.5      1.46030E-04
  1227.5      1.44900E-04
  1232.5      1.43780E-04
  1237.5      1.42680E-04
  1242.5      1.41580E-04
  1247.5      1.40500E-04
  1252.5      1.39420E-04
  1257.5      1.38380E-04
  1262.5      1.37330E-04
  1267.5      1.36300E-04
  1272.5      1.35280E-04
  1277.5      1.33790E-04
  1282.5      1.29010E-04
  1287.5      1.32120E-04
  1292.5      1.31300E-04
  1297.5      1.30300E-04
  1302.5      1.29380E-04
  1307.5      1.28440E-04
  1312.5      1.27500E-04
  1317.5      1.26580E-04
  1322.5      1.25670E-04
  1327.5      1.24760E-04
  1332.5      1.23870E-04
  1337.5      1.22980E-04
  1342.5      1.22100E-04
  1347.5      1.21240E-04
  1352.5      1.20380E-04
  1357.5      1.19530E-04
  1362.5      1.18690E-04
  1367.5      1.17860E-04
  1372.5      1.17040E-04
  1377.5      1.16230E-04
  1382.5      1.15420E-04
  1387.5      1.14620E-04
  1392.5      1.13840E-04
  1397.5      1.13060E-04
