 Castelli and Kurucz 2004-2012 Atmosphere
 T     37000.     G    4.00000 [-1.5] N(He)/Ntot=0.0784 VTURB=2  L/H=1.25 NOVER
 Wavelength  Eddington Hnu
   (nm)    (ergs/s/cm2/Hz/sr)
  9.0900      1.23170E-26
  9.3500      5.36590E-26
  9.6100      2.17550E-25
  9.7700      4.98570E-25
  9.9600      1.29260E-24
  10.200      4.11210E-24
  10.380      9.49770E-24
  10.560      2.13770E-23
  10.770      5.34210E-23
  11.040      1.65650E-22
  11.400      6.95020E-22
  11.780      2.90240E-21
  12.130      1.00970E-20
  12.480      3.29560E-20
  12.710      6.94450E-20
  12.840      1.04800E-19
  13.050      2.00530E-19
  13.240      3.54660E-19
  13.390      5.50090E-19
  13.660      1.18910E-18
  13.980      2.86660E-18
  14.330      7.19930E-18
  14.720      1.90710E-17
  15.100      4.74330E-17
  15.520      1.23330E-16
  15.880      2.68910E-16
  16.200      5.24230E-16
  16.600      1.17110E-15
  17.030      2.65690E-15
  17.340      4.67480E-15
  17.680      8.54410E-15
  18.020      1.52450E-14
  18.170      1.95460E-14
  18.610      3.96060E-14
  19.100      8.37760E-14
  19.390      1.28430E-13
  19.840      2.43530E-13
  20.180      3.86080E-13
  20.500      5.88060E-13
  21.050      1.17920E-12
  21.620      2.33770E-12
  21.980      3.53540E-12
  22.300      5.04530E-12
  22.680      7.58370E-12
  23.000      2.07470E-09
  23.400      9.73770E-09
  24.000      2.32150E-08
  24.650      9.44980E-08
  25.240      2.85020E-07
  25.680      2.03730E-07
  26.000      1.03120E-06
  26.400      3.47060E-06
  26.850      5.95100E-06
  27.350      8.04830E-06
  27.850      7.56660E-06
  28.400      1.38030E-05
  29.000      1.60840E-05
  29.600      9.30600E-06
  30.100      1.12150E-06
  30.800      5.87540E-06
  31.800      1.94250E-05
  32.800      2.66410E-05
  33.800      2.94800E-05
  34.800      3.44040E-05
  35.700      4.87540E-05
  36.600      6.35260E-05
  37.500      7.03830E-05
  38.500      6.88410E-05
  39.500      8.55350E-05
  40.500      9.81920E-05
  41.400      1.04790E-04
  42.200      1.06290E-04
  43.000      1.06530E-04
  44.100      1.22140E-04
  45.100      1.30370E-04
  46.000      1.30750E-04
  47.000      1.37150E-04
  48.000      1.49750E-04
  49.000      1.48430E-04
  50.000      1.68080E-04
  50.600      2.54400E-04
  51.200      4.50190E-04
  52.000      4.44480E-04
  53.000      4.40410E-04
  54.000      4.18120E-04
  55.000      4.30310E-04
  56.000      5.19990E-04
  57.000      5.46140E-04
  58.000      5.42520E-04
  59.000      5.72620E-04
  60.000      5.57690E-04
  61.000      5.71870E-04
  62.000      6.44820E-04
  63.000      6.50970E-04
  64.000      6.83590E-04
  65.000      6.87460E-04
  65.800      6.73000E-04
  66.500      7.13650E-04
  67.500      7.52030E-04
  68.500      7.27880E-04
  69.500      7.77040E-04
  70.500      7.52990E-04
  71.600      8.23530E-04
  72.600      8.42790E-04
  73.500      8.61780E-04
  74.500      8.61000E-04
  75.500      8.72740E-04
  76.500      8.72300E-04
  77.500      9.01690E-04
  78.500      9.12410E-04
  79.500      9.36420E-04
  80.500      9.48450E-04
  81.500      9.69490E-04
  82.500      9.90130E-04
  83.500      9.45610E-04
  84.500      1.01200E-03
  85.500      1.01910E-03
  86.500      1.04590E-03
  87.500      1.06110E-03
  88.500      1.07180E-03
  89.500      1.08300E-03
  90.500      1.08530E-03
  91.500      9.83560E-04
  92.500      1.88760E-03
  93.500      2.45200E-03
  94.500      2.86730E-03
  95.500      3.06800E-03
  96.500      3.33320E-03
  97.500      2.73620E-03
  98.500      3.24520E-03
  99.500      3.11310E-03
  100.50      3.22160E-03
  101.50      3.27230E-03
  102.50      2.87250E-03
  103.50      3.27070E-03
  104.50      3.31610E-03
  105.50      3.30770E-03
  106.50      3.24530E-03
  107.50      3.24820E-03
  108.50      3.16120E-03
  109.50      3.26420E-03
  110.50      3.23160E-03
  111.50      3.20620E-03
  112.50      3.13410E-03
  113.50      3.21230E-03
  114.50      3.20060E-03
  115.50      3.15620E-03
  116.50      3.14490E-03
  117.50      2.89830E-03
  118.50      3.08340E-03
  119.50      3.08440E-03
  120.50      3.06650E-03
  121.50      2.66230E-03
  122.50      3.04610E-03
  123.50      3.04160E-03
  124.50      3.01380E-03
  125.50      3.04010E-03
  126.50      3.03700E-03
  127.50      3.02740E-03
  128.50      3.01810E-03
  129.50      2.99150E-03
  130.50      2.97600E-03
  131.50      2.97360E-03
  132.50      2.95090E-03
  133.50      2.94160E-03
  134.50      2.93730E-03
  135.50      2.90450E-03
  136.50      2.87650E-03
  137.50      2.85030E-03
  138.50      2.85150E-03
  139.50      2.80030E-03
  140.50      2.76170E-03
  141.50      2.81480E-03
  142.50      2.76600E-03
  143.50      2.78200E-03
  144.20      2.76130E-03
  144.70      2.75600E-03
  145.50      2.73370E-03
  146.50      2.72900E-03
  147.50      2.71900E-03
  148.50      2.72140E-03
  149.50      2.69430E-03
  150.50      2.69290E-03
  151.20      2.69150E-03
  151.70      2.67050E-03
  152.50      2.65530E-03
  153.50      2.59380E-03
  154.50      2.48160E-03
  155.50      2.48810E-03
  156.50      2.53790E-03
  157.50      2.55810E-03
  158.50      2.55340E-03
  159.50      2.53960E-03
  160.50      2.48250E-03
  161.50      2.46720E-03
  162.50      2.44990E-03
  163.50      2.42700E-03
  164.50      2.33980E-03
  165.50      2.45150E-03
  166.50      2.44040E-03
  167.20      2.39840E-03
  167.70      2.45080E-03
  168.50      2.43270E-03
  169.50      2.42250E-03
  170.50      2.40100E-03
  171.50      2.35570E-03
  172.50      2.35810E-03
  173.50      2.38020E-03
  174.50      2.36230E-03
  175.50      2.34070E-03
  176.50      2.34000E-03
  177.50      2.33030E-03
  178.50      2.31890E-03
  179.50      2.29900E-03
  180.50      2.29080E-03
  181.50      2.27800E-03
  182.50      2.26280E-03
  183.50      2.25690E-03
  184.50      2.24190E-03
  185.50      2.22710E-03
  186.50      2.21340E-03
  187.50      2.20020E-03
  188.50      2.18940E-03
  189.50      2.18350E-03
  190.50      2.17310E-03
  191.50      2.16070E-03
  192.50      2.13490E-03
  193.50      2.13730E-03
  194.50      2.12610E-03
  195.50      2.11040E-03
  196.70      2.09960E-03
  197.60      2.08950E-03
  198.40      2.08060E-03
  199.50      2.06720E-03
  200.50      2.05720E-03
  201.50      2.04580E-03
  202.50      2.03430E-03
  203.50      2.02300E-03
  204.50      2.01020E-03
  205.50      1.60490E-03
  206.50      1.57350E-03
  207.40      1.62760E-03
  207.80      1.67640E-03
  208.50      1.81460E-03
  209.50      1.94660E-03
  210.50      1.94730E-03
  211.50      1.94570E-03
  212.50      1.93460E-03
  213.50      1.92380E-03
  214.50      1.91590E-03
  215.50      1.93260E-03
  216.50      1.88360E-03
  217.50      1.91770E-03
  218.50      1.86860E-03
  219.50      1.89690E-03
  220.50      1.88720E-03
  221.50      1.83830E-03
  222.50      1.86640E-03
  223.50      1.85660E-03
  224.50      1.84610E-03
  225.50      1.79990E-03
  226.50      1.82650E-03
  227.50      1.81680E-03
  228.50      1.80570E-03
  229.50      1.77890E-03
  230.50      1.75290E-03
  231.50      1.77690E-03
  232.50      1.76830E-03
  233.50      1.75890E-03
  234.50      1.74930E-03
  235.50      1.74000E-03
  236.50      1.73070E-03
  237.50      1.72120E-03
  238.50      1.67640E-03
  239.50      1.69930E-03
  240.50      1.69330E-03
  241.50      1.68430E-03
  242.50      1.67630E-03
  243.50      1.66710E-03
  244.50      1.65840E-03
  245.50      1.64870E-03
  246.50      1.64100E-03
  247.50      1.63270E-03
  248.50      1.62360E-03
  249.50      1.56220E-03
  250.50      1.60430E-03
  251.30      1.52760E-03
  251.80      1.58900E-03
  252.50      1.58890E-03
  253.50      1.58240E-03
  254.50      1.57430E-03
  255.50      1.56600E-03
  256.50      1.55810E-03
  257.50      1.55000E-03
  258.50      1.54210E-03
  259.50      1.53260E-03
  260.50      1.52700E-03
  261.50      1.51880E-03
  262.50      1.51150E-03
  263.50      1.50380E-03
  264.50      1.49590E-03
  265.50      1.48840E-03
  266.50      1.48050E-03
  267.50      1.47170E-03
  268.50      1.46600E-03
  269.50      1.45760E-03
  270.50      1.45170E-03
  271.50      1.44410E-03
  272.50      1.43570E-03
  273.50      1.40150E-03
  274.50      1.42290E-03
  275.50      1.41570E-03
  276.50      1.40690E-03
  277.50      1.40180E-03
  278.50      1.39470E-03
  279.50      1.38710E-03
  280.50      1.38100E-03
  281.50      1.37430E-03
  282.50      1.36550E-03
  283.50      1.36040E-03
  284.50      1.35440E-03
  285.50      1.34780E-03
  286.50      1.34110E-03
  287.50      1.33470E-03
  288.50      1.32830E-03
  289.50      1.32180E-03
  291.00      1.31220E-03
  293.00      1.29970E-03
  295.00      1.28560E-03
  297.00      1.27470E-03
  299.00      1.26170E-03
  301.00      1.25040E-03
  303.00      1.23770E-03
  305.00      1.22630E-03
  307.00      1.21560E-03
  309.00      1.20440E-03
  311.00      1.19320E-03
  313.00      1.18220E-03
  315.00      1.17170E-03
  317.00      1.16080E-03
  319.00      1.14790E-03
  321.00      1.12710E-03
  323.00      1.12970E-03
  325.00      1.11950E-03
  327.00      1.10790E-03
  329.00      1.09930E-03
  331.00      1.08970E-03
  333.00      1.08010E-03
  335.00      1.06960E-03
  337.00      1.06110E-03
  339.00      1.05190E-03
  341.00      1.04260E-03
  343.00      1.03430E-03
  345.00      1.02430E-03
  347.00      1.01640E-03
  349.00      1.00720E-03
  351.00      9.98500E-04
  353.00      9.89680E-04
  355.00      9.81140E-04
  357.00      9.73910E-04
  359.00      9.64220E-04
  361.00      9.56640E-04
  363.00      9.47760E-04
  364.00      9.31550E-04
  365.00      8.69990E-04
  367.00      8.64040E-04
  369.00      8.60460E-04
  371.00      8.60850E-04
  373.00      8.63490E-04
  375.00      8.78740E-04
  377.00      8.84040E-04
  379.00      8.92140E-04
  381.00      9.03080E-04
  383.00      8.65050E-04
  385.00      8.99920E-04
  387.00      8.99320E-04
  389.00      8.43290E-04
  391.00      8.88480E-04
  393.00      8.75480E-04
  395.00      8.75120E-04
  397.00      8.14890E-04
  399.00      8.60900E-04
  401.00      8.54750E-04
  403.00      8.35660E-04
  405.00      8.42760E-04
  407.00      8.35920E-04
  409.00      8.18480E-04
  411.00      7.79330E-04
  413.00      8.15200E-04
  415.00      8.08850E-04
  417.00      8.04050E-04
  419.00      7.96620E-04
  421.00      7.84830E-04
  423.00      7.86000E-04
  425.00      7.79990E-04
  427.00      7.74070E-04
  429.00      7.68280E-04
  431.00      7.62330E-04
  433.00      7.42540E-04
  435.00      7.16460E-04
  437.00      7.45230E-04
  439.00      7.36950E-04
  441.00      7.34370E-04
  443.00      7.28820E-04
  445.00      7.23780E-04
  447.00      7.12300E-04
  449.00      7.13190E-04
  451.00      7.07880E-04
  453.00      7.02540E-04
  455.00      6.90500E-04
  457.00      6.92810E-04
  459.00      6.87820E-04
  461.00      6.82910E-04
  463.00      6.77740E-04
  465.00      6.70900E-04
  467.00      6.68020E-04
  469.00      6.46870E-04
  471.00      6.57210E-04
  473.00      6.54530E-04
  475.00      6.49960E-04
  477.00      6.45430E-04
  479.00      6.40950E-04
  481.00      6.36510E-04
  483.00      6.32080E-04
  485.00      6.19420E-04
  487.00      5.90880E-04
  489.00      6.18950E-04
  491.00      6.15010E-04
  493.00      6.07770E-04
  495.00      6.06700E-04
  497.00      6.02630E-04
  499.00      5.98590E-04
  501.00      5.92780E-04
  503.00      5.90600E-04
  505.00      5.86140E-04
  507.00      5.82780E-04
  509.00      5.78930E-04
  511.00      5.75120E-04
  513.00      5.71330E-04
  515.00      5.67590E-04
  517.00      5.63880E-04
  519.00      5.60210E-04
  521.00      5.56570E-04
  523.00      5.52970E-04
  525.00      5.49370E-04
  527.00      5.45820E-04
  529.00      5.42360E-04
  531.00      5.38890E-04
  533.00      5.35450E-04
  535.00      5.32050E-04
  537.00      5.28680E-04
  539.00      5.25330E-04
  541.00      5.16020E-04
  543.00      5.18740E-04
  545.00      5.15500E-04
  547.00      5.12270E-04
  549.00      5.09090E-04
  551.00      5.05900E-04
  553.00      5.02790E-04
  555.00      4.99690E-04
  557.00      4.96610E-04
  559.00      4.93410E-04
  561.00      4.90550E-04
  563.00      4.87560E-04
  565.00      4.84590E-04
  567.00      4.81650E-04
  569.00      4.74490E-04
  571.00      4.54160E-04
  573.00      4.51600E-04
  575.00      4.49060E-04
  577.00      4.46630E-04
  579.00      4.44460E-04
  581.00      4.42690E-04
  583.00      4.41480E-04
  585.00      4.40560E-04
  587.00      4.35960E-04
  589.00      4.39050E-04
  591.00      4.38620E-04
  593.00      4.38430E-04
  595.00      4.38530E-04
  597.00      4.38250E-04
  599.00      4.37650E-04
  601.00      4.35930E-04
  603.00      4.33310E-04
  605.00      4.31110E-04
  607.00      4.28200E-04
  609.00      4.26260E-04
  611.00      4.23460E-04
  613.00      4.21060E-04
  615.00      4.19030E-04
  617.00      4.15710E-04
  619.00      4.14310E-04
  621.00      4.11990E-04
  623.00      4.08480E-04
  625.00      4.07300E-04
  627.00      4.05110E-04
  629.00      4.02850E-04
  631.00      3.99020E-04
  633.00      3.98390E-04
  635.00      3.96200E-04
  637.00      3.94020E-04
  639.00      3.91850E-04
  641.00      3.87760E-04
  643.00      3.87580E-04
  645.00      3.85470E-04
  647.00      3.83370E-04
  649.00      3.81290E-04
  651.00      3.79230E-04
  653.00      3.74590E-04
  655.00      3.72180E-04
  657.00      3.52040E-04
  659.00      3.70880E-04
  661.00      3.69170E-04
  663.00      3.67200E-04
  665.00      3.65280E-04
  667.00      3.62040E-04
  669.00      3.57590E-04
  671.00      3.59480E-04
  673.00      3.57630E-04
  675.00      3.55740E-04
  677.00      3.53900E-04
  679.00      3.52050E-04
  681.00      3.50220E-04
  683.00      3.48400E-04
  685.00      3.46600E-04
  687.00      3.44800E-04
  689.00      3.40320E-04
  691.00      3.41260E-04
  693.00      3.39520E-04
  695.00      3.37780E-04
  697.00      3.36060E-04
  699.00      3.34350E-04
  701.00      3.32640E-04
  703.00      3.30940E-04
  705.00      3.29280E-04
  707.00      3.25830E-04
  709.00      3.25990E-04
  711.00      3.24350E-04
  713.00      3.22730E-04
  715.00      3.21120E-04
  717.00      3.17640E-04
  719.00      3.17100E-04
  721.00      3.16360E-04
  723.00      3.14790E-04
  725.00      3.13240E-04
  727.00      3.11700E-04
  729.00      3.09410E-04
  731.00      3.08650E-04
  733.00      3.07150E-04
  735.00      3.05650E-04
  737.00      3.04170E-04
  739.00      3.02690E-04
  741.00      3.01230E-04
  743.00      2.99770E-04
  745.00      2.98330E-04
  747.00      2.96900E-04
  749.00      2.95460E-04
  751.00      2.94060E-04
  753.00      2.92670E-04
  755.00      2.91280E-04
  757.00      2.89890E-04
  759.00      2.85980E-04
  761.00      2.87130E-04
  763.00      2.85800E-04
  765.00      2.84460E-04
  767.00      2.83120E-04
  769.00      2.81780E-04
  771.00      2.80480E-04
  773.00      2.79160E-04
  775.00      2.77880E-04
  777.00      2.76590E-04
  779.00      2.75310E-04
  781.00      2.74020E-04
  783.00      2.72770E-04
  785.00      2.71560E-04
  787.00      2.70320E-04
  789.00      2.69080E-04
  791.00      2.67850E-04
  793.00      2.66630E-04
  795.00      2.65420E-04
  797.00      2.64210E-04
  799.00      2.63020E-04
  801.00      2.61830E-04
  803.00      2.60650E-04
  805.00      2.59480E-04
  807.00      2.58310E-04
  809.00      2.57150E-04
  811.00      2.56010E-04
  813.00      2.54870E-04
  815.00      2.53690E-04
  817.00      2.52600E-04
  819.00      2.50750E-04
  821.00      2.43570E-04
  823.00      2.41480E-04
  825.00      2.41440E-04
  827.00      2.40450E-04
  829.00      2.39560E-04
  831.00      2.38560E-04
  833.00      2.37540E-04
  835.00      2.36420E-04
  837.00      2.35590E-04
  839.00      2.34700E-04
  841.00      2.33870E-04
  843.00      2.33020E-04
  845.00      2.32020E-04
  847.00      2.31380E-04
  849.00      2.30650E-04
  851.00      2.29740E-04
  853.00      2.29240E-04
  855.00      2.27870E-04
  857.00      2.28250E-04
  859.00      2.26170E-04
  861.00      2.25650E-04
  863.00      2.26600E-04
  865.00      2.25100E-04
  867.00      2.21390E-04
  869.00      2.24790E-04
  871.00      2.24760E-04
  873.00      2.23200E-04
  875.00      2.16390E-04
  877.00      2.21040E-04
  879.00      2.22390E-04
  881.00      2.21720E-04
  883.00      2.20820E-04
  885.00      2.16530E-04
  887.00      2.10090E-04
  889.00      2.17550E-04
  891.00      2.17680E-04
  893.00      2.16680E-04
  895.00      2.16100E-04
  897.00      2.15220E-04
  899.00      2.13000E-04
  901.00      2.03940E-04
  903.00      2.07670E-04
  905.00      2.11200E-04
  907.00      2.10340E-04
  909.00      2.09890E-04
  911.00      2.08910E-04
  913.00      2.08350E-04
  915.00      2.07510E-04
  917.00      2.06580E-04
  919.00      2.05670E-04
  921.00      2.02640E-04
  923.00      1.92640E-04
  925.00      2.01050E-04
  927.00      2.02340E-04
  929.00      2.01780E-04
  931.00      2.00820E-04
  933.00      2.00180E-04
  935.00      1.96830E-04
  937.00      1.98050E-04
  939.00      1.97830E-04
  941.00      1.97050E-04
  943.00      1.96280E-04
  945.00      1.95520E-04
  947.00      1.94530E-04
  949.00      1.94000E-04
  951.00      1.92510E-04
  953.00      1.89630E-04
  955.00      1.80460E-04
  957.00      1.89440E-04
  959.00      1.90140E-04
  961.00      1.89450E-04
  963.00      1.88620E-04
  965.00      1.88090E-04
  967.00      1.87370E-04
  969.00      1.86630E-04
  971.00      1.85730E-04
  973.00      1.85220E-04
  975.00      1.84450E-04
  977.00      1.83090E-04
  979.00      1.83130E-04
  981.00      1.82440E-04
  983.00      1.81750E-04
  985.00      1.81070E-04
  987.00      1.80390E-04
  989.00      1.79710E-04
  991.00      1.79040E-04
  993.00      1.78370E-04
  995.00      1.77710E-04
  997.00      1.77040E-04
  999.00      1.76380E-04
  1002.5      1.72810E-04
  1007.5      1.70020E-04
  1012.5      1.70170E-04
  1017.5      1.70470E-04
  1022.5      1.68910E-04
  1027.5      1.67390E-04
  1032.5      1.65690E-04
  1037.5      1.64400E-04
  1042.5      1.62490E-04
  1047.5      1.61490E-04
  1052.5      1.60060E-04
  1057.5      1.58650E-04
  1062.5      1.57260E-04
  1067.5      1.55830E-04
  1072.5      1.54530E-04
  1077.5      1.53190E-04
  1082.5      1.51280E-04
  1087.5      1.50570E-04
  1092.5      1.44600E-04
  1097.5      1.47190E-04
  1102.5      1.46610E-04
  1107.5      1.45520E-04
  1112.5      1.44300E-04
  1117.5      1.43130E-04
  1122.5      1.41930E-04
  1127.5      1.40760E-04
  1132.5      1.39600E-04
  1137.5      1.38450E-04
  1142.5      1.37310E-04
  1147.5      1.36190E-04
  1152.5      1.35080E-04
  1157.5      1.33990E-04
  1162.5      1.32130E-04
  1167.5      1.31360E-04
  1172.5      1.30780E-04
  1177.5      1.29740E-04
  1182.5      1.28710E-04
  1187.5      1.27690E-04
  1192.5      1.26690E-04
  1197.5      1.25360E-04
  1202.5      1.24710E-04
  1207.5      1.23740E-04
  1212.5      1.22770E-04
  1217.5      1.21830E-04
  1222.5      1.20890E-04
  1227.5      1.19960E-04
  1232.5      1.19040E-04
  1237.5      1.18140E-04
  1242.5      1.17240E-04
  1247.5      1.16350E-04
  1252.5      1.15420E-04
  1257.5      1.14610E-04
  1262.5      1.13750E-04
  1267.5      1.12910E-04
  1272.5      1.12070E-04
  1277.5      1.10660E-04
  1282.5      1.06810E-04
  1287.5      1.09490E-04
  1292.5      1.08810E-04
  1297.5      1.07850E-04
  1302.5      1.07230E-04
  1307.5      1.06450E-04
  1312.5      1.05690E-04
  1317.5      1.04930E-04
  1322.5      1.04180E-04
  1327.5      1.03430E-04
  1332.5      1.02700E-04
  1337.5      1.01970E-04
  1342.5      1.01230E-04
  1347.5      1.00540E-04
  1352.5      9.98330E-05
  1357.5      9.91360E-05
  1362.5      9.84460E-05
  1367.5      9.77630E-05
  1372.5      9.70870E-05
  1377.5      9.64180E-05
  1382.5      9.57560E-05
  1387.5      9.51000E-05
  1392.5      9.44520E-05
  1397.5      9.38100E-05
