 Castelli and Kurucz 2004-2012 Atmosphere
 T     36000.     G    4.50000 [-1.5] N(He)/Ntot=0.0784 VTURB=2  L/H=1.25 NOVER
 Wavelength  Eddington Hnu
   (nm)    (ergs/s/cm2/Hz/sr)
  9.0900      8.66890E-28
  9.3500      3.97930E-27
  9.6100      1.69420E-26
  9.7700      3.99310E-26
  9.9600      1.06970E-25
  10.200      3.54120E-25
  10.380      8.41870E-25
  10.560      1.94860E-24
  10.770      5.02380E-24
  11.040      1.61880E-23
  11.400      7.13130E-23
  11.780      3.12600E-22
  12.130      1.13240E-21
  12.480      3.84410E-21
  12.710      8.30510E-21
  12.840      1.26960E-20
  13.050      2.48030E-20
  13.240      4.47290E-20
  13.390      7.04920E-20
  13.660      1.56400E-19
  13.980      3.88220E-19
  14.330      1.00630E-18
  14.720      2.77010E-18
  15.100      7.10500E-18
  15.520      1.91510E-17
  15.880      4.31330E-17
  16.200      8.63640E-17
  16.600      1.98670E-16
  17.030      4.66950E-16
  17.340      8.43780E-16
  17.680      1.57850E-15
  18.020      2.88740E-15
  18.170      3.74330E-15
  18.610      7.83720E-15
  19.100      1.71700E-14
  19.390      2.68240E-14
  19.840      5.22760E-14
  20.180      8.49090E-14
  20.500      1.32100E-13
  21.050      2.73860E-13
  21.620      5.60880E-13
  21.980      8.65590E-13
  22.300      1.25780E-12
  22.680      1.93330E-12
  23.000      4.04800E-10
  23.400      2.09300E-09
  24.000      5.75080E-09
  24.650      1.68420E-08
  25.240      3.58260E-08
  25.680      2.81620E-08
  26.000      1.05780E-07
  26.400      3.44000E-07
  26.850      6.31610E-07
  27.350      8.69080E-07
  27.850      8.44440E-07
  28.400      1.59090E-06
  29.000      1.80960E-06
  29.600      1.13160E-06
  30.100      2.99520E-07
  30.800      1.04370E-06
  31.800      3.32980E-06
  32.800      4.22990E-06
  33.800      5.00630E-06
  34.800      6.09400E-06
  35.700      7.36980E-06
  36.600      9.14020E-06
  37.500      9.91810E-06
  38.500      1.07220E-05
  39.500      1.27190E-05
  40.500      1.44560E-05
  41.400      1.61150E-05
  42.200      1.71710E-05
  43.000      1.84390E-05
  44.100      2.16580E-05
  45.100      2.42870E-05
  46.000      2.62640E-05
  47.000      2.97130E-05
  48.000      3.35330E-05
  49.000      3.63020E-05
  50.000      4.17160E-05
  50.600      1.07190E-04
  51.200      2.73030E-04
  52.000      2.68330E-04
  53.000      2.68670E-04
  54.000      2.53260E-04
  55.000      2.74790E-04
  56.000      3.19030E-04
  57.000      3.31830E-04
  58.000      3.24770E-04
  59.000      3.45700E-04
  60.000      3.39260E-04
  61.000      3.54540E-04
  62.000      3.92710E-04
  63.000      3.99040E-04
  64.000      4.12390E-04
  65.000      4.19420E-04
  65.800      4.13990E-04
  66.500      4.33240E-04
  67.500      4.56410E-04
  68.500      4.42080E-04
  69.500      4.74880E-04
  70.500      4.65870E-04
  71.600      5.05340E-04
  72.600      5.15520E-04
  73.500      5.30750E-04
  74.500      5.31820E-04
  75.500      5.41040E-04
  76.500      5.46300E-04
  77.500      5.61050E-04
  78.500      5.77330E-04
  79.500      5.88500E-04
  80.500      5.96190E-04
  81.500      6.09980E-04
  82.500      6.25950E-04
  83.500      6.00820E-04
  84.500      6.43430E-04
  85.500      6.52260E-04
  86.500      6.69370E-04
  87.500      6.79880E-04
  88.500      6.89810E-04
  89.500      7.00180E-04
  90.500      7.03990E-04
  91.500      6.74200E-04
  92.500      1.45670E-03
  93.500      2.07600E-03
  94.500      2.82150E-03
  95.500      3.10780E-03
  96.500      3.64400E-03
  97.500      2.60150E-03
  98.500      3.58240E-03
  99.500      3.37250E-03
  100.50      3.54600E-03
  101.50      3.58120E-03
  102.50      2.73990E-03
  103.50      3.53380E-03
  104.50      3.64530E-03
  105.50      3.62940E-03
  106.50      3.52720E-03
  107.50      3.53240E-03
  108.50      3.35710E-03
  109.50      3.54470E-03
  110.50      3.48710E-03
  111.50      3.46080E-03
  112.50      3.34250E-03
  113.50      3.45330E-03
  114.50      3.42640E-03
  115.50      3.37400E-03
  116.50      3.35600E-03
  117.50      3.00940E-03
  118.50      3.25620E-03
  119.50      3.25930E-03
  120.50      3.19410E-03
  121.50      2.48250E-03
  122.50      3.17060E-03
  123.50      3.21120E-03
  124.50      3.17050E-03
  125.50      3.19510E-03
  126.50      3.19430E-03
  127.50      3.18120E-03
  128.50      3.16830E-03
  129.50      3.10260E-03
  130.50      3.10100E-03
  131.50      3.11130E-03
  132.50      3.07900E-03
  133.50      3.04730E-03
  134.50      3.05490E-03
  135.50      3.02280E-03
  136.50      2.99480E-03
  137.50      2.96740E-03
  138.50      2.95430E-03
  139.50      2.86840E-03
  140.50      2.84260E-03
  141.50      2.89860E-03
  142.50      2.83110E-03
  143.50      2.85620E-03
  144.20      2.84320E-03
  144.70      2.83270E-03
  145.50      2.80530E-03
  146.50      2.79710E-03
  147.50      2.77730E-03
  148.50      2.77680E-03
  149.50      2.74540E-03
  150.50      2.73960E-03
  151.20      2.73430E-03
  151.70      2.71470E-03
  152.50      2.68980E-03
  153.50      2.60890E-03
  154.50      2.50470E-03
  155.50      2.50640E-03
  156.50      2.54550E-03
  157.50      2.56720E-03
  158.50      2.57120E-03
  159.50      2.55300E-03
  160.50      2.48210E-03
  161.50      2.45670E-03
  162.50      2.44690E-03
  163.50      2.41860E-03
  164.50      2.32860E-03
  165.50      2.45110E-03
  166.50      2.43650E-03
  167.20      2.38850E-03
  167.70      2.45370E-03
  168.50      2.43030E-03
  169.50      2.41670E-03
  170.50      2.39230E-03
  171.50      2.34800E-03
  172.50      2.33870E-03
  173.50      2.36960E-03
  174.50      2.34970E-03
  175.50      2.32390E-03
  176.50      2.32390E-03
  177.50      2.31320E-03
  178.50      2.30170E-03
  179.50      2.27920E-03
  180.50      2.27100E-03
  181.50      2.25600E-03
  182.50      2.23880E-03
  183.50      2.23420E-03
  184.50      2.21440E-03
  185.50      2.19610E-03
  186.50      2.18200E-03
  187.50      2.16960E-03
  188.50      2.15510E-03
  189.50      2.14720E-03
  190.50      2.14080E-03
  191.50      2.12380E-03
  192.50      2.09000E-03
  193.50      2.10050E-03
  194.50      2.09100E-03
  195.50      2.06850E-03
  196.70      2.06160E-03
  197.60      2.05260E-03
  198.40      2.04130E-03
  199.50      2.02430E-03
  200.50      2.01760E-03
  201.50      2.00590E-03
  202.50      1.99370E-03
  203.50      1.98110E-03
  204.50      1.96850E-03
  205.50      1.58940E-03
  206.50      1.54530E-03
  207.40      1.57420E-03
  207.80      1.60290E-03
  208.50      1.69120E-03
  209.50      1.84980E-03
  210.50      1.89910E-03
  211.50      1.89590E-03
  212.50      1.88260E-03
  213.50      1.87110E-03
  214.50      1.86270E-03
  215.50      1.87280E-03
  216.50      1.82420E-03
  217.50      1.86160E-03
  218.50      1.80650E-03
  219.50      1.83980E-03
  220.50      1.83100E-03
  221.50      1.77280E-03
  222.50      1.80880E-03
  223.50      1.79880E-03
  224.50      1.78670E-03
  225.50      1.73260E-03
  226.50      1.76700E-03
  227.50      1.75690E-03
  228.50      1.74450E-03
  229.50      1.71000E-03
  230.50      1.68370E-03
  231.50      1.71450E-03
  232.50      1.70610E-03
  233.50      1.69620E-03
  234.50      1.68640E-03
  235.50      1.67650E-03
  236.50      1.66700E-03
  237.50      1.65680E-03
  238.50      1.60610E-03
  239.50      1.63400E-03
  240.50      1.62870E-03
  241.50      1.61940E-03
  242.50      1.61060E-03
  243.50      1.60120E-03
  244.50      1.59230E-03
  245.50      1.58250E-03
  246.50      1.57440E-03
  247.50      1.56570E-03
  248.50      1.55660E-03
  249.50      1.48930E-03
  250.50      1.53500E-03
  251.30      1.45440E-03
  251.80      1.51760E-03
  252.50      1.52180E-03
  253.50      1.51420E-03
  254.50      1.50580E-03
  255.50      1.49730E-03
  256.50      1.48940E-03
  257.50      1.48110E-03
  258.50      1.47320E-03
  259.50      1.46440E-03
  260.50      1.45940E-03
  261.50      1.45110E-03
  262.50      1.44360E-03
  263.50      1.43560E-03
  264.50      1.42740E-03
  265.50      1.41950E-03
  266.50      1.41090E-03
  267.50      1.40180E-03
  268.50      1.39750E-03
  269.50      1.38680E-03
  270.50      1.38290E-03
  271.50      1.37520E-03
  272.50      1.36390E-03
  273.50      1.33170E-03
  274.50      1.35390E-03
  275.50      1.34680E-03
  276.50      1.33490E-03
  277.50      1.33280E-03
  278.50      1.32570E-03
  279.50      1.31690E-03
  280.50      1.31160E-03
  281.50      1.30520E-03
  282.50      1.29320E-03
  283.50      1.28940E-03
  284.50      1.28530E-03
  285.50      1.27860E-03
  286.50      1.27180E-03
  287.50      1.26550E-03
  288.50      1.25910E-03
  289.50      1.25260E-03
  291.00      1.24290E-03
  293.00      1.23060E-03
  295.00      1.21410E-03
  297.00      1.20580E-03
  299.00      1.19300E-03
  301.00      1.18180E-03
  303.00      1.16940E-03
  305.00      1.15820E-03
  307.00      1.14760E-03
  309.00      1.13600E-03
  311.00      1.12530E-03
  313.00      1.11470E-03
  315.00      1.10400E-03
  317.00      1.09340E-03
  319.00      1.07830E-03
  321.00      1.06140E-03
  323.00      1.06290E-03
  325.00      1.05290E-03
  327.00      1.04230E-03
  329.00      1.03300E-03
  331.00      1.02400E-03
  333.00      1.01450E-03
  335.00      1.00400E-03
  337.00      9.96020E-04
  339.00      9.87170E-04
  341.00      9.78210E-04
  343.00      9.67870E-04
  345.00      9.57360E-04
  347.00      9.50360E-04
  349.00      9.41880E-04
  351.00      9.34570E-04
  353.00      9.26370E-04
  355.00      9.17830E-04
  357.00      9.12520E-04
  359.00      9.01050E-04
  361.00      8.94760E-04
  363.00      8.85310E-04
  364.00      8.76680E-04
  365.00      8.32090E-04
  367.00      8.26660E-04
  369.00      8.20780E-04
  371.00      8.13250E-04
  373.00      8.08430E-04
  375.00      8.14630E-04
  377.00      8.12390E-04
  379.00      8.31550E-04
  381.00      8.51590E-04
  383.00      7.93340E-04
  385.00      8.59380E-04
  387.00      8.64910E-04
  389.00      7.70430E-04
  391.00      8.57100E-04
  393.00      8.47990E-04
  395.00      8.44040E-04
  397.00      7.42860E-04
  399.00      8.28590E-04
  401.00      8.24970E-04
  403.00      7.99290E-04
  405.00      8.16450E-04
  407.00      8.07720E-04
  409.00      7.75180E-04
  411.00      7.19560E-04
  413.00      7.84380E-04
  415.00      7.80120E-04
  417.00      7.77070E-04
  419.00      7.69270E-04
  421.00      7.58560E-04
  423.00      7.59330E-04
  425.00      7.53150E-04
  427.00      7.46960E-04
  429.00      7.41200E-04
  431.00      7.33740E-04
  433.00      6.98460E-04
  435.00      6.63250E-04
  437.00      7.16100E-04
  439.00      7.04420E-04
  441.00      7.07240E-04
  443.00      7.01250E-04
  445.00      6.96760E-04
  447.00      6.77330E-04
  449.00      6.86130E-04
  451.00      6.80820E-04
  453.00      6.75370E-04
  455.00      6.63300E-04
  457.00      6.65900E-04
  459.00      6.60780E-04
  461.00      6.55930E-04
  463.00      6.50650E-04
  465.00      6.42400E-04
  467.00      6.41060E-04
  469.00      6.21730E-04
  471.00      6.28200E-04
  473.00      6.27780E-04
  475.00      6.23220E-04
  477.00      6.18750E-04
  479.00      6.14300E-04
  481.00      6.09860E-04
  483.00      6.04130E-04
  485.00      5.80650E-04
  487.00      5.43620E-04
  489.00      5.90210E-04
  491.00      5.88320E-04
  493.00      5.77280E-04
  495.00      5.80260E-04
  497.00      5.76320E-04
  499.00      5.72320E-04
  501.00      5.64780E-04
  503.00      5.64400E-04
  505.00      5.59180E-04
  507.00      5.56700E-04
  509.00      5.52890E-04
  511.00      5.49120E-04
  513.00      5.45390E-04
  515.00      5.41690E-04
  517.00      5.38030E-04
  519.00      5.34420E-04
  521.00      5.30840E-04
  523.00      5.27290E-04
  525.00      5.23740E-04
  527.00      5.20260E-04
  529.00      5.16860E-04
  531.00      5.13450E-04
  533.00      5.10070E-04
  535.00      5.06730E-04
  537.00      5.03420E-04
  539.00      5.00140E-04
  541.00      4.91320E-04
  543.00      4.93670E-04
  545.00      4.90490E-04
  547.00      4.87340E-04
  549.00      4.84210E-04
  551.00      4.81110E-04
  553.00      4.78050E-04
  555.00      4.75020E-04
  557.00      4.72010E-04
  559.00      4.68930E-04
  561.00      4.66080E-04
  563.00      4.63160E-04
  565.00      4.60260E-04
  567.00      4.57380E-04
  569.00      4.51760E-04
  571.00      4.38750E-04
  573.00      4.36180E-04
  575.00      4.33620E-04
  577.00      4.31120E-04
  579.00      4.28650E-04
  581.00      4.26230E-04
  583.00      4.24080E-04
  585.00      4.22350E-04
  587.00      4.13980E-04
  589.00      4.18890E-04
  591.00      4.17780E-04
  593.00      4.16490E-04
  595.00      4.15280E-04
  597.00      4.14140E-04
  599.00      4.13120E-04
  601.00      4.11590E-04
  603.00      4.09820E-04
  605.00      4.07860E-04
  607.00      4.05460E-04
  609.00      4.03080E-04
  611.00      4.00720E-04
  613.00      3.98380E-04
  615.00      3.96070E-04
  617.00      3.93740E-04
  619.00      3.91490E-04
  621.00      3.89240E-04
  623.00      3.86840E-04
  625.00      3.84770E-04
  627.00      3.82580E-04
  629.00      3.80400E-04
  631.00      3.77850E-04
  633.00      3.76090E-04
  635.00      3.73960E-04
  637.00      3.71850E-04
  639.00      3.69760E-04
  641.00      3.67080E-04
  643.00      3.65630E-04
  645.00      3.63590E-04
  647.00      3.61560E-04
  649.00      3.59560E-04
  651.00      3.57540E-04
  653.00      3.53680E-04
  655.00      3.46840E-04
  657.00      3.22180E-04
  659.00      3.48230E-04
  661.00      3.47860E-04
  663.00      3.45970E-04
  665.00      3.44170E-04
  667.00      3.40140E-04
  669.00      3.37130E-04
  671.00      3.38570E-04
  673.00      3.36780E-04
  675.00      3.34980E-04
  677.00      3.33210E-04
  679.00      3.31440E-04
  681.00      3.29680E-04
  683.00      3.27930E-04
  685.00      3.26200E-04
  687.00      3.24470E-04
  689.00      3.21440E-04
  691.00      3.21070E-04
  693.00      3.19400E-04
  695.00      3.17730E-04
  697.00      3.16080E-04
  699.00      3.14430E-04
  701.00      3.12800E-04
  703.00      3.11160E-04
  705.00      3.09580E-04
  707.00      3.05160E-04
  709.00      3.06420E-04
  711.00      3.04850E-04
  713.00      3.03290E-04
  715.00      3.01750E-04
  717.00      2.99220E-04
  719.00      2.98200E-04
  721.00      2.97190E-04
  723.00      2.95660E-04
  725.00      2.94200E-04
  727.00      2.92730E-04
  729.00      2.89910E-04
  731.00      2.89800E-04
  733.00      2.88370E-04
  735.00      2.86940E-04
  737.00      2.85520E-04
  739.00      2.84110E-04
  741.00      2.82710E-04
  743.00      2.81320E-04
  745.00      2.79950E-04
  747.00      2.78580E-04
  749.00      2.77200E-04
  751.00      2.75840E-04
  753.00      2.74540E-04
  755.00      2.73210E-04
  757.00      2.71880E-04
  759.00      2.69030E-04
  761.00      2.69250E-04
  763.00      2.67980E-04
  765.00      2.66690E-04
  767.00      2.65420E-04
  769.00      2.64140E-04
  771.00      2.62900E-04
  773.00      2.61630E-04
  775.00      2.60410E-04
  777.00      2.59190E-04
  779.00      2.57970E-04
  781.00      2.56700E-04
  783.00      2.55550E-04
  785.00      2.54460E-04
  787.00      2.53270E-04
  789.00      2.52070E-04
  791.00      2.50920E-04
  793.00      2.49760E-04
  795.00      2.48600E-04
  797.00      2.47410E-04
  799.00      2.46320E-04
  801.00      2.45180E-04
  803.00      2.44060E-04
  805.00      2.42940E-04
  807.00      2.41830E-04
  809.00      2.40630E-04
  811.00      2.39540E-04
  813.00      2.38550E-04
  815.00      2.37310E-04
  817.00      2.36390E-04
  819.00      2.34870E-04
  821.00      2.30690E-04
  823.00      2.28960E-04
  825.00      2.28730E-04
  827.00      2.27560E-04
  829.00      2.26920E-04
  831.00      2.25980E-04
  833.00      2.24930E-04
  835.00      2.23570E-04
  837.00      2.22910E-04
  839.00      2.22070E-04
  841.00      2.21150E-04
  843.00      2.20170E-04
  845.00      2.18710E-04
  847.00      2.18380E-04
  849.00      2.17360E-04
  851.00      2.16540E-04
  853.00      2.15610E-04
  855.00      2.14470E-04
  857.00      2.14580E-04
  859.00      2.11730E-04
  861.00      2.11720E-04
  863.00      2.12700E-04
  865.00      2.10330E-04
  867.00      2.06700E-04
  869.00      2.10350E-04
  871.00      2.10610E-04
  873.00      2.07800E-04
  875.00      2.00460E-04
  877.00      2.05040E-04
  879.00      2.08000E-04
  881.00      2.07710E-04
  883.00      2.06420E-04
  885.00      1.99740E-04
  887.00      1.93140E-04
  889.00      2.02650E-04
  891.00      2.03800E-04
  893.00      2.03220E-04
  895.00      2.02650E-04
  897.00      2.01530E-04
  899.00      1.98220E-04
  901.00      1.86560E-04
  903.00      1.90990E-04
  905.00      1.97260E-04
  907.00      1.96560E-04
  909.00      1.96840E-04
  911.00      1.96460E-04
  913.00      1.95750E-04
  915.00      1.94950E-04
  917.00      1.93700E-04
  919.00      1.92380E-04
  921.00      1.87280E-04
  923.00      1.74960E-04
  925.00      1.85730E-04
  927.00      1.89120E-04
  929.00      1.89200E-04
  931.00      1.88270E-04
  933.00      1.87940E-04
  935.00      1.85310E-04
  937.00      1.86420E-04
  939.00      1.85710E-04
  941.00      1.84970E-04
  943.00      1.84230E-04
  945.00      1.83500E-04
  947.00      1.82220E-04
  949.00      1.81780E-04
  951.00      1.79400E-04
  953.00      1.74470E-04
  955.00      1.63430E-04
  957.00      1.75330E-04
  959.00      1.77610E-04
  961.00      1.77400E-04
  963.00      1.76650E-04
  965.00      1.76420E-04
  967.00      1.75730E-04
  969.00      1.74990E-04
  971.00      1.73970E-04
  973.00      1.73680E-04
  975.00      1.73030E-04
  977.00      1.72240E-04
  979.00      1.71700E-04
  981.00      1.71040E-04
  983.00      1.70390E-04
  985.00      1.69740E-04
  987.00      1.69090E-04
  989.00      1.68440E-04
  991.00      1.67790E-04
  993.00      1.67170E-04
  995.00      1.66530E-04
  997.00      1.65900E-04
  999.00      1.65090E-04
  1002.5      1.59630E-04
  1007.5      1.56750E-04
  1012.5      1.59550E-04
  1017.5      1.59650E-04
  1022.5      1.58160E-04
  1027.5      1.56730E-04
  1032.5      1.54940E-04
  1037.5      1.53890E-04
  1042.5      1.52370E-04
  1047.5      1.51130E-04
  1052.5      1.49770E-04
  1057.5      1.48430E-04
  1062.5      1.47110E-04
  1067.5      1.45680E-04
  1072.5      1.44530E-04
  1077.5      1.43260E-04
  1082.5      1.41170E-04
  1087.5      1.40510E-04
  1092.5      1.32370E-04
  1097.5      1.36300E-04
  1102.5      1.36760E-04
  1107.5      1.35930E-04
  1112.5      1.34830E-04
  1117.5      1.33700E-04
  1122.5      1.32540E-04
  1127.5      1.31460E-04
  1132.5      1.30360E-04
  1137.5      1.29270E-04
  1142.5      1.28200E-04
  1147.5      1.27140E-04
  1152.5      1.26090E-04
  1157.5      1.25060E-04
  1162.5      1.23550E-04
  1167.5      1.22840E-04
  1172.5      1.22030E-04
  1177.5      1.21050E-04
  1182.5      1.20070E-04
  1187.5      1.19110E-04
  1192.5      1.18160E-04
  1197.5      1.16540E-04
  1202.5      1.16300E-04
  1207.5      1.15380E-04
  1212.5      1.14470E-04
  1217.5      1.13580E-04
  1222.5      1.12700E-04
  1227.5      1.11820E-04
  1232.5      1.10960E-04
  1237.5      1.10100E-04
  1242.5      1.09260E-04
  1247.5      1.08420E-04
  1252.5      1.07490E-04
  1257.5      1.06780E-04
  1262.5      1.05980E-04
  1267.5      1.05180E-04
  1272.5      1.04390E-04
  1277.5      1.02420E-04
  1282.5      9.75190E-05
  1287.5      1.01630E-04
  1292.5      1.01320E-04
  1297.5      1.00210E-04
  1302.5      9.98400E-05
  1307.5      9.91110E-05
  1312.5      9.83900E-05
  1317.5      9.76760E-05
  1322.5      9.69700E-05
  1327.5      9.62720E-05
  1332.5      9.55810E-05
  1337.5      9.48970E-05
  1342.5      9.41830E-05
  1347.5      9.35520E-05
  1352.5      9.28900E-05
  1357.5      9.22350E-05
  1362.5      9.15870E-05
  1367.5      9.09460E-05
  1372.5      9.03110E-05
  1377.5      8.96840E-05
  1382.5      8.90620E-05
  1387.5      8.84480E-05
  1392.5      8.78390E-05
  1397.5      8.72370E-05
