 Castelli and Kurucz 2004-2012 Atmosphere
 T     38000.     G    5.00000 [-1.0] VTURB=2  L/H=1.25 NOVER NEW ODF          
 Wavelength  Eddington Hnu
   (nm)    (ergs/s/cm2/Hz/sr)
  9.0900      7.91010E-26
  9.3500      3.14000E-25
  9.6100      1.16190E-24
  9.7700      2.52080E-24
  9.9600      6.13180E-24
  10.200      1.80470E-23
  10.380      3.93980E-23
  10.560      8.39400E-23
  10.770      1.97070E-22
  11.040      5.65430E-22
  11.400      2.14900E-21
  11.780      8.14000E-21
  12.130      2.59880E-20
  12.480      7.82990E-20
  12.710      1.56930E-19
  12.840      2.30090E-19
  13.050      4.20880E-19
  13.240      7.16220E-19
  13.390      1.07940E-18
  13.660      2.21480E-18
  13.980      5.03070E-18
  14.330      1.18760E-17
  14.720      2.95770E-17
  15.100      6.92510E-17
  15.520      1.69440E-16
  15.880      3.52620E-16
  16.200      6.59950E-16
  16.600      1.40230E-15
  17.030      3.03830E-15
  17.340      5.19140E-15
  17.680      9.16070E-15
  18.020      1.58430E-14
  18.170      2.00490E-14
  18.610      3.92570E-14
  19.100      8.01850E-14
  19.390      1.20470E-13
  19.840      2.21500E-13
  20.180      3.45010E-13
  20.500      5.17020E-13
  21.050      1.00900E-12
  21.620      1.94880E-12
  21.980      2.90630E-12
  22.300      4.10230E-12
  22.680      6.09430E-12
  23.000      1.57630E-09
  23.400      7.77660E-09
  24.000      1.89080E-08
  24.650      4.43700E-08
  25.240      9.05260E-08
  25.680      8.87330E-08
  26.000      2.47040E-07
  26.400      1.01520E-06
  26.850      1.77130E-06
  27.350      2.31880E-06
  27.850      1.94460E-06
  28.400      4.12340E-06
  29.000      4.93480E-06
  29.600      3.35780E-06
  30.100      1.33270E-06
  30.800      4.90760E-06
  31.800      9.87660E-06
  32.800      1.26580E-05
  33.800      1.42170E-05
  34.800      1.72620E-05
  35.700      2.41740E-05
  36.600      3.23730E-05
  37.500      3.53750E-05
  38.500      3.62720E-05
  39.500      4.40970E-05
  40.500      4.96890E-05
  41.400      5.31510E-05
  42.200      5.43550E-05
  43.000      5.56480E-05
  44.100      6.36870E-05
  45.100      6.93340E-05
  46.000      7.09380E-05
  47.000      7.69200E-05
  48.000      8.52640E-05
  49.000      8.79690E-05
  50.000      1.00020E-04
  50.600      1.71100E-04
  51.200      4.47370E-04
  52.000      4.33620E-04
  53.000      4.27960E-04
  54.000      3.99300E-04
  55.000      4.30000E-04
  56.000      5.12530E-04
  57.000      5.33320E-04
  58.000      5.20060E-04
  59.000      5.49880E-04
  60.000      5.27320E-04
  61.000      5.54530E-04
  62.000      6.23020E-04
  63.000      6.27910E-04
  64.000      6.51160E-04
  65.000      6.56320E-04
  65.800      6.36540E-04
  66.500      6.75300E-04
  67.500      7.13750E-04
  68.500      6.77960E-04
  69.500      7.35320E-04
  70.500      7.09240E-04
  71.600      7.80990E-04
  72.600      7.93560E-04
  73.500      8.15050E-04
  74.500      8.09030E-04
  75.500      8.19320E-04
  76.500      8.23300E-04
  77.500      8.44180E-04
  78.500      8.63980E-04
  79.500      8.79310E-04
  80.500      8.86660E-04
  81.500      9.05520E-04
  82.500      9.27230E-04
  83.500      8.77370E-04
  84.500      9.44940E-04
  85.500      9.52040E-04
  86.500      9.77120E-04
  87.500      9.89680E-04
  88.500      1.00030E-03
  89.500      1.01180E-03
  90.500      1.01210E-03
  91.500      8.98680E-04
  92.500      1.65140E-03
  93.500      2.34200E-03
  94.500      3.27520E-03
  95.500      3.68630E-03
  96.500      4.49410E-03
  97.500      3.01110E-03
  98.500      4.43140E-03
  99.500      4.08760E-03
  100.50      4.34180E-03
  101.50      4.38780E-03
  102.50      3.17530E-03
  103.50      4.33850E-03
  104.50      4.55020E-03
  105.50      4.52210E-03
  106.50      4.34480E-03
  107.50      4.37080E-03
  108.50      4.07100E-03
  109.50      4.36920E-03
  110.50      4.27270E-03
  111.50      4.24870E-03
  112.50      4.05760E-03
  113.50      4.22210E-03
  114.50      4.17730E-03
  115.50      4.08610E-03
  116.50      4.03470E-03
  117.50      3.54880E-03
  118.50      3.88360E-03
  119.50      3.87680E-03
  120.50      3.77810E-03
  121.50      2.80810E-03
  122.50      3.71410E-03
  123.50      3.82020E-03
  124.50      3.77670E-03
  125.50      3.80150E-03
  126.50      3.81670E-03
  127.50      3.80830E-03
  128.50      3.79720E-03
  129.50      3.69980E-03
  130.50      3.69670E-03
  131.50      3.72340E-03
  132.50      3.67200E-03
  133.50      3.63480E-03
  134.50      3.64280E-03
  135.50      3.59100E-03
  136.50      3.54630E-03
  137.50      3.50720E-03
  138.50      3.48430E-03
  139.50      3.35840E-03
  140.50      3.31960E-03
  141.50      3.41690E-03
  142.50      3.29050E-03
  143.50      3.35420E-03
  144.20      3.33550E-03
  144.70      3.32050E-03
  145.50      3.27430E-03
  146.50      3.26930E-03
  147.50      3.24000E-03
  148.50      3.25300E-03
  149.50      3.20630E-03
  150.50      3.20460E-03
  151.20      3.19860E-03
  151.70      3.17080E-03
  152.50      3.13610E-03
  153.50      3.00290E-03
  154.50      2.82710E-03
  155.50      2.83900E-03
  156.50      2.91270E-03
  157.50      2.95140E-03
  158.50      2.96400E-03
  159.50      2.94460E-03
  160.50      2.84440E-03
  161.50      2.79800E-03
  162.50      2.80280E-03
  163.50      2.77190E-03
  164.50      2.67860E-03
  165.50      2.82400E-03
  166.50      2.80500E-03
  167.20      2.72380E-03
  167.70      2.84190E-03
  168.50      2.80680E-03
  169.50      2.78820E-03
  170.50      2.75440E-03
  171.50      2.70030E-03
  172.50      2.67980E-03
  173.50      2.73060E-03
  174.50      2.70810E-03
  175.50      2.67270E-03
  176.50      2.67330E-03
  177.50      2.65830E-03
  178.50      2.65040E-03
  179.50      2.61790E-03
  180.50      2.60950E-03
  181.50      2.59070E-03
  182.50      2.56810E-03
  183.50      2.56760E-03
  184.50      2.54010E-03
  185.50      2.51970E-03
  186.50      2.50330E-03
  187.50      2.48370E-03
  188.50      2.46360E-03
  189.50      2.46020E-03
  190.50      2.45580E-03
  191.50      2.43380E-03
  192.50      2.37800E-03
  193.50      2.40660E-03
  194.50      2.39740E-03
  195.50      2.36020E-03
  196.70      2.35970E-03
  197.60      2.35040E-03
  198.40      2.33620E-03
  199.50      2.31360E-03
  200.50      2.30920E-03
  201.50      2.29530E-03
  202.50      2.27990E-03
  203.50      2.26370E-03
  204.50      2.24780E-03
  205.50      1.78080E-03
  206.50      1.72280E-03
  207.40      1.74280E-03
  207.80      1.76770E-03
  208.50      1.84660E-03
  209.50      2.01680E-03
  210.50      2.14430E-03
  211.50      2.15910E-03
  212.50      2.14090E-03
  213.50      2.12960E-03
  214.50      2.11840E-03
  215.50      2.12700E-03
  216.50      2.06340E-03
  217.50      2.11520E-03
  218.50      2.04430E-03
  219.50      2.09110E-03
  220.50      2.08250E-03
  221.50      2.00040E-03
  222.50      2.05570E-03
  223.50      2.04550E-03
  224.50      2.02860E-03
  225.50      1.95100E-03
  226.50      2.00710E-03
  227.50      1.99580E-03
  228.50      1.97790E-03
  229.50      1.93210E-03
  230.50      1.89250E-03
  231.50      1.94150E-03
  232.50      1.93450E-03
  233.50      1.92280E-03
  234.50      1.91050E-03
  235.50      1.89820E-03
  236.50      1.88680E-03
  237.50      1.87340E-03
  238.50      1.79770E-03
  239.50      1.84300E-03
  240.50      1.84060E-03
  241.50      1.82960E-03
  242.50      1.82060E-03
  243.50      1.80870E-03
  244.50      1.79830E-03
  245.50      1.78570E-03
  246.50      1.77720E-03
  247.50      1.76730E-03
  248.50      1.75570E-03
  249.50      1.65970E-03
  250.50      1.72590E-03
  251.30      1.61570E-03
  251.80      1.69970E-03
  252.50      1.71390E-03
  253.50      1.70640E-03
  254.50      1.69630E-03
  255.50      1.68600E-03
  256.50      1.67700E-03
  257.50      1.66740E-03
  258.50      1.65800E-03
  259.50      1.64640E-03
  260.50      1.64150E-03
  261.50      1.63110E-03
  262.50      1.62330E-03
  263.50      1.61420E-03
  264.50      1.60440E-03
  265.50      1.59550E-03
  266.50      1.58510E-03
  267.50      1.57280E-03
  268.50      1.56880E-03
  269.50      1.55640E-03
  270.50      1.55200E-03
  271.50      1.54250E-03
  272.50      1.52980E-03
  273.50      1.48330E-03
  274.50      1.51810E-03
  275.50      1.51000E-03
  276.50      1.49640E-03
  277.50      1.49390E-03
  278.50      1.48520E-03
  279.50      1.47250E-03
  280.50      1.46850E-03
  281.50      1.46170E-03
  282.50      1.44840E-03
  283.50      1.44280E-03
  284.50      1.43870E-03
  285.50      1.43100E-03
  286.50      1.42270E-03
  287.50      1.41560E-03
  288.50      1.40820E-03
  289.50      1.40050E-03
  291.00      1.38900E-03
  293.00      1.37530E-03
  295.00      1.35620E-03
  297.00      1.34620E-03
  299.00      1.33040E-03
  301.00      1.31790E-03
  303.00      1.30270E-03
  305.00      1.29030E-03
  307.00      1.27900E-03
  309.00      1.26530E-03
  311.00      1.25330E-03
  313.00      1.24090E-03
  315.00      1.22880E-03
  317.00      1.21650E-03
  319.00      1.19990E-03
  321.00      1.17750E-03
  323.00      1.18210E-03
  325.00      1.17090E-03
  327.00      1.15700E-03
  329.00      1.14790E-03
  331.00      1.13740E-03
  333.00      1.12650E-03
  335.00      1.11400E-03
  337.00      1.10530E-03
  339.00      1.09560E-03
  341.00      1.08530E-03
  343.00      1.07400E-03
  345.00      1.06180E-03
  347.00      1.05410E-03
  349.00      1.04460E-03
  351.00      1.03580E-03
  353.00      1.02680E-03
  355.00      1.01690E-03
  357.00      1.01060E-03
  359.00      9.97610E-04
  361.00      9.90480E-04
  363.00      9.79550E-04
  364.00      9.68470E-04
  365.00      9.12780E-04
  367.00      9.06560E-04
  369.00      8.99990E-04
  371.00      8.90850E-04
  373.00      8.89380E-04
  375.00      8.90850E-04
  377.00      8.85470E-04
  379.00      9.02250E-04
  381.00      9.24780E-04
  383.00      8.62450E-04
  385.00      9.33810E-04
  387.00      9.43570E-04
  389.00      8.31550E-04
  391.00      9.35780E-04
  393.00      9.30060E-04
  395.00      9.21200E-04
  397.00      8.00300E-04
  399.00      9.03750E-04
  401.00      9.03590E-04
  403.00      8.72540E-04
  405.00      8.94480E-04
  407.00      8.83380E-04
  409.00      8.38030E-04
  411.00      7.77210E-04
  413.00      8.57580E-04
  415.00      8.54380E-04
  417.00      8.51940E-04
  419.00      8.41660E-04
  421.00      8.29650E-04
  423.00      8.32350E-04
  425.00      8.25160E-04
  427.00      8.18010E-04
  429.00      8.11600E-04
  431.00      8.01290E-04
  433.00      7.54140E-04
  435.00      7.16240E-04
  437.00      7.81620E-04
  439.00      7.69110E-04
  441.00      7.73370E-04
  443.00      7.67400E-04
  445.00      7.62220E-04
  447.00      7.38020E-04
  449.00      7.50220E-04
  451.00      7.44060E-04
  453.00      7.37640E-04
  455.00      7.22290E-04
  457.00      7.27970E-04
  459.00      7.22110E-04
  461.00      7.16650E-04
  463.00      7.10060E-04
  465.00      6.98200E-04
  467.00      6.99640E-04
  469.00      6.75960E-04
  471.00      6.85560E-04
  473.00      6.85660E-04
  475.00      6.80570E-04
  477.00      6.75640E-04
  479.00      6.70700E-04
  481.00      6.65510E-04
  483.00      6.57750E-04
  485.00      6.26220E-04
  487.00      5.85850E-04
  489.00      6.42030E-04
  491.00      6.40710E-04
  493.00      6.28470E-04
  495.00      6.32710E-04
  497.00      6.28530E-04
  499.00      6.24100E-04
  501.00      6.15530E-04
  503.00      6.15230E-04
  505.00      6.09590E-04
  507.00      6.06800E-04
  509.00      6.02590E-04
  511.00      5.98430E-04
  513.00      5.94300E-04
  515.00      5.90210E-04
  517.00      5.86130E-04
  519.00      5.82170E-04
  521.00      5.78210E-04
  523.00      5.74300E-04
  525.00      5.70290E-04
  527.00      5.66430E-04
  529.00      5.62770E-04
  531.00      5.59000E-04
  533.00      5.55270E-04
  535.00      5.51580E-04
  537.00      5.47920E-04
  539.00      5.44290E-04
  541.00      5.32320E-04
  543.00      5.37120E-04
  545.00      5.33660E-04
  547.00      5.30170E-04
  549.00      5.26730E-04
  551.00      5.23270E-04
  553.00      5.19930E-04
  555.00      5.16590E-04
  557.00      5.13260E-04
  559.00      5.09700E-04
  561.00      5.06730E-04
  563.00      5.03510E-04
  565.00      5.00320E-04
  567.00      4.97130E-04
  569.00      4.90120E-04
  571.00      4.74060E-04
  573.00      4.71280E-04
  575.00      4.68470E-04
  577.00      4.65780E-04
  579.00      4.63070E-04
  581.00      4.60260E-04
  583.00      4.57830E-04
  585.00      4.55780E-04
  587.00      4.46330E-04
  589.00      4.51630E-04
  591.00      4.50620E-04
  593.00      4.49260E-04
  595.00      4.48010E-04
  597.00      4.46910E-04
  599.00      4.45910E-04
  601.00      4.44720E-04
  603.00      4.43200E-04
  605.00      4.42220E-04
  607.00      4.40090E-04
  609.00      4.37510E-04
  611.00      4.34920E-04
  613.00      4.32360E-04
  615.00      4.29810E-04
  617.00      4.27230E-04
  619.00      4.24800E-04
  621.00      4.22330E-04
  623.00      4.19830E-04
  625.00      4.17430E-04
  627.00      4.15020E-04
  629.00      4.12630E-04
  631.00      4.09890E-04
  633.00      4.07900E-04
  635.00      4.05570E-04
  637.00      4.03260E-04
  639.00      4.00960E-04
  641.00      3.97980E-04
  643.00      3.96440E-04
  645.00      3.94200E-04
  647.00      3.91950E-04
  649.00      3.89770E-04
  651.00      3.87240E-04
  653.00      3.82700E-04
  655.00      3.73240E-04
  657.00      3.46050E-04
  659.00      3.76440E-04
  661.00      3.76650E-04
  663.00      3.74910E-04
  665.00      3.72910E-04
  667.00      3.68050E-04
  669.00      3.64790E-04
  671.00      3.66710E-04
  673.00      3.64790E-04
  675.00      3.62830E-04
  677.00      3.60930E-04
  679.00      3.58990E-04
  681.00      3.57070E-04
  683.00      3.55160E-04
  685.00      3.53260E-04
  687.00      3.51370E-04
  689.00      3.47650E-04
  691.00      3.47580E-04
  693.00      3.45830E-04
  695.00      3.44010E-04
  697.00      3.42200E-04
  699.00      3.40400E-04
  701.00      3.38610E-04
  703.00      3.36760E-04
  705.00      3.35070E-04
  707.00      3.30350E-04
  709.00      3.31640E-04
  711.00      3.29930E-04
  713.00      3.28230E-04
  715.00      3.26550E-04
  717.00      3.23520E-04
  719.00      3.22400E-04
  721.00      3.21570E-04
  723.00      3.19870E-04
  725.00      3.18310E-04
  727.00      3.16710E-04
  729.00      3.13710E-04
  731.00      3.13510E-04
  733.00      3.11950E-04
  735.00      3.10390E-04
  737.00      3.08840E-04
  739.00      3.07300E-04
  741.00      3.05770E-04
  743.00      3.04260E-04
  745.00      3.02750E-04
  747.00      3.01270E-04
  749.00      2.99690E-04
  751.00      2.98290E-04
  753.00      2.96860E-04
  755.00      2.95410E-04
  757.00      2.93960E-04
  759.00      2.90230E-04
  761.00      2.90980E-04
  763.00      2.89710E-04
  765.00      2.88310E-04
  767.00      2.86920E-04
  769.00      2.85500E-04
  771.00      2.84160E-04
  773.00      2.82740E-04
  775.00      2.81470E-04
  777.00      2.80130E-04
  779.00      2.78800E-04
  781.00      2.77430E-04
  783.00      2.76170E-04
  785.00      2.74960E-04
  787.00      2.73650E-04
  789.00      2.72370E-04
  791.00      2.71110E-04
  793.00      2.69850E-04
  795.00      2.68590E-04
  797.00      2.67320E-04
  799.00      2.66100E-04
  801.00      2.64870E-04
  803.00      2.63630E-04
  805.00      2.62430E-04
  807.00      2.61230E-04
  809.00      2.59980E-04
  811.00      2.58790E-04
  813.00      2.57650E-04
  815.00      2.56430E-04
  817.00      2.55300E-04
  819.00      2.53570E-04
  821.00      2.48280E-04
  823.00      2.46070E-04
  825.00      2.45930E-04
  827.00      2.44920E-04
  829.00      2.44170E-04
  831.00      2.43160E-04
  833.00      2.42000E-04
  835.00      2.40640E-04
  837.00      2.39880E-04
  839.00      2.38960E-04
  841.00      2.37950E-04
  843.00      2.36910E-04
  845.00      2.35440E-04
  847.00      2.34970E-04
  849.00      2.33930E-04
  851.00      2.33010E-04
  853.00      2.32010E-04
  855.00      2.31120E-04
  857.00      2.30560E-04
  859.00      2.28370E-04
  861.00      2.28320E-04
  863.00      2.28340E-04
  865.00      2.26390E-04
  867.00      2.24290E-04
  869.00      2.25880E-04
  871.00      2.25790E-04
  873.00      2.23280E-04
  875.00      2.18550E-04
  877.00      2.20760E-04
  879.00      2.22950E-04
  881.00      2.22750E-04
  883.00      2.21310E-04
  885.00      2.15240E-04
  887.00      2.10430E-04
  889.00      2.17450E-04
  891.00      2.18840E-04
  893.00      2.18480E-04
  895.00      2.17880E-04
  897.00      2.16520E-04
  899.00      2.12630E-04
  901.00      2.02140E-04
  903.00      2.05500E-04
  905.00      2.11600E-04
  907.00      2.11320E-04
  909.00      2.11710E-04
  911.00      2.11190E-04
  913.00      2.10780E-04
  915.00      2.09630E-04
  917.00      2.08180E-04
  919.00      2.06510E-04
  921.00      2.00660E-04
  923.00      1.89180E-04
  925.00      1.98780E-04
  927.00      2.02930E-04
  929.00      2.03270E-04
  931.00      2.02550E-04
  933.00      2.02120E-04
  935.00      1.98610E-04
  937.00      2.00510E-04
  939.00      1.99930E-04
  941.00      1.99110E-04
  943.00      1.98320E-04
  945.00      1.97540E-04
  947.00      1.95880E-04
  949.00      1.95250E-04
  951.00      1.92510E-04
  953.00      1.86630E-04
  955.00      1.75900E-04
  957.00      1.87390E-04
  959.00      1.90580E-04
  961.00      1.90600E-04
  963.00      1.89970E-04
  965.00      1.89870E-04
  967.00      1.89130E-04
  969.00      1.88340E-04
  971.00      1.87020E-04
  973.00      1.86890E-04
  975.00      1.86200E-04
  977.00      1.85320E-04
  979.00      1.84770E-04
  981.00      1.84060E-04
  983.00      1.83350E-04
  985.00      1.82640E-04
  987.00      1.81940E-04
  989.00      1.81240E-04
  991.00      1.80510E-04
  993.00      1.79860E-04
  995.00      1.79180E-04
  997.00      1.78390E-04
  999.00      1.77250E-04
  1002.5      1.70950E-04
  1007.5      1.67830E-04
  1012.5      1.71080E-04
  1017.5      1.71740E-04
  1022.5      1.70120E-04
  1027.5      1.68580E-04
  1032.5      1.66630E-04
  1037.5      1.65510E-04
  1042.5      1.63840E-04
  1047.5      1.62520E-04
  1052.5      1.61060E-04
  1057.5      1.59610E-04
  1062.5      1.58190E-04
  1067.5      1.56650E-04
  1072.5      1.55390E-04
  1077.5      1.54020E-04
  1082.5      1.51800E-04
  1087.5      1.50780E-04
  1092.5      1.41600E-04
  1097.5      1.45800E-04
  1102.5      1.46870E-04
  1107.5      1.46090E-04
  1112.5      1.44920E-04
  1117.5      1.43700E-04
  1122.5      1.42460E-04
  1127.5      1.41280E-04
  1132.5      1.40090E-04
  1137.5      1.38920E-04
  1142.5      1.37760E-04
  1147.5      1.36620E-04
  1152.5      1.35490E-04
  1157.5      1.34370E-04
  1162.5      1.32510E-04
  1167.5      1.31890E-04
  1172.5      1.31110E-04
  1177.5      1.30040E-04
  1182.5      1.28990E-04
  1187.5      1.27960E-04
  1192.5      1.26930E-04
  1197.5      1.25110E-04
  1202.5      1.24920E-04
  1207.5      1.23930E-04
  1212.5      1.22950E-04
  1217.5      1.21990E-04
  1222.5      1.21040E-04
  1227.5      1.20090E-04
  1232.5      1.19160E-04
  1237.5      1.18240E-04
  1242.5      1.17330E-04
  1247.5      1.16430E-04
  1252.5      1.15430E-04
  1257.5      1.14660E-04
  1262.5      1.13790E-04
  1267.5      1.12930E-04
  1272.5      1.12010E-04
  1277.5      1.09700E-04
  1282.5      1.04060E-04
  1287.5      1.08850E-04
  1292.5      1.08760E-04
  1297.5      1.07590E-04
  1302.5      1.07180E-04
  1307.5      1.06390E-04
  1312.5      1.05620E-04
  1317.5      1.04850E-04
  1322.5      1.04090E-04
  1327.5      1.03330E-04
  1332.5      1.02590E-04
  1337.5      1.01850E-04
  1342.5      1.01090E-04
  1347.5      1.00400E-04
  1352.5      9.96910E-05
  1357.5      9.89870E-05
  1362.5      9.82880E-05
  1367.5      9.75980E-05
  1372.5      9.69130E-05
  1377.5      9.62390E-05
  1382.5      9.55690E-05
  1387.5      9.49070E-05
  1392.5      9.42510E-05
  1397.5      9.36030E-05
