 Castelli and Kurucz 2004-2012 Atmosphere
 T     37000.     G    5.00000 [-1.0] VTURB=2  L/H=1.25 NOVER NEW ODF          
 Wavelength  Eddington Hnu
   (nm)    (ergs/s/cm2/Hz/sr)
  9.0900      9.20640E-27
  9.3500      3.86810E-26
  9.6100      1.50880E-25
  9.7700      3.37360E-25
  9.9600      8.49340E-25
  10.200      2.60420E-24
  10.380      5.85290E-24
  10.560      1.28210E-23
  10.770      3.10440E-23
  11.040      9.24570E-23
  11.400      3.68020E-22
  11.780      1.45770E-21
  12.130      4.83160E-21
  12.480      1.50610E-20
  12.710      3.08240E-20
  12.840      4.57320E-20
  13.050      8.52350E-20
  13.240      1.47520E-19
  13.390      2.25100E-19
  13.660      4.71730E-19
  13.980      1.09710E-18
  14.330      2.65440E-18
  14.720      6.78840E-18
  15.100      1.62770E-17
  15.520      4.08560E-17
  15.880      8.68710E-17
  16.200      1.65660E-16
  16.600      3.59890E-16
  17.030      7.98510E-16
  17.340      1.38740E-15
  17.680      2.49260E-15
  18.020      4.38790E-15
  18.170      5.59800E-15
  18.610      1.12090E-14
  19.100      2.34610E-14
  19.390      3.57570E-14
  19.840      6.72040E-14
  20.180      1.06400E-13
  20.500      1.61840E-13
  21.050      3.23910E-13
  21.620      6.41610E-13
  21.980      9.72150E-13
  22.300      1.39060E-12
  22.680      2.09910E-12
  23.000      6.59120E-10
  23.400      3.37880E-09
  24.000      8.08700E-09
  24.650      1.72390E-08
  25.240      3.10680E-08
  25.680      3.00650E-08
  26.000      7.53950E-08
  26.400      2.63700E-07
  26.850      4.50000E-07
  27.350      5.79910E-07
  27.850      4.95480E-07
  28.400      1.05600E-06
  29.000      1.24740E-06
  29.600      8.97050E-07
  30.100      5.11480E-07
  30.800      1.71330E-06
  31.800      3.76930E-06
  32.800      4.74960E-06
  33.800      5.72910E-06
  34.800      7.15920E-06
  35.700      9.51050E-06
  36.600      1.26580E-05
  37.500      1.38150E-05
  38.500      1.49450E-05
  39.500      1.81290E-05
  40.500      2.06080E-05
  41.400      2.27900E-05
  42.200      2.39690E-05
  43.000      2.54200E-05
  44.100      2.97340E-05
  45.100      3.31590E-05
  46.000      3.51460E-05
  47.000      3.93270E-05
  48.000      4.43040E-05
  49.000      4.72430E-05
  50.000      5.43590E-05
  50.600      1.08950E-04
  51.200      3.27580E-04
  52.000      3.17610E-04
  53.000      3.14430E-04
  54.000      2.93020E-04
  55.000      3.21720E-04
  56.000      3.80000E-04
  57.000      3.95940E-04
  58.000      3.84310E-04
  59.000      4.08480E-04
  60.000      3.92630E-04
  61.000      4.16430E-04
  62.000      4.66690E-04
  63.000      4.71510E-04
  64.000      4.86520E-04
  65.000      4.93870E-04
  65.800      4.80160E-04
  66.500      5.08210E-04
  67.500      5.37010E-04
  68.500      5.09280E-04
  69.500      5.56820E-04
  70.500      5.38620E-04
  71.600      5.93940E-04
  72.600      6.03000E-04
  73.500      6.21060E-04
  74.500      6.18170E-04
  75.500      6.27310E-04
  76.500      6.33090E-04
  77.500      6.49120E-04
  78.500      6.68570E-04
  79.500      6.79640E-04
  80.500      6.85670E-04
  81.500      7.01190E-04
  82.500      7.20150E-04
  83.500      6.82240E-04
  84.500      7.36320E-04
  85.500      7.44080E-04
  86.500      7.64770E-04
  87.500      7.75720E-04
  88.500      7.86100E-04
  89.500      7.97300E-04
  90.500      7.98570E-04
  91.500      7.37430E-04
  92.500      1.43310E-03
  93.500      2.09030E-03
  94.500      3.02300E-03
  95.500      3.42140E-03
  96.500      4.21830E-03
  97.500      2.71140E-03
  98.500      4.16900E-03
  99.500      3.84720E-03
  100.50      4.08920E-03
  101.50      4.12090E-03
  102.50      2.89340E-03
  103.50      4.06540E-03
  104.50      4.30330E-03
  105.50      4.27630E-03
  106.50      4.08880E-03
  107.50      4.12510E-03
  108.50      3.83250E-03
  109.50      4.13000E-03
  110.50      4.03260E-03
  111.50      4.01400E-03
  112.50      3.81030E-03
  113.50      3.98840E-03
  114.50      3.93480E-03
  115.50      3.85760E-03
  116.50      3.81200E-03
  117.50      3.30600E-03
  118.50      3.66160E-03
  119.50      3.65480E-03
  120.50      3.54730E-03
  121.50      2.56580E-03
  122.50      3.49190E-03
  123.50      3.61410E-03
  124.50      3.56890E-03
  125.50      3.59290E-03
  126.50      3.61150E-03
  127.50      3.60460E-03
  128.50      3.59520E-03
  129.50      3.48710E-03
  130.50      3.49250E-03
  131.50      3.52740E-03
  132.50      3.47430E-03
  133.50      3.43280E-03
  134.50      3.44780E-03
  135.50      3.40280E-03
  136.50      3.36090E-03
  137.50      3.32740E-03
  138.50      3.30130E-03
  139.50      3.15850E-03
  140.50      3.13310E-03
  141.50      3.23290E-03
  142.50      3.10790E-03
  143.50      3.17310E-03
  144.20      3.16220E-03
  144.70      3.14640E-03
  145.50      3.10120E-03
  146.50      3.09560E-03
  147.50      3.06610E-03
  148.50      3.07850E-03
  149.50      3.03330E-03
  150.50      3.02810E-03
  151.20      3.02230E-03
  151.70      2.99830E-03
  152.50      2.96310E-03
  153.50      2.82880E-03
  154.50      2.66950E-03
  155.50      2.67740E-03
  156.50      2.74660E-03
  157.50      2.78560E-03
  158.50      2.80180E-03
  159.50      2.78330E-03
  160.50      2.68460E-03
  161.50      2.63780E-03
  162.50      2.64770E-03
  163.50      2.62260E-03
  164.50      2.53630E-03
  165.50      2.67070E-03
  166.50      2.65190E-03
  167.20      2.57380E-03
  167.70      2.69180E-03
  168.50      2.65660E-03
  169.50      2.63750E-03
  170.50      2.60540E-03
  171.50      2.55590E-03
  172.50      2.53240E-03
  173.50      2.58400E-03
  174.50      2.56270E-03
  175.50      2.52880E-03
  176.50      2.52890E-03
  177.50      2.51530E-03
  178.50      2.50840E-03
  179.50      2.47810E-03
  180.50      2.47150E-03
  181.50      2.45260E-03
  182.50      2.43120E-03
  183.50      2.43190E-03
  184.50      2.40200E-03
  185.50      2.38190E-03
  186.50      2.36790E-03
  187.50      2.35070E-03
  188.50      2.32840E-03
  189.50      2.32260E-03
  190.50      2.32370E-03
  191.50      2.29930E-03
  192.50      2.24510E-03
  193.50      2.27530E-03
  194.50      2.26960E-03
  195.50      2.22860E-03
  196.70      2.23350E-03
  197.60      2.22700E-03
  198.40      2.21070E-03
  199.50      2.18650E-03
  200.50      2.18750E-03
  201.50      2.17510E-03
  202.50      2.16100E-03
  203.50      2.14470E-03
  204.50      2.12990E-03
  205.50      1.71810E-03
  206.50      1.66500E-03
  207.40      1.68170E-03
  207.80      1.69920E-03
  208.50      1.76710E-03
  209.50      1.91260E-03
  210.50      2.03130E-03
  211.50      2.04620E-03
  212.50      2.02880E-03
  213.50      2.01870E-03
  214.50      2.00760E-03
  215.50      2.01280E-03
  216.50      1.95750E-03
  217.50      2.00020E-03
  218.50      1.93940E-03
  219.50      1.97760E-03
  220.50      1.96910E-03
  221.50      1.89800E-03
  222.50      1.94410E-03
  223.50      1.93380E-03
  224.50      1.91820E-03
  225.50      1.85060E-03
  226.50      1.89770E-03
  227.50      1.88700E-03
  228.50      1.86980E-03
  229.50      1.82210E-03
  230.50      1.79460E-03
  231.50      1.83620E-03
  232.50      1.82880E-03
  233.50      1.81770E-03
  234.50      1.80650E-03
  235.50      1.79480E-03
  236.50      1.78410E-03
  237.50      1.77170E-03
  238.50      1.70490E-03
  239.50      1.74300E-03
  240.50      1.74060E-03
  241.50      1.73010E-03
  242.50      1.72140E-03
  243.50      1.71000E-03
  244.50      1.70030E-03
  245.50      1.68870E-03
  246.50      1.68050E-03
  247.50      1.67100E-03
  248.50      1.65990E-03
  249.50      1.56450E-03
  250.50      1.63250E-03
  251.30      1.53570E-03
  251.80      1.60710E-03
  252.50      1.62120E-03
  253.50      1.61360E-03
  254.50      1.60370E-03
  255.50      1.59410E-03
  256.50      1.58570E-03
  257.50      1.57670E-03
  258.50      1.56790E-03
  259.50      1.55730E-03
  260.50      1.55280E-03
  261.50      1.54300E-03
  262.50      1.53550E-03
  263.50      1.52690E-03
  264.50      1.51770E-03
  265.50      1.50900E-03
  266.50      1.49880E-03
  267.50      1.48720E-03
  268.50      1.48410E-03
  269.50      1.47130E-03
  270.50      1.46800E-03
  271.50      1.45900E-03
  272.50      1.44610E-03
  273.50      1.40690E-03
  274.50      1.43600E-03
  275.50      1.42820E-03
  276.50      1.41440E-03
  277.50      1.41320E-03
  278.50      1.40500E-03
  279.50      1.39200E-03
  280.50      1.38880E-03
  281.50      1.38280E-03
  282.50      1.36900E-03
  283.50      1.36390E-03
  284.50      1.36100E-03
  285.50      1.35360E-03
  286.50      1.34590E-03
  287.50      1.33910E-03
  288.50      1.33210E-03
  289.50      1.32490E-03
  291.00      1.31400E-03
  293.00      1.30110E-03
  295.00      1.28200E-03
  297.00      1.27360E-03
  299.00      1.25880E-03
  301.00      1.24670E-03
  303.00      1.23260E-03
  305.00      1.22100E-03
  307.00      1.21030E-03
  309.00      1.19680E-03
  311.00      1.18590E-03
  313.00      1.17410E-03
  315.00      1.16240E-03
  317.00      1.15080E-03
  319.00      1.13440E-03
  321.00      1.11580E-03
  323.00      1.11840E-03
  325.00      1.10780E-03
  327.00      1.09520E-03
  329.00      1.08610E-03
  331.00      1.07640E-03
  333.00      1.06600E-03
  335.00      1.05420E-03
  337.00      1.04600E-03
  339.00      1.03690E-03
  341.00      1.02720E-03
  343.00      1.01610E-03
  345.00      1.00430E-03
  347.00      9.97140E-04
  349.00      9.88150E-04
  351.00      9.79590E-04
  353.00      9.71690E-04
  355.00      9.62230E-04
  357.00      9.56840E-04
  359.00      9.43830E-04
  361.00      9.37520E-04
  363.00      9.26840E-04
  364.00      9.19390E-04
  365.00      8.74530E-04
  367.00      8.68810E-04
  369.00      8.62360E-04
  371.00      8.51730E-04
  373.00      8.48100E-04
  375.00      8.47190E-04
  377.00      8.38480E-04
  379.00      8.55250E-04
  381.00      8.78470E-04
  383.00      8.13660E-04
  385.00      8.90250E-04
  387.00      9.00840E-04
  389.00      7.84560E-04
  391.00      8.94480E-04
  393.00      8.90240E-04
  395.00      8.80390E-04
  397.00      7.55040E-04
  399.00      8.63370E-04
  401.00      8.64110E-04
  403.00      8.32730E-04
  405.00      8.56180E-04
  407.00      8.44740E-04
  409.00      7.97750E-04
  411.00      7.35570E-04
  413.00      8.19520E-04
  415.00      8.16960E-04
  417.00      8.15430E-04
  419.00      8.06110E-04
  421.00      7.95720E-04
  423.00      7.96730E-04
  425.00      7.89770E-04
  427.00      7.82620E-04
  429.00      7.76540E-04
  431.00      7.66270E-04
  433.00      7.17290E-04
  435.00      6.78650E-04
  437.00      7.47320E-04
  439.00      7.34130E-04
  441.00      7.39970E-04
  443.00      7.34290E-04
  445.00      7.29400E-04
  447.00      7.03560E-04
  449.00      7.17840E-04
  451.00      7.12170E-04
  453.00      7.06210E-04
  455.00      6.92800E-04
  457.00      6.96720E-04
  459.00      6.90980E-04
  461.00      6.85770E-04
  463.00      6.79450E-04
  465.00      6.67480E-04
  467.00      6.69520E-04
  469.00      6.48900E-04
  471.00      6.55240E-04
  473.00      6.56130E-04
  475.00      6.51240E-04
  477.00      6.46590E-04
  479.00      6.41850E-04
  481.00      6.36570E-04
  483.00      6.28960E-04
  485.00      5.96010E-04
  487.00      5.55140E-04
  489.00      6.13710E-04
  491.00      6.12600E-04
  493.00      6.00000E-04
  495.00      6.05360E-04
  497.00      6.01440E-04
  499.00      5.97190E-04
  501.00      5.88300E-04
  503.00      5.88670E-04
  505.00      5.83010E-04
  507.00      5.80620E-04
  509.00      5.76580E-04
  511.00      5.72590E-04
  513.00      5.68630E-04
  515.00      5.64680E-04
  517.00      5.60780E-04
  519.00      5.56980E-04
  521.00      5.53210E-04
  523.00      5.49460E-04
  525.00      5.45610E-04
  527.00      5.41920E-04
  529.00      5.38400E-04
  531.00      5.34790E-04
  533.00      5.31220E-04
  535.00      5.27680E-04
  537.00      5.24180E-04
  539.00      5.20690E-04
  541.00      5.10520E-04
  543.00      5.13870E-04
  545.00      5.10510E-04
  547.00      5.07170E-04
  549.00      5.03870E-04
  551.00      5.00570E-04
  553.00      4.97370E-04
  555.00      4.94160E-04
  557.00      4.90980E-04
  559.00      4.87620E-04
  561.00      4.84720E-04
  563.00      4.81640E-04
  565.00      4.78580E-04
  567.00      4.75520E-04
  569.00      4.69450E-04
  571.00      4.57360E-04
  573.00      4.54660E-04
  575.00      4.51910E-04
  577.00      4.49300E-04
  579.00      4.46650E-04
  581.00      4.43930E-04
  583.00      4.41400E-04
  585.00      4.39230E-04
  587.00      4.28720E-04
  589.00      4.34550E-04
  591.00      4.33430E-04
  593.00      4.31780E-04
  595.00      4.30210E-04
  597.00      4.28780E-04
  599.00      4.27380E-04
  601.00      4.25920E-04
  603.00      4.24210E-04
  605.00      4.23050E-04
  607.00      4.20820E-04
  609.00      4.18320E-04
  611.00      4.15840E-04
  613.00      4.13390E-04
  615.00      4.10930E-04
  617.00      4.08510E-04
  619.00      4.06150E-04
  621.00      4.03780E-04
  623.00      4.01430E-04
  625.00      3.99100E-04
  627.00      3.96790E-04
  629.00      3.94500E-04
  631.00      3.92160E-04
  633.00      3.89980E-04
  635.00      3.87750E-04
  637.00      3.85540E-04
  639.00      3.83340E-04
  641.00      3.80820E-04
  643.00      3.79010E-04
  645.00      3.76870E-04
  647.00      3.74710E-04
  649.00      3.72620E-04
  651.00      3.70210E-04
  653.00      3.66070E-04
  655.00      3.55820E-04
  657.00      3.28510E-04
  659.00      3.59520E-04
  661.00      3.59960E-04
  663.00      3.58410E-04
  665.00      3.56510E-04
  667.00      3.51660E-04
  669.00      3.48970E-04
  671.00      3.50590E-04
  673.00      3.48740E-04
  675.00      3.46870E-04
  677.00      3.45060E-04
  679.00      3.43180E-04
  681.00      3.41360E-04
  683.00      3.39530E-04
  685.00      3.37720E-04
  687.00      3.35920E-04
  689.00      3.32960E-04
  691.00      3.32290E-04
  693.00      3.30610E-04
  695.00      3.28870E-04
  697.00      3.27140E-04
  699.00      3.25420E-04
  701.00      3.23700E-04
  703.00      3.21940E-04
  705.00      3.20330E-04
  707.00      3.15480E-04
  709.00      3.17050E-04
  711.00      3.15400E-04
  713.00      3.13780E-04
  715.00      3.12170E-04
  717.00      3.09730E-04
  719.00      3.08450E-04
  721.00      3.07410E-04
  723.00      3.05730E-04
  725.00      3.04280E-04
  727.00      3.02760E-04
  729.00      2.99720E-04
  731.00      2.99690E-04
  733.00      2.98210E-04
  735.00      2.96710E-04
  737.00      2.95230E-04
  739.00      2.93760E-04
  741.00      2.92300E-04
  743.00      2.90850E-04
  745.00      2.89420E-04
  747.00      2.87990E-04
  749.00      2.86490E-04
  751.00      2.85140E-04
  753.00      2.83770E-04
  755.00      2.82390E-04
  757.00      2.81000E-04
  759.00      2.78120E-04
  761.00      2.78210E-04
  763.00      2.76940E-04
  765.00      2.75600E-04
  767.00      2.74270E-04
  769.00      2.72920E-04
  771.00      2.71630E-04
  773.00      2.70280E-04
  775.00      2.69060E-04
  777.00      2.67780E-04
  779.00      2.66510E-04
  781.00      2.65190E-04
  783.00      2.63990E-04
  785.00      2.62860E-04
  787.00      2.61600E-04
  789.00      2.60370E-04
  791.00      2.59170E-04
  793.00      2.57960E-04
  795.00      2.56760E-04
  797.00      2.55550E-04
  799.00      2.54380E-04
  801.00      2.53200E-04
  803.00      2.52020E-04
  805.00      2.50870E-04
  807.00      2.49720E-04
  809.00      2.48470E-04
  811.00      2.47370E-04
  813.00      2.46300E-04
  815.00      2.45040E-04
  817.00      2.44050E-04
  819.00      2.42500E-04
  821.00      2.38500E-04
  823.00      2.36660E-04
  825.00      2.36340E-04
  827.00      2.35210E-04
  829.00      2.34560E-04
  831.00      2.33590E-04
  833.00      2.32450E-04
  835.00      2.31060E-04
  837.00      2.30380E-04
  839.00      2.29520E-04
  841.00      2.28540E-04
  843.00      2.27510E-04
  845.00      2.25960E-04
  847.00      2.25620E-04
  849.00      2.24550E-04
  851.00      2.23640E-04
  853.00      2.22610E-04
  855.00      2.21740E-04
  857.00      2.21200E-04
  859.00      2.18770E-04
  861.00      2.18870E-04
  863.00      2.18990E-04
  865.00      2.16830E-04
  867.00      2.14590E-04
  869.00      2.16460E-04
  871.00      2.16450E-04
  873.00      2.13650E-04
  875.00      2.08530E-04
  877.00      2.11000E-04
  879.00      2.13540E-04
  881.00      2.13380E-04
  883.00      2.11820E-04
  885.00      2.05260E-04
  887.00      2.00260E-04
  889.00      2.07890E-04
  891.00      2.09490E-04
  893.00      2.09190E-04
  895.00      2.08620E-04
  897.00      2.07240E-04
  899.00      2.03140E-04
  901.00      1.92180E-04
  903.00      1.95790E-04
  905.00      2.02360E-04
  907.00      2.02120E-04
  909.00      2.02690E-04
  911.00      2.02280E-04
  913.00      2.01810E-04
  915.00      2.00640E-04
  917.00      1.99290E-04
  919.00      1.97600E-04
  921.00      1.91430E-04
  923.00      1.79610E-04
  925.00      1.89650E-04
  927.00      1.94150E-04
  929.00      1.94610E-04
  931.00      1.93870E-04
  933.00      1.93650E-04
  935.00      1.90840E-04
  937.00      1.92180E-04
  939.00      1.91500E-04
  941.00      1.90710E-04
  943.00      1.89950E-04
  945.00      1.89190E-04
  947.00      1.87470E-04
  949.00      1.86920E-04
  951.00      1.84060E-04
  953.00      1.77910E-04
  955.00      1.66980E-04
  957.00      1.78890E-04
  959.00      1.82340E-04
  961.00      1.82440E-04
  963.00      1.81800E-04
  965.00      1.81850E-04
  967.00      1.81140E-04
  969.00      1.80370E-04
  971.00      1.79050E-04
  973.00      1.78990E-04
  975.00      1.78340E-04
  977.00      1.77630E-04
  979.00      1.76960E-04
  981.00      1.76270E-04
  983.00      1.75600E-04
  985.00      1.74920E-04
  987.00      1.74250E-04
  989.00      1.73580E-04
  991.00      1.72860E-04
  993.00      1.72260E-04
  995.00      1.71600E-04
  997.00      1.70770E-04
  999.00      1.69690E-04
  1002.5      1.63160E-04
  1007.5      1.60100E-04
  1012.5      1.64050E-04
  1017.5      1.64470E-04
  1022.5      1.62920E-04
  1027.5      1.61440E-04
  1032.5      1.59520E-04
  1037.5      1.58500E-04
  1042.5      1.56980E-04
  1047.5      1.55630E-04
  1052.5      1.54230E-04
  1057.5      1.52840E-04
  1062.5      1.51480E-04
  1067.5      1.49990E-04
  1072.5      1.48800E-04
  1077.5      1.47490E-04
  1082.5      1.45280E-04
  1087.5      1.44290E-04
  1092.5      1.34910E-04
  1097.5      1.39300E-04
  1102.5      1.40520E-04
  1107.5      1.39870E-04
  1112.5      1.38770E-04
  1117.5      1.37600E-04
  1122.5      1.36390E-04
  1127.5      1.35270E-04
  1132.5      1.34130E-04
  1137.5      1.33010E-04
  1142.5      1.31900E-04
  1147.5      1.30810E-04
  1152.5      1.29730E-04
  1157.5      1.28660E-04
  1162.5      1.27060E-04
  1167.5      1.26400E-04
  1172.5      1.25530E-04
  1177.5      1.24510E-04
  1182.5      1.23500E-04
  1187.5      1.22510E-04
  1192.5      1.21530E-04
  1197.5      1.19650E-04
  1202.5      1.19600E-04
  1207.5      1.18650E-04
  1212.5      1.17720E-04
  1217.5      1.16800E-04
  1222.5      1.15880E-04
  1227.5      1.14980E-04
  1232.5      1.14090E-04
  1237.5      1.13200E-04
  1242.5      1.12330E-04
  1247.5      1.11470E-04
  1252.5      1.10480E-04
  1257.5      1.09770E-04
  1262.5      1.08940E-04
  1267.5      1.08120E-04
  1272.5      1.07200E-04
  1277.5      1.04860E-04
  1282.5      9.91620E-05
  1287.5      1.04120E-04
  1292.5      1.04070E-04
  1297.5      1.02940E-04
  1302.5      1.02610E-04
  1307.5      1.01850E-04
  1312.5      1.01110E-04
  1317.5      1.00370E-04
  1322.5      9.96460E-05
  1327.5      9.89250E-05
  1332.5      9.82120E-05
  1337.5      9.75070E-05
  1342.5      9.67680E-05
  1347.5      9.61190E-05
  1352.5      9.54360E-05
  1357.5      9.47610E-05
  1362.5      9.40920E-05
  1367.5      9.34320E-05
  1372.5      9.27750E-05
  1377.5      9.21300E-05
  1382.5      9.14900E-05
  1387.5      9.08550E-05
  1392.5      9.02270E-05
  1397.5      8.96070E-05
