 Castelli and Kurucz 2004-2012 Atmosphere
 T     33000.     G    4.50000 [-1.0] VTURB=2  L/H=1.25 NOVER NEW ODF          
 Wavelength  Eddington Hnu
   (nm)    (ergs/s/cm2/Hz/sr)
  9.0900      7.41150E-32
  9.3500      4.24110E-31
  9.6100      2.21780E-30
  9.7700      5.88860E-30
  9.9600      1.80630E-29
  10.200      7.03060E-29
  10.380      1.87610E-28
  10.560      4.85020E-28
  10.770      1.41440E-27
  11.040      5.29380E-27
  11.400      2.80800E-26
  11.780      1.47710E-25
  12.130      6.25640E-25
  12.480      2.45780E-24
  12.710      5.81550E-24
  12.840      9.34380E-24
  13.050      1.97300E-23
  13.240      3.80870E-23
  13.390      6.32390E-23
  13.660      1.53710E-22
  13.980      4.22940E-22
  14.330      1.22110E-21
  14.720      3.76820E-21
  15.100      1.07280E-20
  15.520      3.22700E-20
  15.880      7.95160E-20
  16.200      1.72000E-19
  16.600      4.34250E-19
  17.030      1.12360E-18
  17.340      2.17110E-18
  17.680      4.36340E-18
  18.020      8.55730E-18
  18.170      1.14360E-17
  18.610      2.61190E-17
  19.100      6.28790E-17
  19.390      1.03720E-16
  19.840      2.19550E-16
  20.180      3.78950E-16
  20.500      6.23700E-16
  21.050      1.42170E-15
  21.620      3.20290E-15
  21.980      5.24470E-15
  22.300      8.02690E-15
  22.680      1.30990E-14
  23.000      9.34770E-12
  23.400      3.80110E-11
  24.000      7.27090E-11
  24.650      1.32710E-10
  25.240      2.19480E-10
  25.680      2.44670E-10
  26.000      4.58830E-10
  26.400      6.92060E-10
  26.850      9.96910E-10
  27.350      1.35170E-09
  27.850      1.71180E-09
  28.400      3.09360E-09
  29.000      4.33780E-09
  29.600      5.60590E-09
  30.100      6.39530E-09
  30.800      1.07840E-08
  31.800      2.52010E-08
  32.800      3.66930E-08
  33.800      5.93160E-08
  34.800      8.86480E-08
  35.700      1.26400E-07
  36.600      1.85620E-07
  37.500      2.37720E-07
  38.500      3.31010E-07
  39.500      4.47740E-07
  40.500      5.79090E-07
  41.400      7.38510E-07
  42.200      8.73710E-07
  43.000      1.04580E-06
  44.100      1.35100E-06
  45.100      1.66760E-06
  46.000      1.95790E-06
  47.000      2.40470E-06
  48.000      2.90340E-06
  49.000      3.41290E-06
  50.000      4.15040E-06
  50.600      1.46930E-05
  51.200      5.93170E-05
  52.000      5.79910E-05
  53.000      5.79930E-05
  54.000      5.44440E-05
  55.000      6.34500E-05
  56.000      7.35740E-05
  57.000      7.83520E-05
  58.000      7.53150E-05
  59.000      8.26570E-05
  60.000      8.10900E-05
  61.000      8.85470E-05
  62.000      9.93350E-05
  63.000      1.02040E-04
  64.000      1.04150E-04
  65.000      1.09790E-04
  65.800      1.08790E-04
  66.500      1.15260E-04
  67.500      1.21550E-04
  68.500      1.16870E-04
  69.500      1.32460E-04
  70.500      1.29730E-04
  71.600      1.45360E-04
  72.600      1.48310E-04
  73.500      1.54490E-04
  74.500      1.58390E-04
  75.500      1.62680E-04
  76.500      1.67780E-04
  77.500      1.74120E-04
  78.500      1.83200E-04
  79.500      1.87700E-04
  80.500      1.91200E-04
  81.500      1.97020E-04
  82.500      2.05910E-04
  83.500      1.96620E-04
  84.500      2.14960E-04
  85.500      2.20490E-04
  86.500      2.29080E-04
  87.500      2.35560E-04
  88.500      2.42540E-04
  89.500      2.49520E-04
  90.500      2.52210E-04
  91.500      2.72170E-04
  92.500      8.37220E-04
  93.500      1.36750E-03
  94.500      2.11160E-03
  95.500      2.38410E-03
  96.500      2.88970E-03
  97.500      1.64140E-03
  98.500      2.79590E-03
  99.500      2.61370E-03
  100.50      2.75430E-03
  101.50      2.77450E-03
  102.50      1.92540E-03
  103.50      2.73840E-03
  104.50      2.98470E-03
  105.50      2.95910E-03
  106.50      2.77090E-03
  107.50      2.84210E-03
  108.50      2.66380E-03
  109.50      2.86990E-03
  110.50      2.80240E-03
  111.50      2.79310E-03
  112.50      2.59660E-03
  113.50      2.78030E-03
  114.50      2.70550E-03
  115.50      2.69290E-03
  116.50      2.67470E-03
  117.50      2.20480E-03
  118.50      2.56150E-03
  119.50      2.54890E-03
  120.50      2.45650E-03
  121.50      1.73060E-03
  122.50      2.45150E-03
  123.50      2.56650E-03
  124.50      2.52470E-03
  125.50      2.54560E-03
  126.50      2.57080E-03
  127.50      2.57340E-03
  128.50      2.57190E-03
  129.50      2.45950E-03
  130.50      2.48450E-03
  131.50      2.53340E-03
  132.50      2.48330E-03
  133.50      2.44860E-03
  134.50      2.47190E-03
  135.50      2.45300E-03
  136.50      2.41770E-03
  137.50      2.40450E-03
  138.50      2.38290E-03
  139.50      2.20710E-03
  140.50      2.21820E-03
  141.50      2.32400E-03
  142.50      2.22650E-03
  143.50      2.28530E-03
  144.20      2.29360E-03
  144.70      2.27930E-03
  145.50      2.24370E-03
  146.50      2.23570E-03
  147.50      2.21900E-03
  148.50      2.22740E-03
  149.50      2.19290E-03
  150.50      2.17670E-03
  151.20      2.16900E-03
  151.70      2.15940E-03
  152.50      2.13260E-03
  153.50      2.00950E-03
  154.50      1.92050E-03
  155.50      1.91070E-03
  156.50      1.97020E-03
  157.50      2.01320E-03
  158.50      2.02890E-03
  159.50      2.01940E-03
  160.50      1.93880E-03
  161.50      1.90330E-03
  162.50      1.92310E-03
  163.50      1.92370E-03
  164.50      1.87020E-03
  165.50      1.95040E-03
  166.50      1.93490E-03
  167.20      1.87820E-03
  167.70      1.98270E-03
  168.50      1.94990E-03
  169.50      1.93080E-03
  170.50      1.90690E-03
  171.50      1.87330E-03
  172.50      1.85060E-03
  173.50      1.89480E-03
  174.50      1.87970E-03
  175.50      1.85930E-03
  176.50      1.85160E-03
  177.50      1.84340E-03
  178.50      1.84430E-03
  179.50      1.82640E-03
  180.50      1.82710E-03
  181.50      1.80620E-03
  182.50      1.79390E-03
  183.50      1.79680E-03
  184.50      1.75370E-03
  185.50      1.74060E-03
  186.50      1.74090E-03
  187.50      1.73560E-03
  188.50      1.69980E-03
  189.50      1.68280E-03
  190.50      1.70580E-03
  191.50      1.67630E-03
  192.50      1.63620E-03
  193.50      1.66870E-03
  194.50      1.67720E-03
  195.50      1.62030E-03
  196.70      1.64730E-03
  197.60      1.65700E-03
  198.40      1.62990E-03
  199.50      1.60090E-03
  200.50      1.62210E-03
  201.50      1.62000E-03
  202.50      1.61440E-03
  203.50      1.59400E-03
  204.50      1.58380E-03
  205.50      1.36100E-03
  206.50      1.32880E-03
  207.40      1.35520E-03
  207.80      1.35440E-03
  208.50      1.40370E-03
  209.50      1.48080E-03
  210.50      1.52780E-03
  211.50      1.53310E-03
  212.50      1.52140E-03
  213.50      1.51460E-03
  214.50      1.50460E-03
  215.50      1.50730E-03
  216.50      1.47630E-03
  217.50      1.49500E-03
  218.50      1.46500E-03
  219.50      1.48030E-03
  220.50      1.47220E-03
  221.50      1.43860E-03
  222.50      1.45380E-03
  223.50      1.44490E-03
  224.50      1.43630E-03
  225.50      1.40440E-03
  226.50      1.42030E-03
  227.50      1.41250E-03
  228.50      1.40030E-03
  229.50      1.35460E-03
  230.50      1.36410E-03
  231.50      1.37690E-03
  232.50      1.37050E-03
  233.50      1.36200E-03
  234.50      1.35520E-03
  235.50      1.34690E-03
  236.50      1.33940E-03
  237.50      1.33050E-03
  238.50      1.29960E-03
  239.50      1.31080E-03
  240.50      1.30800E-03
  241.50      1.30010E-03
  242.50      1.29370E-03
  243.50      1.28490E-03
  244.50      1.27850E-03
  245.50      1.27080E-03
  246.50      1.26450E-03
  247.50      1.25720E-03
  248.50      1.24940E-03
  249.50      1.15900E-03
  250.50      1.23160E-03
  251.30      1.18490E-03
  251.80      1.21390E-03
  252.50      1.22240E-03
  253.50      1.21640E-03
  254.50      1.20670E-03
  255.50      1.20090E-03
  256.50      1.19600E-03
  257.50      1.18940E-03
  258.50      1.18320E-03
  259.50      1.17620E-03
  260.50      1.17390E-03
  261.50      1.16680E-03
  262.50      1.16110E-03
  263.50      1.15450E-03
  264.50      1.14760E-03
  265.50      1.14100E-03
  266.50      1.13220E-03
  267.50      1.12440E-03
  268.50      1.12400E-03
  269.50      1.11160E-03
  270.50      1.11080E-03
  271.50      1.10480E-03
  272.50      1.09410E-03
  273.50      1.07970E-03
  274.50      1.08820E-03
  275.50      1.08290E-03
  276.50      1.07080E-03
  277.50      1.07230E-03
  278.50      1.06610E-03
  279.50      1.05340E-03
  280.50      1.05330E-03
  281.50      1.05010E-03
  282.50      1.03760E-03
  283.50      1.03320E-03
  284.50      1.03410E-03
  285.50      1.02830E-03
  286.50      1.02280E-03
  287.50      1.01780E-03
  288.50      1.01280E-03
  289.50      1.00760E-03
  291.00      9.99330E-04
  293.00      9.90190E-04
  295.00      9.74660E-04
  297.00      9.70180E-04
  299.00      9.59480E-04
  301.00      9.49920E-04
  303.00      9.40430E-04
  305.00      9.32050E-04
  307.00      9.24100E-04
  309.00      9.12430E-04
  311.00      9.05980E-04
  313.00      8.97270E-04
  315.00      8.88370E-04
  317.00      8.80010E-04
  319.00      8.67090E-04
  321.00      8.59230E-04
  323.00      8.55770E-04
  325.00      8.48190E-04
  327.00      8.39840E-04
  329.00      8.32130E-04
  331.00      8.25330E-04
  333.00      8.17310E-04
  335.00      8.08780E-04
  337.00      8.02710E-04
  339.00      7.96190E-04
  341.00      7.89060E-04
  343.00      7.79930E-04
  345.00      7.70800E-04
  347.00      7.65690E-04
  349.00      7.58910E-04
  351.00      7.53120E-04
  353.00      7.47680E-04
  355.00      7.40900E-04
  357.00      7.37710E-04
  359.00      7.27140E-04
  361.00      7.22810E-04
  363.00      7.14800E-04
  364.00      7.14090E-04
  365.00      6.95360E-04
  367.00      6.91750E-04
  369.00      6.86120E-04
  371.00      6.73670E-04
  373.00      6.61750E-04
  375.00      6.65540E-04
  377.00      6.58680E-04
  379.00      6.81280E-04
  381.00      7.04320E-04
  383.00      6.41900E-04
  385.00      7.19850E-04
  387.00      7.26070E-04
  389.00      6.23480E-04
  391.00      7.23440E-04
  393.00      7.17800E-04
  395.00      7.11170E-04
  397.00      6.00850E-04
  399.00      6.98170E-04
  401.00      6.96840E-04
  403.00      6.71470E-04
  405.00      6.91540E-04
  407.00      6.80200E-04
  409.00      6.44520E-04
  411.00      5.87910E-04
  413.00      6.60490E-04
  415.00      6.58610E-04
  417.00      6.57880E-04
  419.00      6.52130E-04
  421.00      6.46080E-04
  423.00      6.43470E-04
  425.00      6.37300E-04
  427.00      6.30540E-04
  429.00      6.26830E-04
  431.00      6.18820E-04
  433.00      5.80120E-04
  435.00      5.43690E-04
  437.00      6.04080E-04
  439.00      5.91790E-04
  441.00      5.97480E-04
  443.00      5.93340E-04
  445.00      5.89790E-04
  447.00      5.67490E-04
  449.00      5.80620E-04
  451.00      5.76480E-04
  453.00      5.72310E-04
  455.00      5.64950E-04
  457.00      5.63810E-04
  459.00      5.59060E-04
  461.00      5.55000E-04
  463.00      5.50220E-04
  465.00      5.39750E-04
  467.00      5.42240E-04
  469.00      5.32060E-04
  471.00      5.29350E-04
  473.00      5.31640E-04
  475.00      5.27600E-04
  477.00      5.24250E-04
  479.00      5.20430E-04
  481.00      5.16380E-04
  483.00      5.10290E-04
  485.00      4.84380E-04
  487.00      4.46610E-04
  489.00      4.98550E-04
  491.00      4.97390E-04
  493.00      4.85900E-04
  495.00      4.91020E-04
  497.00      4.88210E-04
  499.00      4.84780E-04
  501.00      4.76580E-04
  503.00      4.77960E-04
  505.00      4.72920E-04
  507.00      4.71550E-04
  509.00      4.68280E-04
  511.00      4.65090E-04
  513.00      4.61850E-04
  515.00      4.58690E-04
  517.00      4.55630E-04
  519.00      4.52630E-04
  521.00      4.49620E-04
  523.00      4.46620E-04
  525.00      4.43560E-04
  527.00      4.40610E-04
  529.00      4.37770E-04
  531.00      4.34880E-04
  533.00      4.32050E-04
  535.00      4.29190E-04
  537.00      4.26410E-04
  539.00      4.23590E-04
  541.00      4.18820E-04
  543.00      4.18170E-04
  545.00      4.15470E-04
  547.00      4.12780E-04
  549.00      4.10140E-04
  551.00      4.07520E-04
  553.00      4.04920E-04
  555.00      4.02370E-04
  557.00      3.99810E-04
  559.00      3.97210E-04
  561.00      3.94800E-04
  563.00      3.92330E-04
  565.00      3.89860E-04
  567.00      3.87320E-04
  569.00      3.83650E-04
  571.00      3.79420E-04
  573.00      3.77170E-04
  575.00      3.74790E-04
  577.00      3.72690E-04
  579.00      3.70440E-04
  581.00      3.68220E-04
  583.00      3.65960E-04
  585.00      3.64010E-04
  587.00      3.53710E-04
  589.00      3.59470E-04
  591.00      3.58140E-04
  593.00      3.56270E-04
  595.00      3.54430E-04
  597.00      3.52710E-04
  599.00      3.51230E-04
  601.00      3.49390E-04
  603.00      3.47310E-04
  605.00      3.45290E-04
  607.00      3.43290E-04
  609.00      3.41280E-04
  611.00      3.39290E-04
  613.00      3.37320E-04
  615.00      3.35290E-04
  617.00      3.33390E-04
  619.00      3.31500E-04
  621.00      3.29600E-04
  623.00      3.27710E-04
  625.00      3.25830E-04
  627.00      3.23970E-04
  629.00      3.22130E-04
  631.00      3.20290E-04
  633.00      3.18500E-04
  635.00      3.16700E-04
  637.00      3.14930E-04
  639.00      3.13150E-04
  641.00      3.11400E-04
  643.00      3.09670E-04
  645.00      3.07950E-04
  647.00      3.06180E-04
  649.00      3.04510E-04
  651.00      3.02850E-04
  653.00      2.99990E-04
  655.00      2.91570E-04
  657.00      2.66550E-04
  659.00      2.94100E-04
  661.00      2.94470E-04
  663.00      2.93080E-04
  665.00      2.91570E-04
  667.00      2.87610E-04
  669.00      2.85940E-04
  671.00      2.86850E-04
  673.00      2.85290E-04
  675.00      2.83830E-04
  677.00      2.82350E-04
  679.00      2.80740E-04
  681.00      2.79350E-04
  683.00      2.77870E-04
  685.00      2.76420E-04
  687.00      2.74960E-04
  689.00      2.73310E-04
  691.00      2.72030E-04
  693.00      2.70680E-04
  695.00      2.69270E-04
  697.00      2.67880E-04
  699.00      2.66490E-04
  701.00      2.65110E-04
  703.00      2.63700E-04
  705.00      2.62380E-04
  707.00      2.57850E-04
  709.00      2.59720E-04
  711.00      2.58380E-04
  713.00      2.57080E-04
  715.00      2.55780E-04
  717.00      2.54320E-04
  719.00      2.53150E-04
  721.00      2.51930E-04
  723.00      2.50270E-04
  725.00      2.49370E-04
  727.00      2.48160E-04
  729.00      2.45370E-04
  731.00      2.45680E-04
  733.00      2.44480E-04
  735.00      2.43270E-04
  737.00      2.42080E-04
  739.00      2.40880E-04
  741.00      2.39700E-04
  743.00      2.38530E-04
  745.00      2.37380E-04
  747.00      2.36170E-04
  749.00      2.35040E-04
  751.00      2.33890E-04
  753.00      2.32810E-04
  755.00      2.31690E-04
  757.00      2.30570E-04
  759.00      2.29240E-04
  761.00      2.28330E-04
  763.00      2.27270E-04
  765.00      2.26190E-04
  767.00      2.25120E-04
  769.00      2.24030E-04
  771.00      2.22980E-04
  773.00      2.21910E-04
  775.00      2.20890E-04
  777.00      2.19850E-04
  779.00      2.18820E-04
  781.00      2.17720E-04
  783.00      2.16780E-04
  785.00      2.15910E-04
  787.00      2.14860E-04
  789.00      2.13810E-04
  791.00      2.12920E-04
  793.00      2.11930E-04
  795.00      2.10960E-04
  797.00      2.09890E-04
  799.00      2.09020E-04
  801.00      2.08050E-04
  803.00      2.07080E-04
  805.00      2.06100E-04
  807.00      2.05170E-04
  809.00      2.04030E-04
  811.00      2.03080E-04
  813.00      2.02390E-04
  815.00      2.01290E-04
  817.00      2.00570E-04
  819.00      1.99380E-04
  821.00      1.97710E-04
  823.00      1.96890E-04
  825.00      1.96290E-04
  827.00      1.94860E-04
  829.00      1.94550E-04
  831.00      1.93750E-04
  833.00      1.92820E-04
  835.00      1.91380E-04
  837.00      1.90970E-04
  839.00      1.90330E-04
  841.00      1.89500E-04
  843.00      1.88600E-04
  845.00      1.86950E-04
  847.00      1.86960E-04
  849.00      1.85880E-04
  851.00      1.85120E-04
  853.00      1.84210E-04
  855.00      1.82950E-04
  857.00      1.83540E-04
  859.00      1.79880E-04
  861.00      1.80200E-04
  863.00      1.81940E-04
  865.00      1.78980E-04
  867.00      1.74420E-04
  869.00      1.79620E-04
  871.00      1.80220E-04
  873.00      1.76760E-04
  875.00      1.67850E-04
  877.00      1.73760E-04
  879.00      1.77750E-04
  881.00      1.77600E-04
  883.00      1.76150E-04
  885.00      1.68480E-04
  887.00      1.61150E-04
  889.00      1.72460E-04
  891.00      1.74100E-04
  893.00      1.73730E-04
  895.00      1.73300E-04
  897.00      1.72220E-04
  899.00      1.68570E-04
  901.00      1.55640E-04
  903.00      1.60860E-04
  905.00      1.68250E-04
  907.00      1.67660E-04
  909.00      1.68210E-04
  911.00      1.68160E-04
  913.00      1.67550E-04
  915.00      1.66870E-04
  917.00      1.65460E-04
  919.00      1.64330E-04
  921.00      1.58660E-04
  923.00      1.45280E-04
  925.00      1.57400E-04
  927.00      1.61490E-04
  929.00      1.61700E-04
  931.00      1.60900E-04
  933.00      1.60840E-04
  935.00      1.59750E-04
  937.00      1.59600E-04
  939.00      1.58980E-04
  941.00      1.58330E-04
  943.00      1.57710E-04
  945.00      1.57090E-04
  947.00      1.55650E-04
  949.00      1.55360E-04
  951.00      1.52940E-04
  953.00      1.47540E-04
  955.00      1.35710E-04
  957.00      1.48920E-04
  959.00      1.51730E-04
  961.00      1.51550E-04
  963.00      1.50960E-04
  965.00      1.51030E-04
  967.00      1.50450E-04
  969.00      1.49770E-04
  971.00      1.48710E-04
  973.00      1.48690E-04
  975.00      1.48130E-04
  977.00      1.47560E-04
  979.00      1.47000E-04
  981.00      1.46430E-04
  983.00      1.45880E-04
  985.00      1.45320E-04
  987.00      1.44760E-04
  989.00      1.44200E-04
  991.00      1.43530E-04
  993.00      1.43120E-04
  995.00      1.42580E-04
  997.00      1.42010E-04
  999.00      1.41120E-04
  1002.5      1.35390E-04
  1007.5      1.32650E-04
  1012.5      1.37070E-04
  1017.5      1.36700E-04
  1022.5      1.35400E-04
  1027.5      1.34200E-04
  1032.5      1.32550E-04
  1037.5      1.31770E-04
  1042.5      1.30580E-04
  1047.5      1.29410E-04
  1052.5      1.28250E-04
  1057.5      1.27100E-04
  1062.5      1.25980E-04
  1067.5      1.24690E-04
  1072.5      1.23760E-04
  1077.5      1.22680E-04
  1082.5      1.20650E-04
  1087.5      1.20180E-04
  1092.5      1.11530E-04
  1097.5      1.16090E-04
  1102.5      1.16860E-04
  1107.5      1.16380E-04
  1112.5      1.15470E-04
  1117.5      1.14500E-04
  1122.5      1.13490E-04
  1127.5      1.12580E-04
  1132.5      1.11630E-04
  1137.5      1.10710E-04
  1142.5      1.09790E-04
  1147.5      1.08880E-04
  1152.5      1.07990E-04
  1157.5      1.07100E-04
  1162.5      1.06140E-04
  1167.5      1.05340E-04
  1172.5      1.04520E-04
  1177.5      1.03670E-04
  1182.5      1.02840E-04
  1187.5      1.02020E-04
  1192.5      1.01210E-04
  1197.5      9.95530E-05
  1202.5      9.96090E-05
  1207.5      9.88250E-05
  1212.5      9.80500E-05
  1217.5      9.72850E-05
  1222.5      9.65280E-05
  1227.5      9.57810E-05
  1232.5      9.50410E-05
  1237.5      9.43100E-05
  1242.5      9.35880E-05
  1247.5      9.28720E-05
  1252.5      9.20180E-05
  1257.5      9.14670E-05
  1262.5      9.07770E-05
  1267.5      9.00960E-05
  1272.5      8.93680E-05
  1277.5      8.73730E-05
  1282.5      8.22010E-05
  1287.5      8.68790E-05
  1292.5      8.67940E-05
  1297.5      8.56810E-05
  1302.5      8.55220E-05
  1307.5      8.49030E-05
  1312.5      8.42860E-05
  1317.5      8.36750E-05
  1322.5      8.30710E-05
  1327.5      8.24740E-05
  1332.5      8.18820E-05
  1337.5      8.12960E-05
  1342.5      8.06670E-05
  1347.5      8.01460E-05
  1352.5      7.95780E-05
  1357.5      7.90190E-05
  1362.5      7.84580E-05
  1367.5      7.79150E-05
  1372.5      7.73670E-05
  1377.5      7.68350E-05
  1382.5      7.63030E-05
  1387.5      7.57770E-05
  1392.5      7.52520E-05
  1397.5      7.47390E-05
