 Castelli and Kurucz 2004-2012 Atmosphere
 T     39000.     G    5.00000 [-1.0] VTURB=2  L/H=1.25 NOVER NEW ODF          
 Wavelength  Eddington Hnu
   (nm)    (ergs/s/cm2/Hz/sr)
  9.0900      5.62540E-25
  9.3500      2.12100E-24
  9.6100      7.49310E-24
  9.7700      1.58380E-23
  9.9600      3.74220E-23
  10.200      1.06440E-22
  10.380      2.26880E-22
  10.560      4.72560E-22
  10.770      1.08200E-21
  11.040      3.01150E-21
  11.400      1.10240E-20
  11.780      4.02430E-20
  12.130      1.24240E-19
  12.480      3.62120E-19
  12.710      7.10490E-19
  12.840      1.02980E-18
  13.050      1.84920E-18
  13.240      3.09580E-18
  13.390      4.60660E-18
  13.660      9.23900E-18
  13.980      2.04420E-17
  14.330      4.69300E-17
  14.720      1.13350E-16
  15.100      2.58060E-16
  15.520      6.12520E-16
  15.880      1.24320E-15
  16.200      2.27730E-15
  16.600      4.71390E-15
  17.030      9.94020E-15
  17.340      1.66690E-14
  17.680      2.88350E-14
  18.020      4.89200E-14
  18.170      6.13760E-14
  18.610      1.17410E-13
  19.100      2.33850E-13
  19.390      3.46300E-13
  19.840      6.23280E-13
  20.180      9.55750E-13
  20.500      1.41210E-12
  21.050      2.69110E-12
  21.620      5.07830E-12
  21.980      7.46800E-12
  22.300      1.04110E-11
  22.680      1.52510E-11
  23.000      3.37880E-09
  23.400      1.61150E-08
  24.000      3.97660E-08
  24.650      1.06520E-07
  25.240      2.58780E-07
  25.680      2.60210E-07
  26.000      7.76880E-07
  26.400      3.16760E-06
  26.850      5.43570E-06
  27.350      7.10240E-06
  27.850      5.97300E-06
  28.400      1.22410E-05
  29.000      1.48210E-05
  29.600      1.01560E-05
  30.100      3.17670E-06
  30.800      1.15590E-05
  31.800      2.09690E-05
  32.800      2.71530E-05
  33.800      2.87610E-05
  34.800      3.40420E-05
  35.700      5.01530E-05
  36.600      6.77720E-05
  37.500      7.48470E-05
  38.500      7.44750E-05
  39.500      9.15090E-05
  40.500      1.03570E-04
  41.400      1.08850E-04
  42.200      1.09580E-04
  43.000      1.09670E-04
  44.100      1.24180E-04
  45.100      1.33270E-04
  46.000      1.32730E-04
  47.000      1.40410E-04
  48.000      1.53900E-04
  49.000      1.54000E-04
  50.000      1.73840E-04
  50.600      2.55830E-04
  51.200      5.80160E-04
  52.000      5.62980E-04
  53.000      5.54790E-04
  54.000      5.17980E-04
  55.000      5.47200E-04
  56.000      6.56470E-04
  57.000      6.82970E-04
  58.000      6.68870E-04
  59.000      7.04140E-04
  60.000      6.75090E-04
  61.000      7.02580E-04
  62.000      7.90430E-04
  63.000      7.94780E-04
  64.000      8.27390E-04
  65.000      8.29470E-04
  65.800      8.03570E-04
  66.500      8.53880E-04
  67.500      9.00960E-04
  68.500      8.58250E-04
  69.500      9.24240E-04
  70.500      8.89850E-04
  71.600      9.77370E-04
  72.600      9.94010E-04
  73.500      1.01800E-03
  74.500      1.00970E-03
  75.500      1.02080E-03
  76.500      1.02170E-03
  77.500      1.04830E-03
  78.500      1.06640E-03
  79.500      1.08690E-03
  80.500      1.09610E-03
  81.500      1.11820E-03
  82.500      1.14210E-03
  83.500      1.08100E-03
  84.500      1.16120E-03
  85.500      1.16700E-03
  86.500      1.19650E-03
  87.500      1.21080E-03
  88.500      1.22110E-03
  89.500      1.23280E-03
  90.500      1.23200E-03
  91.500      1.05820E-03
  92.500      1.86360E-03
  93.500      2.58630E-03
  94.500      3.51930E-03
  95.500      3.94520E-03
  96.500      4.75980E-03
  97.500      3.29770E-03
  98.500      4.68550E-03
  99.500      4.32130E-03
  100.50      4.58900E-03
  101.50      4.64220E-03
  102.50      3.44400E-03
  103.50      4.60160E-03
  104.50      4.79020E-03
  105.50      4.76180E-03
  106.50      4.59000E-03
  107.50      4.61010E-03
  108.50      4.30350E-03
  109.50      4.60190E-03
  110.50      4.50620E-03
  111.50      4.47730E-03
  112.50      4.29800E-03
  113.50      4.44930E-03
  114.50      4.41020E-03
  115.50      4.30960E-03
  116.50      4.25180E-03
  117.50      3.78820E-03
  118.50      4.10350E-03
  119.50      4.09350E-03
  120.50      4.00340E-03
  121.50      3.03980E-03
  122.50      3.93160E-03
  123.50      4.01940E-03
  124.50      3.97740E-03
  125.50      4.00420E-03
  126.50      4.01490E-03
  127.50      4.00440E-03
  128.50      3.99120E-03
  129.50      3.90520E-03
  130.50      3.89270E-03
  131.50      3.91060E-03
  132.50      3.86010E-03
  133.50      3.82890E-03
  134.50      3.82850E-03
  135.50      3.77060E-03
  136.50      3.72160E-03
  137.50      3.67730E-03
  138.50      3.65810E-03
  139.50      3.54700E-03
  140.50      3.49540E-03
  141.50      3.59170E-03
  142.50      3.46700E-03
  143.50      3.52670E-03
  144.20      3.50000E-03
  144.70      3.48610E-03
  145.50      3.43900E-03
  146.50      3.43450E-03
  147.50      3.40580E-03
  148.50      3.41950E-03
  149.50      3.37130E-03
  150.50      3.37090E-03
  151.20      3.36480E-03
  151.70      3.33370E-03
  152.50      3.30040E-03
  153.50      3.16960E-03
  154.50      2.98030E-03
  155.50      2.99520E-03
  156.50      3.07320E-03
  157.50      3.11020E-03
  158.50      3.11830E-03
  159.50      3.09780E-03
  160.50      2.99810E-03
  161.50      2.95320E-03
  162.50      2.95210E-03
  163.50      2.91560E-03
  164.50      2.81480E-03
  165.50      2.96980E-03
  166.50      2.95120E-03
  167.20      2.86810E-03
  167.70      2.98330E-03
  168.50      2.94900E-03
  169.50      2.93080E-03
  170.50      2.89550E-03
  171.50      2.83680E-03
  172.50      2.81970E-03
  173.50      2.86840E-03
  174.50      2.84480E-03
  175.50      2.80820E-03
  176.50      2.80850E-03
  177.50      2.79210E-03
  178.50      2.78290E-03
  179.50      2.74890E-03
  180.50      2.73890E-03
  181.50      2.71990E-03
  182.50      2.69630E-03
  183.50      2.69390E-03
  184.50      2.66810E-03
  185.50      2.64720E-03
  186.50      2.62940E-03
  187.50      2.60770E-03
  188.50      2.58840E-03
  189.50      2.58620E-03
  190.50      2.57780E-03
  191.50      2.55710E-03
  192.50      2.50110E-03
  193.50      2.52690E-03
  194.50      2.51470E-03
  195.50      2.48080E-03
  196.70      2.47570E-03
  197.60      2.46410E-03
  198.40      2.45090E-03
  199.50      2.42950E-03
  200.50      2.42110E-03
  201.50      2.40570E-03
  202.50      2.38950E-03
  203.50      2.37300E-03
  204.50      2.35590E-03
  205.50      1.84040E-03
  206.50      1.77810E-03
  207.40      1.80180E-03
  207.80      1.83290E-03
  208.50      1.92180E-03
  209.50      2.11340E-03
  210.50      2.24850E-03
  211.50      2.26300E-03
  212.50      2.24440E-03
  213.50      2.23160E-03
  214.50      2.22030E-03
  215.50      2.23220E-03
  216.50      2.16100E-03
  217.50      2.22120E-03
  218.50      2.14080E-03
  219.50      2.19520E-03
  220.50      2.18680E-03
  221.50      2.09470E-03
  222.50      2.15860E-03
  223.50      2.14810E-03
  224.50      2.12970E-03
  225.50      2.04360E-03
  226.50      2.10720E-03
  227.50      2.09570E-03
  228.50      2.07730E-03
  229.50      2.03360E-03
  230.50      1.98280E-03
  231.50      2.03840E-03
  232.50      2.03130E-03
  233.50      2.01910E-03
  234.50      2.00600E-03
  235.50      1.99310E-03
  236.50      1.98110E-03
  237.50      1.96680E-03
  238.50      1.88320E-03
  239.50      1.93460E-03
  240.50      1.93210E-03
  241.50      1.92070E-03
  242.50      1.91150E-03
  243.50      1.89900E-03
  244.50      1.88810E-03
  245.50      1.87450E-03
  246.50      1.86590E-03
  247.50      1.85550E-03
  248.50      1.84330E-03
  249.50      1.74870E-03
  250.50      1.81140E-03
  251.30      1.68970E-03
  251.80      1.78530E-03
  252.50      1.79860E-03
  253.50      1.79130E-03
  254.50      1.78090E-03
  255.50      1.77000E-03
  256.50      1.76050E-03
  257.50      1.75030E-03
  258.50      1.74050E-03
  259.50      1.72750E-03
  260.50      1.72250E-03
  261.50      1.71150E-03
  262.50      1.70340E-03
  263.50      1.69390E-03
  264.50      1.68370E-03
  265.50      1.67440E-03
  266.50      1.66380E-03
  267.50      1.65090E-03
  268.50      1.64620E-03
  269.50      1.63420E-03
  270.50      1.62890E-03
  271.50      1.61880E-03
  272.50      1.60610E-03
  273.50      1.55320E-03
  274.50      1.59300E-03
  275.50      1.58450E-03
  276.50      1.57140E-03
  277.50      1.56740E-03
  278.50      1.55840E-03
  279.50      1.54590E-03
  280.50      1.54100E-03
  281.50      1.53360E-03
  282.50      1.52080E-03
  283.50      1.51460E-03
  284.50      1.50960E-03
  285.50      1.50140E-03
  286.50      1.49290E-03
  287.50      1.48530E-03
  288.50      1.47750E-03
  289.50      1.46950E-03
  291.00      1.45750E-03
  293.00      1.44300E-03
  295.00      1.42390E-03
  297.00      1.41230E-03
  299.00      1.39570E-03
  301.00      1.38260E-03
  303.00      1.36650E-03
  305.00      1.35350E-03
  307.00      1.34160E-03
  309.00      1.32760E-03
  311.00      1.31470E-03
  313.00      1.30160E-03
  315.00      1.28920E-03
  317.00      1.27620E-03
  319.00      1.25940E-03
  321.00      1.23380E-03
  323.00      1.24010E-03
  325.00      1.22830E-03
  327.00      1.21330E-03
  329.00      1.20410E-03
  331.00      1.19300E-03
  333.00      1.18160E-03
  335.00      1.16860E-03
  337.00      1.15930E-03
  339.00      1.14910E-03
  341.00      1.13830E-03
  343.00      1.12670E-03
  345.00      1.11410E-03
  347.00      1.10590E-03
  349.00      1.09590E-03
  351.00      1.08710E-03
  353.00      1.07700E-03
  355.00      1.06660E-03
  357.00      1.05950E-03
  359.00      1.04660E-03
  361.00      1.03870E-03
  363.00      1.02760E-03
  364.00      1.01280E-03
  365.00      9.46950E-04
  367.00      9.40310E-04
  369.00      9.33670E-04
  371.00      9.26070E-04
  373.00      9.26550E-04
  375.00      9.30330E-04
  377.00      9.28430E-04
  379.00      9.45280E-04
  381.00      9.66990E-04
  383.00      9.07510E-04
  385.00      9.73440E-04
  387.00      9.82470E-04
  389.00      8.74900E-04
  391.00      9.73330E-04
  393.00      9.66250E-04
  395.00      9.58340E-04
  397.00      8.42130E-04
  399.00      9.40470E-04
  401.00      9.39620E-04
  403.00      9.08870E-04
  405.00      9.29890E-04
  407.00      9.18540E-04
  409.00      8.74810E-04
  411.00      8.15620E-04
  413.00      8.92270E-04
  415.00      8.88560E-04
  417.00      8.85230E-04
  419.00      8.74030E-04
  421.00      8.60390E-04
  423.00      8.64720E-04
  425.00      8.57380E-04
  427.00      8.50160E-04
  429.00      8.43360E-04
  431.00      8.33140E-04
  433.00      7.87780E-04
  435.00      7.50820E-04
  437.00      8.12770E-04
  439.00      8.01190E-04
  441.00      8.03740E-04
  443.00      7.97540E-04
  445.00      7.92000E-04
  447.00      7.69680E-04
  449.00      7.79600E-04
  451.00      7.73130E-04
  453.00      7.66250E-04
  455.00      7.49070E-04
  457.00      7.56410E-04
  459.00      7.50430E-04
  461.00      7.44750E-04
  463.00      7.38010E-04
  465.00      7.26410E-04
  467.00      7.26950E-04
  469.00      7.00690E-04
  471.00      7.13210E-04
  473.00      7.12530E-04
  475.00      7.07240E-04
  477.00      7.02090E-04
  479.00      6.96970E-04
  481.00      6.91740E-04
  483.00      6.83940E-04
  485.00      6.53820E-04
  487.00      6.14200E-04
  489.00      6.67790E-04
  491.00      6.66410E-04
  493.00      6.54600E-04
  495.00      6.57620E-04
  497.00      6.53200E-04
  499.00      6.48610E-04
  501.00      6.40320E-04
  503.00      6.39440E-04
  505.00      6.33820E-04
  507.00      6.30650E-04
  509.00      6.26280E-04
  511.00      6.21960E-04
  513.00      6.17670E-04
  515.00      6.13430E-04
  517.00      6.09210E-04
  519.00      6.05080E-04
  521.00      6.00980E-04
  523.00      5.96910E-04
  525.00      5.92770E-04
  527.00      5.88760E-04
  529.00      5.84950E-04
  531.00      5.81040E-04
  533.00      5.77170E-04
  535.00      5.73340E-04
  537.00      5.69550E-04
  539.00      5.65780E-04
  541.00      5.52240E-04
  543.00      5.58280E-04
  545.00      5.54740E-04
  547.00      5.51120E-04
  549.00      5.47550E-04
  551.00      5.43950E-04
  553.00      5.40500E-04
  555.00      5.37020E-04
  557.00      5.33570E-04
  559.00      5.29830E-04
  561.00      5.26800E-04
  563.00      5.23450E-04
  565.00      5.20140E-04
  567.00      5.16840E-04
  569.00      5.08920E-04
  571.00      4.88810E-04
  573.00      4.85950E-04
  575.00      4.83100E-04
  577.00      4.80340E-04
  579.00      4.77590E-04
  581.00      4.74710E-04
  583.00      4.72430E-04
  585.00      4.70510E-04
  587.00      4.62210E-04
  589.00      4.66920E-04
  591.00      4.66050E-04
  593.00      4.65000E-04
  595.00      4.64110E-04
  597.00      4.63360E-04
  599.00      4.62790E-04
  601.00      4.61850E-04
  603.00      4.60530E-04
  605.00      4.59780E-04
  607.00      4.57510E-04
  609.00      4.55040E-04
  611.00      4.52300E-04
  613.00      4.49710E-04
  615.00      4.47070E-04
  617.00      4.44280E-04
  619.00      4.41860E-04
  621.00      4.39290E-04
  623.00      4.36360E-04
  625.00      4.34200E-04
  627.00      4.31710E-04
  629.00      4.29220E-04
  631.00      4.26030E-04
  633.00      4.24310E-04
  635.00      4.21890E-04
  637.00      4.19490E-04
  639.00      4.17100E-04
  641.00      4.13540E-04
  643.00      4.12400E-04
  645.00      4.10070E-04
  647.00      4.07740E-04
  649.00      4.05490E-04
  651.00      4.02830E-04
  653.00      3.97860E-04
  655.00      3.89250E-04
  657.00      3.62350E-04
  659.00      3.91940E-04
  661.00      3.91950E-04
  663.00      3.90030E-04
  665.00      3.87950E-04
  667.00      3.83130E-04
  669.00      3.79280E-04
  671.00      3.81500E-04
  673.00      3.79510E-04
  675.00      3.77470E-04
  677.00      3.75490E-04
  679.00      3.73480E-04
  681.00      3.71480E-04
  683.00      3.69490E-04
  685.00      3.67520E-04
  687.00      3.65560E-04
  689.00      3.60950E-04
  691.00      3.61540E-04
  693.00      3.59790E-04
  695.00      3.57900E-04
  697.00      3.56020E-04
  699.00      3.54150E-04
  701.00      3.52280E-04
  703.00      3.50370E-04
  705.00      3.48620E-04
  707.00      3.44050E-04
  709.00      3.45050E-04
  711.00      3.43270E-04
  713.00      3.41500E-04
  715.00      3.39750E-04
  717.00      3.36060E-04
  719.00      3.35090E-04
  721.00      3.34580E-04
  723.00      3.32850E-04
  725.00      3.31190E-04
  727.00      3.29520E-04
  729.00      3.26600E-04
  731.00      3.26190E-04
  733.00      3.24580E-04
  735.00      3.22950E-04
  737.00      3.21340E-04
  739.00      3.19740E-04
  741.00      3.18150E-04
  743.00      3.16580E-04
  745.00      3.15010E-04
  747.00      3.13470E-04
  749.00      3.11830E-04
  751.00      3.10380E-04
  753.00      3.08890E-04
  755.00      3.07380E-04
  757.00      3.05880E-04
  759.00      3.01210E-04
  761.00      3.02690E-04
  763.00      3.01450E-04
  765.00      3.00000E-04
  767.00      2.98560E-04
  769.00      2.97080E-04
  771.00      2.95690E-04
  773.00      2.94210E-04
  775.00      2.92890E-04
  777.00      2.91500E-04
  779.00      2.90120E-04
  781.00      2.88710E-04
  783.00      2.87380E-04
  785.00      2.86110E-04
  787.00      2.84750E-04
  789.00      2.83410E-04
  791.00      2.82110E-04
  793.00      2.80790E-04
  795.00      2.79480E-04
  797.00      2.78160E-04
  799.00      2.76890E-04
  801.00      2.75610E-04
  803.00      2.74320E-04
  805.00      2.73080E-04
  807.00      2.71830E-04
  809.00      2.70560E-04
  811.00      2.69320E-04
  813.00      2.68110E-04
  815.00      2.66890E-04
  817.00      2.65660E-04
  819.00      2.63750E-04
  821.00      2.57100E-04
  823.00      2.54570E-04
  825.00      2.54580E-04
  827.00      2.53680E-04
  829.00      2.52820E-04
  831.00      2.51780E-04
  833.00      2.50600E-04
  835.00      2.49280E-04
  837.00      2.48440E-04
  839.00      2.47470E-04
  841.00      2.46450E-04
  843.00      2.45400E-04
  845.00      2.44020E-04
  847.00      2.43430E-04
  849.00      2.42430E-04
  851.00      2.41490E-04
  853.00      2.40540E-04
  855.00      2.39640E-04
  857.00      2.39050E-04
  859.00      2.37110E-04
  861.00      2.36920E-04
  863.00      2.36850E-04
  865.00      2.35110E-04
  867.00      2.33140E-04
  869.00      2.34470E-04
  871.00      2.34320E-04
  873.00      2.32110E-04
  875.00      2.27750E-04
  877.00      2.29740E-04
  879.00      2.31590E-04
  881.00      2.31360E-04
  883.00      2.30060E-04
  885.00      2.24500E-04
  887.00      2.19870E-04
  889.00      2.26290E-04
  891.00      2.27470E-04
  893.00      2.27050E-04
  895.00      2.26420E-04
  897.00      2.25070E-04
  899.00      2.21420E-04
  901.00      2.11450E-04
  903.00      2.14550E-04
  905.00      2.20130E-04
  907.00      2.19830E-04
  909.00      2.20040E-04
  911.00      2.19400E-04
  913.00      2.18970E-04
  915.00      2.17930E-04
  917.00      2.16390E-04
  919.00      2.14730E-04
  921.00      2.09260E-04
  923.00      1.98160E-04
  925.00      2.07270E-04
  927.00      2.11050E-04
  929.00      2.11260E-04
  931.00      2.10570E-04
  933.00      2.09970E-04
  935.00      2.05760E-04
  937.00      2.08140E-04
  939.00      2.07720E-04
  941.00      2.06870E-04
  943.00      2.06050E-04
  945.00      2.05240E-04
  947.00      2.03810E-04
  949.00      2.02950E-04
  951.00      2.00350E-04
  953.00      1.94780E-04
  955.00      1.84280E-04
  957.00      1.95300E-04
  959.00      1.98190E-04
  961.00      1.98150E-04
  963.00      1.97560E-04
  965.00      1.97280E-04
  967.00      1.96520E-04
  969.00      1.95700E-04
  971.00      1.94410E-04
  973.00      1.94200E-04
  975.00      1.93440E-04
  977.00      1.92400E-04
  979.00      1.91990E-04
  981.00      1.91250E-04
  983.00      1.90510E-04
  985.00      1.89780E-04
  987.00      1.89050E-04
  989.00      1.88330E-04
  991.00      1.87590E-04
  993.00      1.86900E-04
  995.00      1.86190E-04
  997.00      1.85460E-04
  999.00      1.84250E-04
  1002.5      1.78210E-04
  1007.5      1.75020E-04
  1012.5      1.77580E-04
  1017.5      1.78460E-04
  1022.5      1.76790E-04
  1027.5      1.75190E-04
  1032.5      1.73210E-04
  1037.5      1.72000E-04
  1042.5      1.70150E-04
  1047.5      1.68900E-04
  1052.5      1.67380E-04
  1057.5      1.65880E-04
  1062.5      1.64400E-04
  1067.5      1.62830E-04
  1072.5      1.61490E-04
  1077.5      1.60070E-04
  1082.5      1.57850E-04
  1087.5      1.56800E-04
  1092.5      1.47870E-04
  1097.5      1.51850E-04
  1102.5      1.52800E-04
  1107.5      1.51850E-04
  1112.5      1.50620E-04
  1117.5      1.49370E-04
  1122.5      1.48080E-04
  1127.5      1.46860E-04
  1132.5      1.45620E-04
  1137.5      1.44400E-04
  1142.5      1.43200E-04
  1147.5      1.42010E-04
  1152.5      1.40840E-04
  1157.5      1.39680E-04
  1162.5      1.37540E-04
  1167.5      1.36940E-04
  1172.5      1.36290E-04
  1177.5      1.35180E-04
  1182.5      1.34090E-04
  1187.5      1.33020E-04
  1192.5      1.31950E-04
  1197.5      1.30180E-04
  1202.5      1.29860E-04
  1207.5      1.28840E-04
  1212.5      1.27820E-04
  1217.5      1.26820E-04
  1222.5      1.25830E-04
  1227.5      1.24850E-04
  1232.5      1.23880E-04
  1237.5      1.22930E-04
  1242.5      1.21980E-04
  1247.5      1.21050E-04
  1252.5      1.20030E-04
  1257.5      1.19210E-04
  1262.5      1.18310E-04
  1267.5      1.17410E-04
  1272.5      1.16480E-04
  1277.5      1.14220E-04
  1282.5      1.08650E-04
  1287.5      1.13260E-04
  1292.5      1.13090E-04
  1297.5      1.11950E-04
  1302.5      1.11430E-04
  1307.5      1.10620E-04
  1312.5      1.09810E-04
  1317.5      1.09010E-04
  1322.5      1.08220E-04
  1327.5      1.07440E-04
  1332.5      1.06670E-04
  1337.5      1.05900E-04
  1342.5      1.05110E-04
  1347.5      1.04400E-04
  1352.5      1.03650E-04
  1357.5      1.02920E-04
  1362.5      1.02200E-04
  1367.5      1.01480E-04
  1372.5      1.00770E-04
  1377.5      1.00070E-04
  1382.5      9.93710E-05
  1387.5      9.86830E-05
  1392.5      9.80010E-05
  1397.5      9.73280E-05
