 Castelli and Kurucz 2004-2012 Atmosphere
 T     46000.     G    5.00000 [-1.0] VTURB=2  L/H=1.25 NOVER NEW ODF          
 Wavelength  Eddington Hnu
   (nm)    (ergs/s/cm2/Hz/sr)
  9.0900      4.61410E-20
  9.3500      1.29920E-19
  9.6100      3.44710E-19
  9.7700      6.17180E-19
  9.9600      1.19780E-18
  10.200      2.67610E-18
  10.380      4.78260E-18
  10.560      8.38810E-18
  10.770      1.57970E-17
  11.040      3.44810E-17
  11.400      9.25320E-17
  11.780      2.47480E-16
  12.130      5.82970E-16
  12.480      1.31360E-15
  12.710      2.19210E-15
  12.840      2.90750E-15
  13.050      4.53390E-15
  13.240      6.70670E-15
  13.390      9.07470E-15
  13.660      1.53990E-14
  13.980      2.82450E-14
  14.330      5.32390E-14
  14.720      1.03740E-13
  15.100      1.96350E-13
  15.520      3.81410E-13
  15.880      6.58000E-13
  16.200      1.05410E-12
  16.600      1.85330E-12
  17.030      3.29230E-12
  17.340      4.90960E-12
  17.680      7.54660E-12
  18.020      1.13990E-11
  18.170      1.34810E-11
  18.610      2.25720E-11
  19.100      3.86630E-11
  19.390      5.27510E-11
  19.840      8.35850E-11
  20.180      1.16870E-10
  20.500      1.59250E-10
  21.050      2.64900E-10
  21.620      4.37140E-10
  21.980      5.94080E-10
  22.300      7.71850E-10
  22.680      1.04140E-09
  23.000      1.05230E-07
  23.400      5.52410E-07
  24.000      2.90060E-06
  24.650      2.01800E-05
  25.240      5.82790E-05
  25.680      5.88020E-05
  26.000      1.08050E-04
  26.400      2.12560E-04
  26.850      2.63720E-04
  27.350      3.13820E-04
  27.850      2.86650E-04
  28.400      4.22560E-04
  29.000      5.02430E-04
  29.600      4.27270E-04
  30.100      1.74560E-04
  30.800      2.85750E-04
  31.800      2.89730E-04
  32.800      3.51050E-04
  33.800      3.01450E-04
  34.800      3.15860E-04
  35.700      5.26030E-04
  36.600      7.16580E-04
  37.500      8.14070E-04
  38.500      7.55720E-04
  39.500      9.72660E-04
  40.500      1.14670E-03
  41.400      1.18990E-03
  42.200      1.17310E-03
  43.000      1.15310E-03
  44.100      1.32090E-03
  45.100      1.38850E-03
  46.000      1.33460E-03
  47.000      1.38340E-03
  48.000      1.48670E-03
  49.000      1.40360E-03
  50.000      1.57510E-03
  50.600      1.49090E-03
  51.200      1.84390E-03
  52.000      1.81740E-03
  53.000      1.79950E-03
  54.000      1.67020E-03
  55.000      1.61340E-03
  56.000      1.92900E-03
  57.000      2.01060E-03
  58.000      2.00590E-03
  59.000      2.06530E-03
  60.000      2.00580E-03
  61.000      1.94480E-03
  62.000      2.16570E-03
  63.000      2.13570E-03
  64.000      2.24340E-03
  65.000      2.21170E-03
  65.800      2.13960E-03
  66.500      2.27530E-03
  67.500      2.33610E-03
  68.500      2.24440E-03
  69.500      2.37270E-03
  70.500      2.27480E-03
  71.600      2.43000E-03
  72.600      2.47160E-03
  73.500      2.49170E-03
  74.500      2.47370E-03
  75.500      2.47090E-03
  76.500      2.42430E-03
  77.500      2.50300E-03
  78.500      2.47670E-03
  79.500      2.53210E-03
  80.500      2.56100E-03
  81.500      2.58720E-03
  82.500      2.61170E-03
  83.500      2.49950E-03
  84.500      2.62530E-03
  85.500      2.60250E-03
  86.500      2.65910E-03
  87.500      2.67920E-03
  88.500      2.67500E-03
  89.500      2.68440E-03
  90.500      2.66620E-03
  91.500      2.07180E-03
  92.500      3.27130E-03
  93.500      4.21410E-03
  94.500      5.17590E-03
  95.500      5.74030E-03
  96.500      6.54450E-03
  97.500      5.10300E-03
  98.500      6.38300E-03
  99.500      5.90020E-03
  100.50      6.27020E-03
  101.50      6.28580E-03
  102.50      5.15740E-03
  103.50      6.33300E-03
  104.50      6.43130E-03
  105.50      6.39490E-03
  106.50      6.19680E-03
  107.50      6.24450E-03
  108.50      5.87410E-03
  109.50      6.18720E-03
  110.50      6.08460E-03
  111.50      6.03870E-03
  112.50      5.89860E-03
  113.50      6.00010E-03
  114.50      5.96760E-03
  115.50      5.84840E-03
  116.50      5.73070E-03
  117.50      5.37740E-03
  118.50      5.64000E-03
  119.50      5.57200E-03
  120.50      5.52350E-03
  121.50      4.50750E-03
  122.50      5.42260E-03
  123.50      5.35770E-03
  124.50      5.30880E-03
  125.50      5.37330E-03
  126.50      5.34950E-03
  127.50      5.31540E-03
  128.50      5.28260E-03
  129.50      5.23820E-03
  130.50      5.16710E-03
  131.50      5.14400E-03
  132.50      5.08510E-03
  133.50      5.06720E-03
  134.50      5.03840E-03
  135.50      4.94420E-03
  136.50      4.85030E-03
  137.50      4.76750E-03
  138.50      4.78650E-03
  139.50      4.71350E-03
  140.50      4.60450E-03
  141.50      4.72580E-03
  142.50      4.62410E-03
  143.50      4.65500E-03
  144.20      4.57100E-03
  144.70      4.56430E-03
  145.50      4.51500E-03
  146.50      4.49850E-03
  147.50      4.48250E-03
  148.50      4.49740E-03
  149.50      4.44370E-03
  150.50      4.42950E-03
  151.20      4.42290E-03
  151.70      4.37130E-03
  152.50      4.35910E-03
  153.50      4.24870E-03
  154.50      4.00620E-03
  155.50      4.01950E-03
  156.50      4.13080E-03
  157.50      4.14420E-03
  158.50      4.11060E-03
  159.50      4.08690E-03
  160.50      4.00170E-03
  161.50      3.96390E-03
  162.50      3.93240E-03
  163.50      3.86680E-03
  164.50      3.71120E-03
  165.50      3.90910E-03
  166.50      3.89340E-03
  167.20      3.81300E-03
  167.70      3.88450E-03
  168.50      3.85800E-03
  169.50      3.83610E-03
  170.50      3.79300E-03
  171.50      3.70480E-03
  172.50      3.70490E-03
  173.50      3.73480E-03
  174.50      3.70020E-03
  175.50      3.66270E-03
  176.50      3.64880E-03
  177.50      3.62450E-03
  178.50      3.60620E-03
  179.50      3.56900E-03
  180.50      3.54720E-03
  181.50      3.52210E-03
  182.50      3.49480E-03
  183.50      3.47530E-03
  184.50      3.45030E-03
  185.50      3.42260E-03
  186.50      3.39880E-03
  187.50      3.37200E-03
  188.50      3.34600E-03
  189.50      3.33600E-03
  190.50      3.31320E-03
  191.50      3.28900E-03
  192.50      3.23700E-03
  193.50      3.24510E-03
  194.50      3.22320E-03
  195.50      3.19460E-03
  196.70      3.17310E-03
  197.60      3.15200E-03
  198.40      3.13720E-03
  199.50      3.11240E-03
  200.50      3.09280E-03
  201.50      3.07150E-03
  202.50      3.05050E-03
  203.50      3.02890E-03
  204.50      3.00250E-03
  205.50      2.30530E-03
  206.50      2.22440E-03
  207.40      2.26030E-03
  207.80      2.30540E-03
  208.50      2.42970E-03
  209.50      2.69870E-03
  210.50      2.86460E-03
  211.50      2.87740E-03
  212.50      2.85650E-03
  213.50      2.83470E-03
  214.50      2.82040E-03
  215.50      2.84600E-03
  216.50      2.74220E-03
  217.50      2.83380E-03
  218.50      2.71470E-03
  219.50      2.79860E-03
  220.50      2.78710E-03
  221.50      2.65550E-03
  222.50      2.75090E-03
  223.50      2.73690E-03
  224.50      2.71340E-03
  225.50      2.59150E-03
  226.50      2.68270E-03
  227.50      2.66770E-03
  228.50      2.64620E-03
  229.50      2.61020E-03
  230.50      2.51330E-03
  231.50      2.59180E-03
  232.50      2.58280E-03
  233.50      2.56690E-03
  234.50      2.54940E-03
  235.50      2.53270E-03
  236.50      2.51680E-03
  237.50      2.49820E-03
  238.50      2.38550E-03
  239.50      2.45860E-03
  240.50      2.44920E-03
  241.50      2.43520E-03
  242.50      2.42490E-03
  243.50      2.40870E-03
  244.50      2.39430E-03
  245.50      2.37550E-03
  246.50      2.36490E-03
  247.50      2.35180E-03
  248.50      2.33580E-03
  249.50      2.25940E-03
  250.50      2.29410E-03
  251.30      2.12670E-03
  251.80      2.26840E-03
  252.50      2.27120E-03
  253.50      2.26730E-03
  254.50      2.25440E-03
  255.50      2.24050E-03
  256.50      2.22770E-03
  257.50      2.21420E-03
  258.50      2.20120E-03
  259.50      2.18070E-03
  260.50      2.17580E-03
  261.50      2.16000E-03
  262.50      2.15080E-03
  263.50      2.13840E-03
  264.50      2.12500E-03
  265.50      2.11350E-03
  266.50      2.10080E-03
  267.50      2.08430E-03
  268.50      2.07600E-03
  269.50      2.06310E-03
  270.50      2.05370E-03
  271.50      2.04140E-03
  272.50      2.02780E-03
  273.50      1.94960E-03
  274.50      2.00720E-03
  275.50      1.99580E-03
  276.50      1.98380E-03
  277.50      1.97330E-03
  278.50      1.96130E-03
  279.50      1.94910E-03
  280.50      1.94020E-03
  281.50      1.92970E-03
  282.50      1.91750E-03
  283.50      1.90800E-03
  284.50      1.89840E-03
  285.50      1.88800E-03
  286.50      1.87730E-03
  287.50      1.86730E-03
  288.50      1.85720E-03
  289.50      1.84680E-03
  291.00      1.83180E-03
  293.00      1.81250E-03
  295.00      1.79220E-03
  297.00      1.77310E-03
  299.00      1.75220E-03
  301.00      1.73510E-03
  303.00      1.71440E-03
  305.00      1.69740E-03
  307.00      1.68010E-03
  309.00      1.66470E-03
  311.00      1.64750E-03
  313.00      1.63000E-03
  315.00      1.61470E-03
  317.00      1.59790E-03
  319.00      1.58020E-03
  321.00      1.53890E-03
  323.00      1.55130E-03
  325.00      1.53590E-03
  327.00      1.51640E-03
  329.00      1.50520E-03
  331.00      1.49040E-03
  333.00      1.47610E-03
  335.00      1.46000E-03
  337.00      1.44760E-03
  339.00      1.43360E-03
  341.00      1.41950E-03
  343.00      1.40730E-03
  345.00      1.39240E-03
  347.00      1.38070E-03
  349.00      1.36790E-03
  351.00      1.35540E-03
  353.00      1.34220E-03
  355.00      1.32960E-03
  357.00      1.31810E-03
  359.00      1.30510E-03
  361.00      1.29340E-03
  363.00      1.28090E-03
  364.00      1.25080E-03
  365.00      1.14320E-03
  367.00      1.13450E-03
  369.00      1.12710E-03
  371.00      1.12460E-03
  373.00      1.13030E-03
  375.00      1.14240E-03
  377.00      1.15360E-03
  379.00      1.17270E-03
  381.00      1.19180E-03
  383.00      1.14220E-03
  385.00      1.18810E-03
  387.00      1.19480E-03
  389.00      1.09880E-03
  391.00      1.17910E-03
  393.00      1.16580E-03
  395.00      1.16140E-03
  397.00      1.05810E-03
  399.00      1.14020E-03
  401.00      1.13720E-03
  403.00      1.10670E-03
  405.00      1.12210E-03
  407.00      1.11050E-03
  409.00      1.07080E-03
  411.00      1.01470E-03
  413.00      1.08080E-03
  415.00      1.07490E-03
  417.00      1.06730E-03
  419.00      1.05180E-03
  421.00      1.03260E-03
  423.00      1.04150E-03
  425.00      1.03300E-03
  427.00      1.02460E-03
  429.00      1.01630E-03
  431.00      1.00580E-03
  433.00      9.64230E-04
  435.00      9.29430E-04
  437.00      9.80790E-04
  439.00      9.73420E-04
  441.00      9.68040E-04
  443.00      9.60680E-04
  445.00      9.53150E-04
  447.00      9.38860E-04
  449.00      9.38370E-04
  451.00      9.30710E-04
  453.00      9.21270E-04
  455.00      8.98070E-04
  457.00      9.09800E-04
  459.00      9.02950E-04
  461.00      8.96000E-04
  463.00      8.88350E-04
  465.00      8.78400E-04
  467.00      8.74390E-04
  469.00      8.38510E-04
  471.00      8.61320E-04
  473.00      8.56520E-04
  475.00      8.50170E-04
  477.00      8.43870E-04
  479.00      8.37650E-04
  481.00      8.31460E-04
  483.00      8.23650E-04
  485.00      7.97040E-04
  487.00      7.58650E-04
  489.00      8.04590E-04
  491.00      8.01590E-04
  493.00      7.93080E-04
  495.00      7.90270E-04
  497.00      7.84650E-04
  499.00      7.79100E-04
  501.00      7.72140E-04
  503.00      7.68070E-04
  505.00      7.62390E-04
  507.00      7.57350E-04
  509.00      7.52080E-04
  511.00      7.46850E-04
  513.00      7.41660E-04
  515.00      7.36530E-04
  517.00      7.31470E-04
  519.00      7.26450E-04
  521.00      7.21480E-04
  523.00      7.16570E-04
  525.00      7.11620E-04
  527.00      7.06740E-04
  529.00      7.02110E-04
  531.00      6.97390E-04
  533.00      6.92700E-04
  535.00      6.88090E-04
  537.00      6.83500E-04
  539.00      6.78960E-04
  541.00      6.60130E-04
  543.00      6.69710E-04
  545.00      6.65630E-04
  547.00      6.61260E-04
  549.00      6.56950E-04
  551.00      6.52600E-04
  553.00      6.48440E-04
  555.00      6.44250E-04
  557.00      6.40060E-04
  559.00      6.35570E-04
  561.00      6.31910E-04
  563.00      6.27870E-04
  565.00      6.23870E-04
  567.00      6.19910E-04
  569.00      6.08350E-04
  571.00      5.72800E-04
  573.00      5.69470E-04
  575.00      5.66170E-04
  577.00      5.62950E-04
  579.00      5.59890E-04
  581.00      5.56470E-04
  583.00      5.54830E-04
  585.00      5.53120E-04
  587.00      5.49010E-04
  589.00      5.50830E-04
  591.00      5.50340E-04
  593.00      5.50160E-04
  595.00      5.50390E-04
  597.00      5.50850E-04
  599.00      5.52030E-04
  601.00      5.51620E-04
  603.00      5.51260E-04
  605.00      5.50730E-04
  607.00      5.47470E-04
  609.00      5.44730E-04
  611.00      5.41840E-04
  613.00      5.38890E-04
  615.00      5.36460E-04
  617.00      5.31630E-04
  619.00      5.30000E-04
  621.00      5.27110E-04
  623.00      5.22120E-04
  625.00      5.20440E-04
  627.00      5.17960E-04
  629.00      5.14950E-04
  631.00      5.09280E-04
  633.00      5.08680E-04
  635.00      5.06120E-04
  637.00      5.03230E-04
  639.00      4.99980E-04
  641.00      4.93970E-04
  643.00      4.94600E-04
  645.00      4.91890E-04
  647.00      4.89090E-04
  649.00      4.86360E-04
  651.00      4.82980E-04
  653.00      4.75590E-04
  655.00      4.70460E-04
  657.00      4.43670E-04
  659.00      4.71270E-04
  661.00      4.70330E-04
  663.00      4.67740E-04
  665.00      4.65180E-04
  667.00      4.60570E-04
  669.00      4.53650E-04
  671.00      4.57480E-04
  673.00      4.55090E-04
  675.00      4.52600E-04
  677.00      4.50180E-04
  679.00      4.47750E-04
  681.00      4.45340E-04
  683.00      4.42950E-04
  685.00      4.40570E-04
  687.00      4.38180E-04
  689.00      4.29520E-04
  691.00      4.33100E-04
  693.00      4.31270E-04
  695.00      4.29000E-04
  697.00      4.26740E-04
  699.00      4.24490E-04
  701.00      4.22250E-04
  703.00      4.20000E-04
  705.00      4.17840E-04
  707.00      4.14380E-04
  709.00      4.13530E-04
  711.00      4.11390E-04
  713.00      4.09260E-04
  715.00      4.07160E-04
  717.00      4.00730E-04
  719.00      4.00180E-04
  721.00      4.00930E-04
  723.00      3.98890E-04
  725.00      3.96860E-04
  727.00      3.94850E-04
  729.00      3.92440E-04
  731.00      3.90840E-04
  733.00      3.88900E-04
  735.00      3.86950E-04
  737.00      3.85000E-04
  739.00      3.83080E-04
  741.00      3.81170E-04
  743.00      3.79280E-04
  745.00      3.77370E-04
  747.00      3.75530E-04
  749.00      3.73620E-04
  751.00      3.71830E-04
  753.00      3.70010E-04
  755.00      3.68200E-04
  757.00      3.66390E-04
  759.00      3.58180E-04
  761.00      3.62230E-04
  763.00      3.61080E-04
  765.00      3.59330E-04
  767.00      3.57600E-04
  769.00      3.55840E-04
  771.00      3.54160E-04
  773.00      3.52420E-04
  775.00      3.50790E-04
  777.00      3.49110E-04
  779.00      3.47450E-04
  781.00      3.45800E-04
  783.00      3.44160E-04
  785.00      3.42530E-04
  787.00      3.40930E-04
  789.00      3.39330E-04
  791.00      3.37740E-04
  793.00      3.36160E-04
  795.00      3.34590E-04
  797.00      3.33010E-04
  799.00      3.31480E-04
  801.00      3.29950E-04
  803.00      3.28410E-04
  805.00      3.26900E-04
  807.00      3.25400E-04
  809.00      3.23900E-04
  811.00      3.22420E-04
  813.00      3.20940E-04
  815.00      3.19480E-04
  817.00      3.17990E-04
  819.00      3.15240E-04
  821.00      3.02680E-04
  823.00      2.99430E-04
  825.00      2.99580E-04
  827.00      2.98780E-04
  829.00      2.97540E-04
  831.00      2.96280E-04
  833.00      2.94990E-04
  835.00      2.93740E-04
  837.00      2.92550E-04
  839.00      2.91360E-04
  841.00      2.90230E-04
  843.00      2.89100E-04
  845.00      2.87940E-04
  847.00      2.86960E-04
  849.00      2.86040E-04
  851.00      2.85060E-04
  853.00      2.84200E-04
  855.00      2.83170E-04
  857.00      2.82530E-04
  859.00      2.81370E-04
  861.00      2.80650E-04
  863.00      2.80340E-04
  865.00      2.79240E-04
  867.00      2.77580E-04
  869.00      2.78170E-04
  871.00      2.77810E-04
  873.00      2.76610E-04
  875.00      2.73340E-04
  877.00      2.74750E-04
  879.00      2.75450E-04
  881.00      2.75130E-04
  883.00      2.74280E-04
  885.00      2.70450E-04
  887.00      2.66230E-04
  889.00      2.70640E-04
  891.00      2.71090E-04
  893.00      2.70470E-04
  895.00      2.69700E-04
  897.00      2.68300E-04
  899.00      2.65510E-04
  901.00      2.57200E-04
  903.00      2.59310E-04
  905.00      2.63070E-04
  907.00      2.62800E-04
  909.00      2.62210E-04
  911.00      2.60950E-04
  913.00      2.60440E-04
  915.00      2.59470E-04
  917.00      2.58020E-04
  919.00      2.56190E-04
  921.00      2.52180E-04
  923.00      2.42000E-04
  925.00      2.49520E-04
  927.00      2.51900E-04
  929.00      2.51740E-04
  931.00      2.51000E-04
  933.00      2.49540E-04
  935.00      2.43150E-04
  937.00      2.47010E-04
  939.00      2.46950E-04
  941.00      2.46090E-04
  943.00      2.45120E-04
  945.00      2.44150E-04
  947.00      2.43050E-04
  949.00      2.41870E-04
  951.00      2.39780E-04
  953.00      2.35270E-04
  955.00      2.25130E-04
  957.00      2.34680E-04
  959.00      2.36450E-04
  961.00      2.36270E-04
  963.00      2.35490E-04
  965.00      2.34670E-04
  967.00      2.33760E-04
  969.00      2.32840E-04
  971.00      2.31750E-04
  973.00      2.31020E-04
  975.00      2.29740E-04
  977.00      2.27990E-04
  979.00      2.28360E-04
  981.00      2.27480E-04
  983.00      2.26600E-04
  985.00      2.25740E-04
  987.00      2.24870E-04
  989.00      2.24010E-04
  991.00      2.23160E-04
  993.00      2.22310E-04
  995.00      2.21460E-04
  997.00      2.20620E-04
  999.00      2.19600E-04
  1002.5      2.14270E-04
  1007.5      2.10670E-04
  1012.5      2.10630E-04
  1017.5      2.12270E-04
  1022.5      2.10310E-04
  1027.5      2.08360E-04
  1032.5      2.06330E-04
  1037.5      2.04570E-04
  1042.5      2.01680E-04
  1047.5      2.00880E-04
  1052.5      1.99070E-04
  1057.5      1.97290E-04
  1062.5      1.95530E-04
  1067.5      1.93770E-04
  1072.5      1.92070E-04
  1077.5      1.90380E-04
  1082.5      1.88310E-04
  1087.5      1.86800E-04
  1092.5      1.78700E-04
  1097.5      1.81850E-04
  1102.5      1.82160E-04
  1107.5      1.80680E-04
  1112.5      1.79140E-04
  1117.5      1.77710E-04
  1122.5      1.76200E-04
  1127.5      1.74720E-04
  1132.5      1.73250E-04
  1137.5      1.71800E-04
  1142.5      1.70370E-04
  1147.5      1.68950E-04
  1152.5      1.67550E-04
  1157.5      1.66170E-04
  1162.5      1.62910E-04
  1167.5      1.62110E-04
  1172.5      1.62130E-04
  1177.5      1.60820E-04
  1182.5      1.59520E-04
  1187.5      1.58240E-04
  1192.5      1.56970E-04
  1197.5      1.55540E-04
  1202.5      1.54480E-04
  1207.5      1.53260E-04
  1212.5      1.52050E-04
  1217.5      1.50850E-04
  1222.5      1.49670E-04
  1227.5      1.48510E-04
  1232.5      1.47350E-04
  1237.5      1.46220E-04
  1242.5      1.45090E-04
  1247.5      1.43970E-04
  1252.5      1.42850E-04
  1257.5      1.41780E-04
  1262.5      1.40710E-04
  1267.5      1.39640E-04
  1272.5      1.38590E-04
  1277.5      1.36690E-04
  1282.5      1.31010E-04
  1287.5      1.35110E-04
  1292.5      1.34500E-04
  1297.5      1.33450E-04
  1302.5      1.32520E-04
  1307.5      1.31550E-04
  1312.5      1.30590E-04
  1317.5      1.29640E-04
  1322.5      1.28700E-04
  1327.5      1.27770E-04
  1332.5      1.26840E-04
  1337.5      1.25930E-04
  1342.5      1.25030E-04
  1347.5      1.24140E-04
  1352.5      1.23260E-04
  1357.5      1.22390E-04
  1362.5      1.21520E-04
  1367.5      1.20670E-04
  1372.5      1.19820E-04
  1377.5      1.18980E-04
  1382.5      1.18160E-04
  1387.5      1.17340E-04
  1392.5      1.16530E-04
  1397.5      1.15720E-04
