 Castelli and Kurucz 2004-2012 Atmosphere
 T     34000.     G    4.00000 [-1.0] VTURB=2  L/H=1.25 NOVER NEW ODF          
 Wavelength  Eddington Hnu
   (nm)    (ergs/s/cm2/Hz/sr)
  9.0900      2.80480E-30
  9.3500      1.42500E-29
  9.6100      6.65850E-29
  9.7700      1.65700E-28
  9.9600      4.71810E-28
  10.200      1.68100E-27
  10.380      4.21370E-27
  10.560      1.02640E-26
  10.770      2.80340E-26
  11.040      9.69760E-26
  11.400      4.67420E-25
  11.780      2.24500E-24
  12.130      8.81380E-24
  12.480      3.23090E-23
  12.710      7.32690E-23
  12.840      1.15050E-22
  13.050      2.34420E-22
  13.240      4.38730E-22
  13.390      7.11520E-22
  13.660      1.66140E-21
  13.980      4.37370E-21
  14.330      1.20410E-20
  14.720      3.53400E-20
  15.100      9.62510E-20
  15.520      2.76490E-19
  15.880      6.56570E-19
  16.200      1.37620E-18
  16.600      3.34850E-18
  17.030      8.34650E-18
  17.340      1.57220E-17
  17.680      3.07660E-17
  18.020      5.88090E-17
  18.170      7.77450E-17
  18.610      1.72170E-16
  19.100      4.01090E-16
  19.390      6.49500E-16
  19.840      1.33750E-15
  20.180      2.26280E-15
  20.500      3.65620E-15
  21.050      8.08510E-15
  21.620      1.76670E-14
  21.980      2.83970E-14
  22.300      4.27580E-14
  22.680      6.84530E-14
  23.000      8.35350E-11
  23.400      3.49780E-10
  24.000      6.49600E-10
  24.650      1.18550E-09
  25.240      1.95670E-09
  25.680      1.97660E-09
  26.000      4.22410E-09
  26.400      1.08010E-08
  26.850      1.71290E-08
  27.350      2.18100E-08
  27.850      2.14190E-08
  28.400      4.44110E-08
  29.000      5.58660E-08
  29.600      5.27310E-08
  30.100      4.91910E-08
  30.800      1.37890E-07
  31.800      4.65820E-07
  32.800      6.50220E-07
  33.800      9.34420E-07
  34.800      1.26430E-06
  35.700      1.77340E-06
  36.600      2.55030E-06
  37.500      2.89140E-06
  38.500      3.37510E-06
  39.500      4.31450E-06
  40.500      5.16650E-06
  41.400      5.97640E-06
  42.200      6.54470E-06
  43.000      7.18490E-06
  44.100      8.80790E-06
  45.100      1.01330E-05
  46.000      1.10790E-05
  47.000      1.28070E-05
  48.000      1.49000E-05
  49.000      1.62900E-05
  50.000      1.94100E-05
  50.600      5.25370E-05
  51.200      1.63820E-04
  52.000      1.57890E-04
  53.000      1.52120E-04
  54.000      1.43670E-04
  55.000      1.58910E-04
  56.000      1.95900E-04
  57.000      2.07700E-04
  58.000      2.01120E-04
  59.000      2.16080E-04
  60.000      2.02420E-04
  61.000      2.22850E-04
  62.000      2.57280E-04
  63.000      2.60170E-04
  64.000      2.72430E-04
  65.000      2.77420E-04
  65.800      2.65250E-04
  66.500      2.87630E-04
  67.500      3.10130E-04
  68.500      2.86850E-04
  69.500      3.24850E-04
  70.500      3.06330E-04
  71.600      3.53410E-04
  72.600      3.59710E-04
  73.500      3.72830E-04
  74.500      3.69720E-04
  75.500      3.76900E-04
  76.500      3.82500E-04
  77.500      3.96420E-04
  78.500      4.10040E-04
  79.500      4.20170E-04
  80.500      4.23680E-04
  81.500      4.35070E-04
  82.500      4.50920E-04
  83.500      4.20360E-04
  84.500      4.63070E-04
  85.500      4.70030E-04
  86.500      4.86390E-04
  87.500      4.95300E-04
  88.500      5.04520E-04
  89.500      5.14170E-04
  90.500      5.15770E-04
  91.500      5.41050E-04
  92.500      1.32520E-03
  93.500      1.86540E-03
  94.500      2.32210E-03
  95.500      2.51360E-03
  96.500      2.80480E-03
  97.500      1.97860E-03
  98.500      2.65660E-03
  99.500      2.53270E-03
  100.50      2.60680E-03
  101.50      2.67990E-03
  102.50      2.26680E-03
  103.50      2.68730E-03
  104.50      2.82050E-03
  105.50      2.80670E-03
  106.50      2.69680E-03
  107.50      2.73000E-03
  108.50      2.62150E-03
  109.50      2.75610E-03
  110.50      2.70480E-03
  111.50      2.69660E-03
  112.50      2.55760E-03
  113.50      2.70150E-03
  114.50      2.67660E-03
  115.50      2.62950E-03
  116.50      2.61790E-03
  117.50      2.22810E-03
  118.50      2.51840E-03
  119.50      2.52260E-03
  120.50      2.48310E-03
  121.50      2.06440E-03
  122.50      2.46970E-03
  123.50      2.53920E-03
  124.50      2.50450E-03
  125.50      2.52660E-03
  126.50      2.55240E-03
  127.50      2.55790E-03
  128.50      2.56040E-03
  129.50      2.49220E-03
  130.50      2.49710E-03
  131.50      2.53360E-03
  132.50      2.50300E-03
  133.50      2.47670E-03
  134.50      2.50080E-03
  135.50      2.46580E-03
  136.50      2.44110E-03
  137.50      2.42320E-03
  138.50      2.41370E-03
  139.50      2.29090E-03
  140.50      2.27730E-03
  141.50      2.37620E-03
  142.50      2.27880E-03
  143.50      2.33760E-03
  144.20      2.33530E-03
  144.70      2.32630E-03
  145.50      2.29120E-03
  146.50      2.29460E-03
  147.50      2.28320E-03
  148.50      2.29580E-03
  149.50      2.26170E-03
  150.50      2.26860E-03
  151.20      2.26740E-03
  151.70      2.25130E-03
  152.50      2.22610E-03
  153.50      2.11640E-03
  154.50      1.98280E-03
  155.50      1.99100E-03
  156.50      2.06350E-03
  157.50      2.11360E-03
  158.50      2.12670E-03
  159.50      2.11700E-03
  160.50      2.03510E-03
  161.50      2.00590E-03
  162.50      2.01760E-03
  163.50      2.01780E-03
  164.50      1.96350E-03
  165.50      2.05220E-03
  166.50      2.03570E-03
  167.20      1.97090E-03
  167.70      2.08620E-03
  168.50      2.05530E-03
  169.50      2.04260E-03
  170.50      2.02020E-03
  171.50      1.98390E-03
  172.50      1.96860E-03
  173.50      2.01650E-03
  174.50      2.00240E-03
  175.50      1.97740E-03
  176.50      1.98240E-03
  177.50      1.97550E-03
  178.50      1.97290E-03
  179.50      1.94900E-03
  180.50      1.94940E-03
  181.50      1.93540E-03
  182.50      1.92060E-03
  183.50      1.92800E-03
  184.50      1.90390E-03
  185.50      1.89090E-03
  186.50      1.88220E-03
  187.50      1.86920E-03
  188.50      1.85320E-03
  189.50      1.85190E-03
  190.50      1.85820E-03
  191.50      1.83950E-03
  192.50      1.79770E-03
  193.50      1.82530E-03
  194.50      1.82430E-03
  195.50      1.78670E-03
  196.70      1.79840E-03
  197.60      1.79590E-03
  198.40      1.78360E-03
  199.50      1.76320E-03
  200.50      1.77050E-03
  201.50      1.76270E-03
  202.50      1.75290E-03
  203.50      1.74100E-03
  204.50      1.72960E-03
  205.50      1.41460E-03
  206.50      1.38180E-03
  207.40      1.42680E-03
  207.80      1.45220E-03
  208.50      1.55810E-03
  209.50      1.66400E-03
  210.50      1.67300E-03
  211.50      1.67660E-03
  212.50      1.66310E-03
  213.50      1.65800E-03
  214.50      1.65040E-03
  215.50      1.66180E-03
  216.50      1.61720E-03
  217.50      1.64870E-03
  218.50      1.60960E-03
  219.50      1.63270E-03
  220.50      1.62430E-03
  221.50      1.58360E-03
  222.50      1.60570E-03
  223.50      1.59720E-03
  224.50      1.58740E-03
  225.50      1.55050E-03
  226.50      1.57130E-03
  227.50      1.56340E-03
  228.50      1.55070E-03
  229.50      1.50530E-03
  230.50      1.50900E-03
  231.50      1.52700E-03
  232.50      1.52050E-03
  233.50      1.51230E-03
  234.50      1.50390E-03
  235.50      1.49530E-03
  236.50      1.48730E-03
  237.50      1.47830E-03
  238.50      1.43920E-03
  239.50      1.45620E-03
  240.50      1.45450E-03
  241.50      1.44660E-03
  242.50      1.44040E-03
  243.50      1.43190E-03
  244.50      1.42460E-03
  245.50      1.41560E-03
  246.50      1.40950E-03
  247.50      1.40240E-03
  248.50      1.39310E-03
  249.50      1.28440E-03
  250.50      1.37520E-03
  251.30      1.31580E-03
  251.80      1.35440E-03
  252.50      1.36460E-03
  253.50      1.35920E-03
  254.50      1.35150E-03
  255.50      1.34420E-03
  256.50      1.33800E-03
  257.50      1.33090E-03
  258.50      1.32420E-03
  259.50      1.31540E-03
  260.50      1.31250E-03
  261.50      1.30460E-03
  262.50      1.29890E-03
  263.50      1.29220E-03
  264.50      1.28480E-03
  265.50      1.27820E-03
  266.50      1.27040E-03
  267.50      1.26120E-03
  268.50      1.25940E-03
  269.50      1.24980E-03
  270.50      1.24680E-03
  271.50      1.23970E-03
  272.50      1.23080E-03
  273.50      1.20670E-03
  274.50      1.22220E-03
  275.50      1.21600E-03
  276.50      1.20580E-03
  277.50      1.20430E-03
  278.50      1.19770E-03
  279.50      1.18710E-03
  280.50      1.18500E-03
  281.50      1.18030E-03
  282.50      1.17020E-03
  283.50      1.16670E-03
  284.50      1.16330E-03
  285.50      1.15740E-03
  286.50      1.15120E-03
  287.50      1.14590E-03
  288.50      1.14030E-03
  289.50      1.13470E-03
  291.00      1.12590E-03
  293.00      1.11580E-03
  295.00      1.10150E-03
  297.00      1.09370E-03
  299.00      1.08150E-03
  301.00      1.07200E-03
  303.00      1.06040E-03
  305.00      1.05130E-03
  307.00      1.04280E-03
  309.00      1.03180E-03
  311.00      1.02310E-03
  313.00      1.01370E-03
  315.00      1.00430E-03
  317.00      9.94970E-04
  319.00      9.82830E-04
  321.00      9.68660E-04
  323.00      9.68670E-04
  325.00      9.60200E-04
  327.00      9.49410E-04
  329.00      9.42350E-04
  331.00      9.34250E-04
  333.00      9.25800E-04
  335.00      9.15980E-04
  337.00      9.09360E-04
  339.00      9.02010E-04
  341.00      8.94000E-04
  343.00      8.85000E-04
  345.00      8.75360E-04
  347.00      8.69480E-04
  349.00      8.62170E-04
  351.00      8.55690E-04
  353.00      8.48190E-04
  355.00      8.40780E-04
  357.00      8.35740E-04
  359.00      8.25940E-04
  361.00      8.19670E-04
  363.00      8.11750E-04
  364.00      8.04050E-04
  365.00      7.64520E-04
  367.00      7.59730E-04
  369.00      7.54470E-04
  371.00      7.48110E-04
  373.00      7.42720E-04
  375.00      7.56490E-04
  377.00      7.58210E-04
  379.00      7.73950E-04
  381.00      7.91100E-04
  383.00      7.41720E-04
  385.00      7.95110E-04
  387.00      7.94270E-04
  389.00      7.24390E-04
  391.00      7.87840E-04
  393.00      7.76760E-04
  395.00      7.74850E-04
  397.00      6.98430E-04
  399.00      7.62640E-04
  401.00      7.56860E-04
  403.00      7.37350E-04
  405.00      7.47970E-04
  407.00      7.39830E-04
  409.00      7.17800E-04
  411.00      6.72200E-04
  413.00      7.20580E-04
  415.00      7.15480E-04
  417.00      7.12850E-04
  419.00      7.06560E-04
  421.00      6.97320E-04
  423.00      6.97310E-04
  425.00      6.91460E-04
  427.00      6.85670E-04
  429.00      6.80910E-04
  431.00      6.74710E-04
  433.00      6.51030E-04
  435.00      6.19510E-04
  437.00      6.59660E-04
  439.00      6.49480E-04
  441.00      6.49960E-04
  443.00      6.45430E-04
  445.00      6.41250E-04
  447.00      6.26460E-04
  449.00      6.31690E-04
  451.00      6.26590E-04
  453.00      6.22250E-04
  455.00      6.12630E-04
  457.00      6.13720E-04
  459.00      6.08830E-04
  461.00      6.04570E-04
  463.00      5.99240E-04
  465.00      5.88230E-04
  467.00      5.90960E-04
  469.00      5.75150E-04
  471.00      5.79520E-04
  473.00      5.79620E-04
  475.00      5.75460E-04
  477.00      5.71520E-04
  479.00      5.67520E-04
  481.00      5.63480E-04
  483.00      5.59130E-04
  485.00      5.43480E-04
  487.00      5.10290E-04
  489.00      5.47070E-04
  491.00      5.44120E-04
  493.00      5.35090E-04
  495.00      5.36570E-04
  497.00      5.33220E-04
  499.00      5.29610E-04
  501.00      5.22710E-04
  503.00      5.22350E-04
  505.00      5.17700E-04
  507.00      5.15460E-04
  509.00      5.12020E-04
  511.00      5.08610E-04
  513.00      5.05200E-04
  515.00      5.01840E-04
  517.00      4.98510E-04
  519.00      4.95260E-04
  521.00      4.92030E-04
  523.00      4.88810E-04
  525.00      4.85490E-04
  527.00      4.82320E-04
  529.00      4.79330E-04
  531.00      4.76230E-04
  533.00      4.73160E-04
  535.00      4.70120E-04
  537.00      4.67110E-04
  539.00      4.64110E-04
  541.00      4.57080E-04
  543.00      4.58250E-04
  545.00      4.55350E-04
  547.00      4.52470E-04
  549.00      4.49620E-04
  551.00      4.46770E-04
  553.00      4.44010E-04
  555.00      4.41250E-04
  557.00      4.38480E-04
  559.00      4.35520E-04
  561.00      4.33090E-04
  563.00      4.30420E-04
  565.00      4.27780E-04
  567.00      4.25120E-04
  569.00      4.19560E-04
  571.00      4.08410E-04
  573.00      4.06070E-04
  575.00      4.03680E-04
  577.00      4.01450E-04
  579.00      3.99230E-04
  581.00      3.97090E-04
  583.00      3.95340E-04
  585.00      3.94050E-04
  587.00      3.86790E-04
  589.00      3.91220E-04
  591.00      3.90150E-04
  593.00      3.89030E-04
  595.00      3.88060E-04
  597.00      3.87050E-04
  599.00      3.85940E-04
  601.00      3.84300E-04
  603.00      3.82050E-04
  605.00      3.79840E-04
  607.00      3.77660E-04
  609.00      3.75490E-04
  611.00      3.73290E-04
  613.00      3.71150E-04
  615.00      3.69030E-04
  617.00      3.66690E-04
  619.00      3.64860E-04
  621.00      3.62790E-04
  623.00      3.60360E-04
  625.00      3.58680E-04
  627.00      3.56670E-04
  629.00      3.54670E-04
  631.00      3.52120E-04
  633.00      3.50700E-04
  635.00      3.48750E-04
  637.00      3.46810E-04
  639.00      3.44890E-04
  641.00      3.42290E-04
  643.00      3.41090E-04
  645.00      3.39210E-04
  647.00      3.37310E-04
  649.00      3.35480E-04
  651.00      3.33670E-04
  653.00      3.30440E-04
  655.00      3.25940E-04
  657.00      3.03490E-04
  659.00      3.25790E-04
  661.00      3.24720E-04
  663.00      3.22990E-04
  665.00      3.21320E-04
  667.00      3.17690E-04
  669.00      3.15000E-04
  671.00      3.16080E-04
  673.00      3.14460E-04
  675.00      3.12810E-04
  677.00      3.11220E-04
  679.00      3.09570E-04
  681.00      3.07960E-04
  683.00      3.06350E-04
  685.00      3.04750E-04
  687.00      3.03160E-04
  689.00      3.00400E-04
  691.00      2.99990E-04
  693.00      2.98480E-04
  695.00      2.96940E-04
  697.00      2.95410E-04
  699.00      2.93890E-04
  701.00      2.92370E-04
  703.00      2.90800E-04
  705.00      2.89390E-04
  707.00      2.85260E-04
  709.00      2.86490E-04
  711.00      2.85040E-04
  713.00      2.83600E-04
  715.00      2.82180E-04
  717.00      2.79910E-04
  719.00      2.78990E-04
  721.00      2.77960E-04
  723.00      2.76470E-04
  725.00      2.75190E-04
  727.00      2.73840E-04
  729.00      2.71210E-04
  731.00      2.71120E-04
  733.00      2.69810E-04
  735.00      2.68480E-04
  737.00      2.67170E-04
  739.00      2.65860E-04
  741.00      2.64570E-04
  743.00      2.63280E-04
  745.00      2.62010E-04
  747.00      2.60740E-04
  749.00      2.59400E-04
  751.00      2.58200E-04
  753.00      2.57000E-04
  755.00      2.55770E-04
  757.00      2.54540E-04
  759.00      2.52130E-04
  761.00      2.52090E-04
  763.00      2.50920E-04
  765.00      2.49730E-04
  767.00      2.48560E-04
  769.00      2.47340E-04
  771.00      2.46200E-04
  773.00      2.45000E-04
  775.00      2.43910E-04
  777.00      2.42770E-04
  779.00      2.41640E-04
  781.00      2.40460E-04
  783.00      2.39400E-04
  785.00      2.38390E-04
  787.00      2.37270E-04
  789.00      2.36150E-04
  791.00      2.35110E-04
  793.00      2.34030E-04
  795.00      2.32960E-04
  797.00      2.31840E-04
  799.00      2.30830E-04
  801.00      2.29780E-04
  803.00      2.28710E-04
  805.00      2.27660E-04
  807.00      2.26650E-04
  809.00      2.25480E-04
  811.00      2.24450E-04
  813.00      2.23610E-04
  815.00      2.22410E-04
  817.00      2.21610E-04
  819.00      2.20200E-04
  821.00      2.16420E-04
  823.00      2.14980E-04
  825.00      2.14710E-04
  827.00      2.13480E-04
  829.00      2.12910E-04
  831.00      2.12030E-04
  833.00      2.11040E-04
  835.00      2.09740E-04
  837.00      2.09150E-04
  839.00      2.08390E-04
  841.00      2.07560E-04
  843.00      2.06640E-04
  845.00      2.05280E-04
  847.00      2.04930E-04
  849.00      2.04080E-04
  851.00      2.02980E-04
  853.00      2.02590E-04
  855.00      2.00750E-04
  857.00      2.01980E-04
  859.00      1.98490E-04
  861.00      1.98270E-04
  863.00      2.00440E-04
  865.00      1.97990E-04
  867.00      1.92380E-04
  869.00      1.98350E-04
  871.00      1.98650E-04
  873.00      1.96040E-04
  875.00      1.86560E-04
  877.00      1.93390E-04
  879.00      1.96180E-04
  881.00      1.95650E-04
  883.00      1.94610E-04
  885.00      1.88580E-04
  887.00      1.80700E-04
  889.00      1.91340E-04
  891.00      1.91780E-04
  893.00      1.91190E-04
  895.00      1.90670E-04
  897.00      1.89730E-04
  899.00      1.87070E-04
  901.00      1.75460E-04
  903.00      1.80680E-04
  905.00      1.85990E-04
  907.00      1.85020E-04
  909.00      1.85050E-04
  911.00      1.84540E-04
  913.00      1.83870E-04
  915.00      1.83130E-04
  917.00      1.82150E-04
  919.00      1.81220E-04
  921.00      1.77180E-04
  923.00      1.64900E-04
  925.00      1.76040E-04
  927.00      1.78200E-04
  929.00      1.78010E-04
  931.00      1.76950E-04
  933.00      1.76590E-04
  935.00      1.74550E-04
  937.00      1.75130E-04
  939.00      1.74510E-04
  941.00      1.73810E-04
  943.00      1.73140E-04
  945.00      1.72460E-04
  947.00      1.71280E-04
  949.00      1.71090E-04
  951.00      1.69050E-04
  953.00      1.65410E-04
  955.00      1.54470E-04
  957.00      1.66120E-04
  959.00      1.67390E-04
  961.00      1.66910E-04
  963.00      1.66070E-04
  965.00      1.65850E-04
  967.00      1.65210E-04
  969.00      1.64520E-04
  971.00      1.63230E-04
  973.00      1.63260E-04
  975.00      1.62680E-04
  977.00      1.61900E-04
  979.00      1.61450E-04
  981.00      1.60830E-04
  983.00      1.60220E-04
  985.00      1.59610E-04
  987.00      1.59010E-04
  989.00      1.58400E-04
  991.00      1.57760E-04
  993.00      1.57210E-04
  995.00      1.56620E-04
  997.00      1.56030E-04
  999.00      1.55450E-04
  1002.5      1.51000E-04
  1007.5      1.48240E-04
  1012.5      1.50390E-04
  1017.5      1.50200E-04
  1022.5      1.48790E-04
  1027.5      1.47470E-04
  1032.5      1.45800E-04
  1037.5      1.44810E-04
  1042.5      1.43400E-04
  1047.5      1.42230E-04
  1052.5      1.40960E-04
  1057.5      1.39710E-04
  1062.5      1.38480E-04
  1067.5      1.37140E-04
  1072.5      1.36060E-04
  1077.5      1.34870E-04
  1082.5      1.32850E-04
  1087.5      1.32450E-04
  1092.5      1.25340E-04
  1097.5      1.28970E-04
  1102.5      1.28830E-04
  1107.5      1.28040E-04
  1112.5      1.26980E-04
  1117.5      1.25920E-04
  1122.5      1.24830E-04
  1127.5      1.23820E-04
  1132.5      1.22790E-04
  1137.5      1.21770E-04
  1142.5      1.20760E-04
  1147.5      1.19770E-04
  1152.5      1.18790E-04
  1157.5      1.17820E-04
  1162.5      1.16500E-04
  1167.5      1.15750E-04
  1172.5      1.14990E-04
  1177.5      1.14060E-04
  1182.5      1.13150E-04
  1187.5      1.12250E-04
  1192.5      1.11360E-04
  1197.5      1.09890E-04
  1202.5      1.09610E-04
  1207.5      1.08750E-04
  1212.5      1.07890E-04
  1217.5      1.07060E-04
  1222.5      1.06230E-04
  1227.5      1.05410E-04
  1232.5      1.04600E-04
  1237.5      1.03800E-04
  1242.5      1.03000E-04
  1247.5      1.02220E-04
  1252.5      1.01340E-04
  1257.5      1.00680E-04
  1262.5      9.99230E-05
  1267.5      9.91750E-05
  1272.5      9.84330E-05
  1277.5      9.67970E-05
  1282.5      9.25120E-05
  1287.5      9.60400E-05
  1292.5      9.55530E-05
  1297.5      9.45310E-05
  1302.5      9.41590E-05
  1307.5      9.34760E-05
  1312.5      9.27990E-05
  1317.5      9.21280E-05
  1322.5      9.14650E-05
  1327.5      9.08090E-05
  1332.5      9.01600E-05
  1337.5      8.95170E-05
  1342.5      8.88430E-05
  1347.5      8.82530E-05
  1352.5      8.76300E-05
  1357.5      8.70160E-05
  1362.5      8.64050E-05
  1367.5      8.58050E-05
  1372.5      8.52040E-05
  1377.5      8.46180E-05
  1382.5      8.40340E-05
  1387.5      8.34560E-05
  1392.5      8.28830E-05
  1397.5      8.23170E-05
