 Castelli and Kurucz 2004-2012 Atmosphere
 T     34000.     G    5.00000 [-1.0] VTURB=2  L/H=1.25 NOVER NEW ODF          
 Wavelength  Eddington Hnu
   (nm)    (ergs/s/cm2/Hz/sr)
  9.0900      2.59520E-30
  9.3500      1.37040E-29
  9.6100      6.63350E-29
  9.7700      1.68190E-28
  9.9600      4.89040E-28
  10.200      1.78330E-27
  10.380      4.53700E-27
  10.560      1.11970E-26
  10.770      3.09790E-26
  11.040      1.08570E-25
  11.400      5.29580E-25
  11.780      2.56000E-24
  12.130      1.00660E-23
  12.480      3.68280E-23
  12.710      8.32860E-23
  12.840      1.30510E-22
  13.050      2.64900E-22
  13.240      4.93740E-22
  13.390      7.97850E-22
  13.660      1.84890E-21
  13.980      4.81660E-21
  14.330      1.31300E-20
  14.720      3.80910E-20
  15.100      1.02350E-19
  15.520      2.89620E-19
  15.880      6.78720E-19
  16.200      1.40630E-18
  16.600      3.37160E-18
  17.030      8.27120E-18
  17.340      1.54050E-17
  17.680      2.97750E-17
  18.020      5.62350E-17
  18.170      7.39450E-17
  18.610      1.61300E-16
  19.100      3.69850E-16
  19.390      5.93410E-16
  19.840      1.20510E-15
  20.180      2.01850E-15
  20.500      3.23280E-15
  21.050      7.04500E-15
  21.620      1.51850E-14
  21.980      2.42130E-14
  22.300      3.62190E-14
  22.680      5.75650E-14
  23.000      2.35030E-11
  23.400      1.13530E-10
  24.000      2.36480E-10
  24.650      4.34120E-10
  25.240      7.03610E-10
  25.680      7.56260E-10
  26.000      1.41040E-09
  26.400      2.12020E-09
  26.850      2.98440E-09
  27.350      3.89400E-09
  27.850      4.72880E-09
  28.400      8.32500E-09
  29.000      1.12270E-08
  29.600      1.39540E-08
  30.100      1.55080E-08
  30.800      2.56670E-08
  31.800      5.64110E-08
  32.800      7.87130E-08
  33.800      1.21710E-07
  34.800      1.75750E-07
  35.700      2.43040E-07
  36.600      3.46660E-07
  37.500      4.34860E-07
  38.500      5.90960E-07
  39.500      7.82830E-07
  40.500      9.93870E-07
  41.400      1.24840E-06
  42.200      1.45960E-06
  43.000      1.72750E-06
  44.100      2.19680E-06
  45.100      2.68100E-06
  46.000      3.11820E-06
  47.000      3.79070E-06
  48.000      4.52590E-06
  49.000      5.26920E-06
  50.000      6.33570E-06
  50.600      1.93270E-05
  51.200      8.06520E-05
  52.000      7.94350E-05
  53.000      8.09990E-05
  54.000      7.54070E-05
  55.000      8.74260E-05
  56.000      9.97970E-05
  57.000      1.05680E-04
  58.000      1.01750E-04
  59.000      1.11030E-04
  60.000      1.09730E-04
  61.000      1.17910E-04
  62.000      1.30760E-04
  63.000      1.34250E-04
  64.000      1.36320E-04
  65.000      1.43410E-04
  65.800      1.42760E-04
  66.500      1.49700E-04
  67.500      1.56560E-04
  68.500      1.51210E-04
  69.500      1.69500E-04
  70.500      1.67020E-04
  71.600      1.84180E-04
  72.600      1.87730E-04
  73.500      1.95170E-04
  74.500      1.99720E-04
  75.500      2.04770E-04
  76.500      2.10300E-04
  77.500      2.17420E-04
  78.500      2.27900E-04
  79.500      2.32890E-04
  80.500      2.37130E-04
  81.500      2.44010E-04
  82.500      2.53850E-04
  83.500      2.43730E-04
  84.500      2.64470E-04
  85.500      2.70580E-04
  86.500      2.80240E-04
  87.500      2.87460E-04
  88.500      2.95100E-04
  89.500      3.02820E-04
  90.500      3.05810E-04
  91.500      3.11180E-04
  92.500      7.90130E-04
  93.500      1.31590E-03
  94.500      2.20720E-03
  95.500      2.58090E-03
  96.500      3.30380E-03
  97.500      1.78130E-03
  98.500      3.32460E-03
  99.500      3.07270E-03
  100.50      3.29010E-03
  101.50      3.25690E-03
  102.50      1.98230E-03
  103.50      3.18190E-03
  104.50      3.51190E-03
  105.50      3.48530E-03
  106.50      3.25880E-03
  107.50      3.33820E-03
  108.50      3.07850E-03
  109.50      3.35980E-03
  110.50      3.27430E-03
  111.50      3.26110E-03
  112.50      3.03410E-03
  113.50      3.23580E-03
  114.50      3.14180E-03
  115.50      3.12790E-03
  116.50      3.09800E-03
  117.50      2.57940E-03
  118.50      2.96680E-03
  119.50      2.94450E-03
  120.50      2.80280E-03
  121.50      1.78580E-03
  122.50      2.77650E-03
  123.50      2.94050E-03
  124.50      2.89630E-03
  125.50      2.91930E-03
  126.50      2.94010E-03
  127.50      2.93660E-03
  128.50      2.92970E-03
  129.50      2.79750E-03
  130.50      2.82640E-03
  131.50      2.87440E-03
  132.50      2.81450E-03
  133.50      2.77400E-03
  134.50      2.79360E-03
  135.50      2.77450E-03
  136.50      2.73110E-03
  137.50      2.71520E-03
  138.50      2.68610E-03
  139.50      2.50080E-03
  140.50      2.51110E-03
  141.50      2.61530E-03
  142.50      2.51260E-03
  143.50      2.56980E-03
  144.20      2.57630E-03
  144.70      2.55930E-03
  145.50      2.52230E-03
  146.50      2.50960E-03
  147.50      2.48500E-03
  148.50      2.49180E-03
  149.50      2.45470E-03
  150.50      2.43020E-03
  151.20      2.42210E-03
  151.70      2.41000E-03
  152.50      2.38020E-03
  153.50      2.25150E-03
  154.50      2.15530E-03
  155.50      2.14570E-03
  156.50      2.20370E-03
  157.50      2.23970E-03
  158.50      2.25620E-03
  159.50      2.24380E-03
  160.50      2.15960E-03
  161.50      2.11800E-03
  162.50      2.13750E-03
  163.50      2.12910E-03
  164.50      2.06370E-03
  165.50      2.15740E-03
  166.50      2.14200E-03
  167.20      2.08400E-03
  167.70      2.18220E-03
  168.50      2.14910E-03
  169.50      2.12790E-03
  170.50      2.10060E-03
  171.50      2.06390E-03
  172.50      2.03820E-03
  173.50      2.08200E-03
  174.50      2.06460E-03
  175.50      2.04120E-03
  176.50      2.03020E-03
  177.50      2.02050E-03
  178.50      2.01900E-03
  179.50      2.00010E-03
  180.50      1.99770E-03
  181.50      1.97560E-03
  182.50      1.96100E-03
  183.50      1.96070E-03
  184.50      1.91610E-03
  185.50      1.89920E-03
  186.50      1.89770E-03
  187.50      1.89190E-03
  188.50      1.85450E-03
  189.50      1.83450E-03
  190.50      1.85590E-03
  191.50      1.82360E-03
  192.50      1.78100E-03
  193.50      1.81210E-03
  194.50      1.81950E-03
  195.50      1.76270E-03
  196.70      1.78660E-03
  197.60      1.79470E-03
  198.40      1.76620E-03
  199.50      1.73580E-03
  200.50      1.75510E-03
  201.50      1.75100E-03
  202.50      1.74380E-03
  203.50      1.72250E-03
  204.50      1.71100E-03
  205.50      1.47960E-03
  206.50      1.44480E-03
  207.40      1.46240E-03
  207.80      1.45500E-03
  208.50      1.49050E-03
  209.50      1.55220E-03
  210.50      1.63440E-03
  211.50      1.64890E-03
  212.50      1.63740E-03
  213.50      1.62920E-03
  214.50      1.61770E-03
  215.50      1.61600E-03
  216.50      1.58630E-03
  217.50      1.60220E-03
  218.50      1.57120E-03
  219.50      1.58530E-03
  220.50      1.57690E-03
  221.50      1.53970E-03
  222.50      1.55670E-03
  223.50      1.54700E-03
  224.50      1.53670E-03
  225.50      1.50000E-03
  226.50      1.51920E-03
  227.50      1.51040E-03
  228.50      1.49710E-03
  229.50      1.45220E-03
  230.50      1.45430E-03
  231.50      1.47100E-03
  232.50      1.46390E-03
  233.50      1.45460E-03
  234.50      1.44680E-03
  235.50      1.43780E-03
  236.50      1.42930E-03
  237.50      1.41960E-03
  238.50      1.38350E-03
  239.50      1.39840E-03
  240.50      1.39480E-03
  241.50      1.38620E-03
  242.50      1.37880E-03
  243.50      1.36930E-03
  244.50      1.36210E-03
  245.50      1.35370E-03
  246.50      1.34670E-03
  247.50      1.33870E-03
  248.50      1.33030E-03
  249.50      1.24860E-03
  250.50      1.31060E-03
  251.30      1.25670E-03
  251.80      1.29140E-03
  252.50      1.30030E-03
  253.50      1.29360E-03
  254.50      1.28320E-03
  255.50      1.27670E-03
  256.50      1.27110E-03
  257.50      1.26390E-03
  258.50      1.25710E-03
  259.50      1.24960E-03
  260.50      1.24690E-03
  261.50      1.23940E-03
  262.50      1.23290E-03
  263.50      1.22600E-03
  264.50      1.21850E-03
  265.50      1.21140E-03
  266.50      1.20200E-03
  267.50      1.19340E-03
  268.50      1.19240E-03
  269.50      1.17880E-03
  270.50      1.17800E-03
  271.50      1.17160E-03
  272.50      1.15940E-03
  273.50      1.14280E-03
  274.50      1.15340E-03
  275.50      1.14750E-03
  276.50      1.13380E-03
  277.50      1.13590E-03
  278.50      1.12930E-03
  279.50      1.11590E-03
  280.50      1.11540E-03
  281.50      1.11180E-03
  282.50      1.09760E-03
  283.50      1.09260E-03
  284.50      1.09440E-03
  285.50      1.08810E-03
  286.50      1.08220E-03
  287.50      1.07680E-03
  288.50      1.07130E-03
  289.50      1.06570E-03
  291.00      1.05680E-03
  293.00      1.04670E-03
  295.00      1.02920E-03
  297.00      1.02510E-03
  299.00      1.01370E-03
  301.00      1.00340E-03
  303.00      9.93230E-04
  305.00      9.84060E-04
  307.00      9.75330E-04
  309.00      9.63060E-04
  311.00      9.55870E-04
  313.00      9.46470E-04
  315.00      9.36950E-04
  317.00      9.27880E-04
  319.00      9.13020E-04
  321.00      9.05330E-04
  323.00      9.01760E-04
  325.00      8.93560E-04
  327.00      8.84780E-04
  329.00      8.76350E-04
  331.00      8.69070E-04
  333.00      8.60510E-04
  335.00      8.51370E-04
  337.00      8.44830E-04
  339.00      8.37730E-04
  341.00      8.30080E-04
  343.00      8.20290E-04
  345.00      8.10480E-04
  347.00      8.05010E-04
  349.00      7.97860E-04
  351.00      7.91320E-04
  353.00      7.85130E-04
  355.00      7.78060E-04
  357.00      7.75130E-04
  359.00      7.63010E-04
  361.00      7.59260E-04
  363.00      7.49950E-04
  364.00      7.50240E-04
  365.00      7.32140E-04
  367.00      7.28250E-04
  369.00      7.22730E-04
  371.00      7.09500E-04
  373.00      7.00860E-04
  375.00      6.95680E-04
  377.00      6.81510E-04
  379.00      6.98500E-04
  381.00      7.22170E-04
  383.00      6.55960E-04
  385.00      7.41050E-04
  387.00      7.53920E-04
  389.00      6.32670E-04
  391.00      7.51730E-04
  393.00      7.51630E-04
  395.00      7.39910E-04
  397.00      6.09320E-04
  399.00      7.24320E-04
  401.00      7.28600E-04
  403.00      6.96860E-04
  405.00      7.24000E-04
  407.00      7.11550E-04
  409.00      6.62300E-04
  411.00      6.00050E-04
  413.00      6.89210E-04
  415.00      6.89140E-04
  417.00      6.89760E-04
  419.00      6.83440E-04
  421.00      6.77600E-04
  423.00      6.74430E-04
  425.00      6.67910E-04
  427.00      6.60580E-04
  429.00      6.55850E-04
  431.00      6.46040E-04
  433.00      5.94210E-04
  435.00      5.55830E-04
  437.00      6.29580E-04
  439.00      6.16090E-04
  441.00      6.25190E-04
  443.00      6.20860E-04
  445.00      6.17090E-04
  447.00      5.88210E-04
  449.00      6.07160E-04
  451.00      6.03190E-04
  453.00      5.98640E-04
  455.00      5.90970E-04
  457.00      5.89680E-04
  459.00      5.84650E-04
  461.00      5.80310E-04
  463.00      5.75300E-04
  465.00      5.64910E-04
  467.00      5.66870E-04
  469.00      5.55870E-04
  471.00      5.52550E-04
  473.00      5.55490E-04
  475.00      5.51230E-04
  477.00      5.47660E-04
  479.00      5.43610E-04
  481.00      5.38380E-04
  483.00      5.31010E-04
  485.00      4.95890E-04
  487.00      4.55740E-04
  489.00      5.17730E-04
  491.00      5.18020E-04
  493.00      5.04610E-04
  495.00      5.12460E-04
  497.00      5.09530E-04
  499.00      5.05900E-04
  501.00      4.96680E-04
  503.00      4.98690E-04
  505.00      4.93170E-04
  507.00      4.91920E-04
  509.00      4.88470E-04
  511.00      4.85090E-04
  513.00      4.81680E-04
  515.00      4.78350E-04
  517.00      4.75110E-04
  519.00      4.71940E-04
  521.00      4.68760E-04
  523.00      4.65600E-04
  525.00      4.62380E-04
  527.00      4.59270E-04
  529.00      4.56260E-04
  531.00      4.53210E-04
  533.00      4.50220E-04
  535.00      4.47210E-04
  537.00      4.44270E-04
  539.00      4.41310E-04
  541.00      4.36200E-04
  543.00      4.35580E-04
  545.00      4.32740E-04
  547.00      4.29910E-04
  549.00      4.27130E-04
  551.00      4.24390E-04
  553.00      4.21650E-04
  555.00      4.18960E-04
  557.00      4.16270E-04
  559.00      4.13550E-04
  561.00      4.10990E-04
  563.00      4.08390E-04
  565.00      4.05800E-04
  567.00      4.03140E-04
  569.00      3.99470E-04
  571.00      3.95410E-04
  573.00      3.93030E-04
  575.00      3.90520E-04
  577.00      3.88290E-04
  579.00      3.85920E-04
  581.00      3.83570E-04
  583.00      3.81160E-04
  585.00      3.78940E-04
  587.00      3.66750E-04
  589.00      3.73640E-04
  591.00      3.72500E-04
  593.00      3.70470E-04
  595.00      3.68450E-04
  597.00      3.66570E-04
  599.00      3.64560E-04
  601.00      3.63140E-04
  603.00      3.61040E-04
  605.00      3.58960E-04
  607.00      3.56860E-04
  609.00      3.54760E-04
  611.00      3.52670E-04
  613.00      3.50600E-04
  615.00      3.48480E-04
  617.00      3.46480E-04
  619.00      3.44490E-04
  621.00      3.42500E-04
  623.00      3.40520E-04
  625.00      3.38550E-04
  627.00      3.36600E-04
  629.00      3.34680E-04
  631.00      3.32760E-04
  633.00      3.30870E-04
  635.00      3.28980E-04
  637.00      3.27120E-04
  639.00      3.25270E-04
  641.00      3.23430E-04
  643.00      3.21620E-04
  645.00      3.19810E-04
  647.00      3.17950E-04
  649.00      3.16210E-04
  651.00      3.14130E-04
  653.00      3.10880E-04
  655.00      2.99220E-04
  657.00      2.72430E-04
  659.00      3.04020E-04
  661.00      3.05120E-04
  663.00      3.04250E-04
  665.00      3.02660E-04
  667.00      2.98080E-04
  669.00      2.96420E-04
  671.00      2.97740E-04
  673.00      2.96110E-04
  675.00      2.94580E-04
  677.00      2.93020E-04
  679.00      2.91350E-04
  681.00      2.89890E-04
  683.00      2.88340E-04
  685.00      2.86820E-04
  687.00      2.85300E-04
  689.00      2.83710E-04
  691.00      2.82240E-04
  693.00      2.80820E-04
  695.00      2.79350E-04
  697.00      2.77890E-04
  699.00      2.76440E-04
  701.00      2.75000E-04
  703.00      2.73540E-04
  705.00      2.72150E-04
  707.00      2.67250E-04
  709.00      2.69370E-04
  711.00      2.67980E-04
  713.00      2.66610E-04
  715.00      2.65250E-04
  717.00      2.63790E-04
  719.00      2.62540E-04
  721.00      2.61230E-04
  723.00      2.59530E-04
  725.00      2.58570E-04
  727.00      2.57300E-04
  729.00      2.54310E-04
  731.00      2.54710E-04
  733.00      2.53460E-04
  735.00      2.52200E-04
  737.00      2.50950E-04
  739.00      2.49710E-04
  741.00      2.48470E-04
  743.00      2.47250E-04
  745.00      2.46050E-04
  747.00      2.44790E-04
  749.00      2.43620E-04
  751.00      2.42410E-04
  753.00      2.41280E-04
  755.00      2.40110E-04
  757.00      2.38940E-04
  759.00      2.37610E-04
  761.00      2.36610E-04
  763.00      2.35500E-04
  765.00      2.34370E-04
  767.00      2.33250E-04
  769.00      2.32130E-04
  771.00      2.31030E-04
  773.00      2.29920E-04
  775.00      2.28850E-04
  777.00      2.27760E-04
  779.00      2.26690E-04
  781.00      2.25550E-04
  783.00      2.24570E-04
  785.00      2.23650E-04
  787.00      2.22560E-04
  789.00      2.21510E-04
  791.00      2.20540E-04
  793.00      2.19510E-04
  795.00      2.18500E-04
  797.00      2.17400E-04
  799.00      2.16480E-04
  801.00      2.15490E-04
  803.00      2.14480E-04
  805.00      2.13510E-04
  807.00      2.12520E-04
  809.00      2.11350E-04
  811.00      2.10330E-04
  813.00      2.09570E-04
  815.00      2.08470E-04
  817.00      2.07680E-04
  819.00      2.06410E-04
  821.00      2.04820E-04
  823.00      2.03940E-04
  825.00      2.03260E-04
  827.00      2.01870E-04
  829.00      2.01500E-04
  831.00      2.00690E-04
  833.00      1.99700E-04
  835.00      1.98280E-04
  837.00      1.97810E-04
  839.00      1.97140E-04
  841.00      1.96280E-04
  843.00      1.95360E-04
  845.00      1.93690E-04
  847.00      1.93700E-04
  849.00      1.92620E-04
  851.00      1.91920E-04
  853.00      1.90800E-04
  855.00      1.90020E-04
  857.00      1.89690E-04
  859.00      1.86730E-04
  861.00      1.87230E-04
  863.00      1.87760E-04
  865.00      1.85180E-04
  867.00      1.82540E-04
  869.00      1.85300E-04
  871.00      1.85590E-04
  873.00      1.82230E-04
  875.00      1.76100E-04
  877.00      1.79410E-04
  879.00      1.82850E-04
  881.00      1.82880E-04
  883.00      1.81130E-04
  885.00      1.73610E-04
  887.00      1.68080E-04
  889.00      1.77180E-04
  891.00      1.79320E-04
  893.00      1.79210E-04
  895.00      1.78770E-04
  897.00      1.77390E-04
  899.00      1.72960E-04
  901.00      1.61030E-04
  903.00      1.65210E-04
  905.00      1.72810E-04
  907.00      1.72730E-04
  909.00      1.73650E-04
  911.00      1.73510E-04
  913.00      1.72880E-04
  915.00      1.72060E-04
  917.00      1.70710E-04
  919.00      1.69040E-04
  921.00      1.62370E-04
  923.00      1.49840E-04
  925.00      1.60840E-04
  927.00      1.66030E-04
  929.00      1.66780E-04
  931.00      1.66060E-04
  933.00      1.66220E-04
  935.00      1.65110E-04
  937.00      1.65010E-04
  939.00      1.64360E-04
  941.00      1.63690E-04
  943.00      1.63040E-04
  945.00      1.62290E-04
  947.00      1.60550E-04
  949.00      1.60200E-04
  951.00      1.57180E-04
  953.00      1.50620E-04
  955.00      1.39290E-04
  957.00      1.52060E-04
  959.00      1.56030E-04
  961.00      1.56320E-04
  963.00      1.55720E-04
  965.00      1.56100E-04
  967.00      1.55500E-04
  969.00      1.54790E-04
  971.00      1.53730E-04
  973.00      1.53670E-04
  975.00      1.53090E-04
  977.00      1.52500E-04
  979.00      1.51910E-04
  981.00      1.51320E-04
  983.00      1.50750E-04
  985.00      1.50170E-04
  987.00      1.49590E-04
  989.00      1.49010E-04
  991.00      1.48310E-04
  993.00      1.47890E-04
  995.00      1.47320E-04
  997.00      1.46400E-04
  999.00      1.45500E-04
  1002.5      1.38630E-04
  1007.5      1.35810E-04
  1012.5      1.41340E-04
  1017.5      1.41220E-04
  1022.5      1.39870E-04
  1027.5      1.38630E-04
  1032.5      1.36860E-04
  1037.5      1.36110E-04
  1042.5      1.34880E-04
  1047.5      1.33660E-04
  1052.5      1.32460E-04
  1057.5      1.31270E-04
  1062.5      1.30100E-04
  1067.5      1.28760E-04
  1072.5      1.27810E-04
  1077.5      1.26680E-04
  1082.5      1.24520E-04
  1087.5      1.23740E-04
  1092.5      1.14020E-04
  1097.5      1.18850E-04
  1102.5      1.20460E-04
  1107.5      1.20100E-04
  1112.5      1.19210E-04
  1117.5      1.18200E-04
  1122.5      1.17150E-04
  1127.5      1.16210E-04
  1132.5      1.15230E-04
  1137.5      1.14270E-04
  1142.5      1.13320E-04
  1147.5      1.12380E-04
  1152.5      1.11450E-04
  1157.5      1.10530E-04
  1162.5      1.09540E-04
  1167.5      1.08720E-04
  1172.5      1.07850E-04
  1177.5      1.06980E-04
  1182.5      1.06120E-04
  1187.5      1.05270E-04
  1192.5      1.04430E-04
  1197.5      1.02520E-04
  1202.5      1.02770E-04
  1207.5      1.01960E-04
  1212.5      1.01160E-04
  1217.5      1.00370E-04
  1222.5      9.95850E-05
  1227.5      9.88110E-05
  1232.5      9.80460E-05
  1237.5      9.72890E-05
  1242.5      9.65420E-05
  1247.5      9.58010E-05
  1252.5      9.49060E-05
  1257.5      9.43470E-05
  1262.5      9.36330E-05
  1267.5      9.29280E-05
  1272.5      9.20510E-05
  1277.5      8.96960E-05
  1282.5      8.38940E-05
  1287.5      8.92560E-05
  1292.5      8.93850E-05
  1297.5      8.82820E-05
  1302.5      8.81960E-05
  1307.5      8.75570E-05
  1312.5      8.69180E-05
  1317.5      8.62860E-05
  1322.5      8.56620E-05
  1327.5      8.50430E-05
  1332.5      8.44310E-05
  1337.5      8.38250E-05
  1342.5      8.31750E-05
  1347.5      8.26360E-05
  1352.5      8.20490E-05
  1357.5      8.14700E-05
  1362.5      8.08910E-05
  1367.5      8.03290E-05
  1372.5      7.97620E-05
  1377.5      7.92120E-05
  1382.5      7.86620E-05
  1387.5      7.81180E-05
  1392.5      7.75750E-05
  1397.5      7.70460E-05
