 Castelli and Kurucz 2004-2012 Atmosphere
 T     43000.     G    4.50000 [-1.0] VTURB=2  L/H=1.25 NOVER NEW ODF          
 Wavelength  Eddington Hnu
   (nm)    (ergs/s/cm2/Hz/sr)
  9.0900      3.65880E-22
  9.3500      1.14060E-21
  9.6100      3.34870E-21
  9.7700      6.36360E-21
  9.9600      1.32590E-20
  10.200      3.23450E-20
  10.380      6.16690E-20
  10.560      1.15270E-19
  10.770      2.33450E-19
  11.040      5.58170E-19
  11.400      1.68470E-18
  11.780      5.07730E-18
  12.130      1.32940E-17
  12.480      3.31640E-17
  12.710      5.90450E-17
  12.840      8.11440E-17
  13.050      1.34000E-16
  13.240      2.08540E-16
  13.390      2.93530E-16
  13.660      5.34110E-16
  13.980      1.06110E-15
  14.330      2.17740E-15
  14.720      4.66110E-15
  15.100      9.58500E-15
  15.520      2.03910E-14
  15.880      3.79070E-14
  16.200      6.46290E-14
  16.600      1.22680E-13
  17.030      2.36400E-13
  17.340      3.72640E-13
  17.680      6.06140E-13
  18.020      9.67880E-13
  18.170      1.17600E-12
  18.610      2.10160E-12
  19.100      3.87080E-12
  19.390      5.48990E-12
  19.840      9.24380E-12
  20.180      1.35010E-11
  20.500      1.91220E-11
  21.050      3.39180E-11
  21.620      5.95870E-11
  21.980      8.40050E-11
  22.300      1.12760E-10
  22.680      1.57930E-10
  23.000      3.58110E-08
  23.400      1.63500E-07
  24.000      6.70260E-07
  24.650      5.09210E-06
  25.240      1.59100E-05
  25.680      1.57700E-05
  26.000      3.32960E-05
  26.400      7.63790E-05
  26.850      1.01050E-04
  27.350      1.22070E-04
  27.850      1.06490E-04
  28.400      1.75210E-04
  29.000      2.15490E-04
  29.600      1.70260E-04
  30.100      5.18910E-05
  30.800      1.13390E-04
  31.800      1.30170E-04
  32.800      1.64880E-04
  33.800      1.44860E-04
  34.800      1.55920E-04
  35.700      2.75390E-04
  36.600      3.93430E-04
  37.500      4.56670E-04
  38.500      4.26770E-04
  39.500      5.69750E-04
  40.500      6.89430E-04
  41.400      7.23640E-04
  42.200      7.19300E-04
  43.000      7.05200E-04
  44.100      8.25030E-04
  45.100      8.75100E-04
  46.000      8.43350E-04
  47.000      8.77010E-04
  48.000      9.57070E-04
  49.000      8.91700E-04
  50.000      1.03260E-03
  50.600      9.77230E-04
  51.200      1.27990E-03
  52.000      1.25630E-03
  53.000      1.23340E-03
  54.000      1.14340E-03
  55.000      1.09780E-03
  56.000      1.35540E-03
  57.000      1.43300E-03
  58.000      1.43150E-03
  59.000      1.48270E-03
  60.000      1.42660E-03
  61.000      1.38790E-03
  62.000      1.58750E-03
  63.000      1.56450E-03
  64.000      1.65910E-03
  65.000      1.63820E-03
  65.800      1.57790E-03
  66.500      1.69600E-03
  67.500      1.75480E-03
  68.500      1.68020E-03
  69.500      1.78960E-03
  70.500      1.70730E-03
  71.600      1.85170E-03
  72.600      1.88910E-03
  73.500      1.91060E-03
  74.500      1.89640E-03
  75.500      1.89990E-03
  76.500      1.86020E-03
  77.500      1.93450E-03
  78.500      1.90750E-03
  79.500      1.96830E-03
  80.500      1.99230E-03
  81.500      2.02090E-03
  82.500      2.04560E-03
  83.500      1.94570E-03
  84.500      2.06390E-03
  85.500      2.04890E-03
  86.500      2.10230E-03
  87.500      2.12250E-03
  88.500      2.12340E-03
  89.500      2.13500E-03
  90.500      2.12340E-03
  91.500      1.71040E-03
  92.500      2.88640E-03
  93.500      3.73610E-03
  94.500      4.39210E-03
  95.500      4.80190E-03
  96.500      5.26770E-03
  97.500      4.26360E-03
  98.500      5.08280E-03
  99.500      4.76870E-03
  100.50      4.98350E-03
  101.50      5.03890E-03
  102.50      4.38540E-03
  103.50      5.10590E-03
  104.50      5.17000E-03
  105.50      5.14500E-03
  106.50      5.00960E-03
  107.50      5.04350E-03
  108.50      4.83520E-03
  109.50      5.01740E-03
  110.50      4.94860E-03
  111.50      4.91160E-03
  112.50      4.80250E-03
  113.50      4.90060E-03
  114.50      4.88170E-03
  115.50      4.78910E-03
  116.50      4.71700E-03
  117.50      4.39880E-03
  118.50      4.63530E-03
  119.50      4.59250E-03
  120.50      4.57050E-03
  121.50      3.89670E-03
  122.50      4.50570E-03
  123.50      4.45280E-03
  124.50      4.41130E-03
  125.50      4.46470E-03
  126.50      4.45340E-03
  127.50      4.43340E-03
  128.50      4.41250E-03
  129.50      4.38210E-03
  130.50      4.32490E-03
  131.50      4.31410E-03
  132.50      4.27070E-03
  133.50      4.25980E-03
  134.50      4.24450E-03
  135.50      4.16460E-03
  136.50      4.08910E-03
  137.50      4.02760E-03
  138.50      4.04820E-03
  139.50      3.98530E-03
  140.50      3.89350E-03
  141.50      4.01020E-03
  142.50      3.91890E-03
  143.50      3.95510E-03
  144.20      3.88770E-03
  144.70      3.88440E-03
  145.50      3.84200E-03
  146.50      3.83530E-03
  147.50      3.82510E-03
  148.50      3.84190E-03
  149.50      3.79590E-03
  150.50      3.79080E-03
  151.20      3.79070E-03
  151.70      3.74450E-03
  152.50      3.73660E-03
  153.50      3.63490E-03
  154.50      3.41730E-03
  155.50      3.43260E-03
  156.50      3.53880E-03
  157.50      3.56380E-03
  158.50      3.53960E-03
  159.50      3.52170E-03
  160.50      3.44220E-03
  161.50      3.41220E-03
  162.50      3.38940E-03
  163.50      3.35200E-03
  164.50      3.22380E-03
  165.50      3.38340E-03
  166.50      3.37070E-03
  167.20      3.29560E-03
  167.70      3.37450E-03
  168.50      3.35080E-03
  169.50      3.33530E-03
  170.50      3.29750E-03
  171.50      3.22130E-03
  172.50      3.22570E-03
  173.50      3.25860E-03
  174.50      3.23010E-03
  175.50      3.19770E-03
  176.50      3.18960E-03
  177.50      3.17200E-03
  178.50      3.15770E-03
  179.50      3.12490E-03
  180.50      3.10880E-03
  181.50      3.08870E-03
  182.50      3.06600E-03
  183.50      3.05260E-03
  184.50      3.03200E-03
  185.50      3.00880E-03
  186.50      2.98900E-03
  187.50      2.96640E-03
  188.50      2.94640E-03
  189.50      2.94070E-03
  190.50      2.92260E-03
  191.50      2.90280E-03
  192.50      2.85710E-03
  193.50      2.86700E-03
  194.50      2.84890E-03
  195.50      2.82390E-03
  196.70      2.80720E-03
  197.60      2.79000E-03
  198.40      2.77820E-03
  199.50      2.75750E-03
  200.50      2.74170E-03
  201.50      2.72400E-03
  202.50      2.70650E-03
  203.50      2.68830E-03
  204.50      2.66520E-03
  205.50      2.06230E-03
  206.50      2.00270E-03
  207.40      2.05740E-03
  207.80      2.11210E-03
  208.50      2.26970E-03
  209.50      2.51460E-03
  210.50      2.56840E-03
  211.50      2.56500E-03
  212.50      2.54690E-03
  213.50      2.53040E-03
  214.50      2.51880E-03
  215.50      2.54470E-03
  216.50      2.45790E-03
  217.50      2.52990E-03
  218.50      2.43990E-03
  219.50      2.50000E-03
  220.50      2.48730E-03
  221.50      2.39380E-03
  222.50      2.45590E-03
  223.50      2.44240E-03
  224.50      2.42540E-03
  225.50      2.33990E-03
  226.50      2.39710E-03
  227.50      2.38380E-03
  228.50      2.36560E-03
  229.50      2.33230E-03
  230.50      2.27240E-03
  231.50      2.32180E-03
  232.50      2.31190E-03
  233.50      2.29840E-03
  234.50      2.28330E-03
  235.50      2.26920E-03
  236.50      2.25560E-03
  237.50      2.24060E-03
  238.50      2.15950E-03
  239.50      2.20680E-03
  240.50      2.19790E-03
  241.50      2.18560E-03
  242.50      2.17710E-03
  243.50      2.16310E-03
  244.50      2.15080E-03
  245.50      2.13450E-03
  246.50      2.12550E-03
  247.50      2.11460E-03
  248.50      2.10040E-03
  249.50      2.02230E-03
  250.50      2.07030E-03
  251.30      1.94290E-03
  251.80      2.04510E-03
  252.50      2.04580E-03
  253.50      2.04200E-03
  254.50      2.03110E-03
  255.50      2.01900E-03
  256.50      2.00810E-03
  257.50      1.99620E-03
  258.50      1.98510E-03
  259.50      1.96690E-03
  260.50      1.96330E-03
  261.50      1.94950E-03
  262.50      1.94150E-03
  263.50      1.93100E-03
  264.50      1.91930E-03
  265.50      1.90940E-03
  266.50      1.89830E-03
  267.50      1.88370E-03
  268.50      1.87690E-03
  269.50      1.86560E-03
  270.50      1.85760E-03
  271.50      1.84680E-03
  272.50      1.83600E-03
  273.50      1.77770E-03
  274.50      1.81740E-03
  275.50      1.80720E-03
  276.50      1.79670E-03
  277.50      1.78760E-03
  278.50      1.77700E-03
  279.50      1.76640E-03
  280.50      1.75870E-03
  281.50      1.74950E-03
  282.50      1.73870E-03
  283.50      1.73080E-03
  284.50      1.72230E-03
  285.50      1.71310E-03
  286.50      1.70380E-03
  287.50      1.69490E-03
  288.50      1.68610E-03
  289.50      1.67710E-03
  291.00      1.66390E-03
  293.00      1.64700E-03
  295.00      1.62910E-03
  297.00      1.61230E-03
  299.00      1.59370E-03
  301.00      1.57880E-03
  303.00      1.56020E-03
  305.00      1.54530E-03
  307.00      1.53030E-03
  309.00      1.51680E-03
  311.00      1.50160E-03
  313.00      1.48620E-03
  315.00      1.47290E-03
  317.00      1.45790E-03
  319.00      1.44260E-03
  321.00      1.40900E-03
  323.00      1.41670E-03
  325.00      1.40310E-03
  327.00      1.38540E-03
  329.00      1.37570E-03
  331.00      1.36250E-03
  333.00      1.34990E-03
  335.00      1.33540E-03
  337.00      1.32450E-03
  339.00      1.31210E-03
  341.00      1.29950E-03
  343.00      1.28860E-03
  345.00      1.27520E-03
  347.00      1.26500E-03
  349.00      1.25340E-03
  351.00      1.24220E-03
  353.00      1.23040E-03
  355.00      1.21920E-03
  357.00      1.20900E-03
  359.00      1.19740E-03
  361.00      1.18690E-03
  363.00      1.17570E-03
  364.00      1.14900E-03
  365.00      1.05350E-03
  367.00      1.04570E-03
  369.00      1.04050E-03
  371.00      1.04180E-03
  373.00      1.04930E-03
  375.00      1.06530E-03
  377.00      1.07610E-03
  379.00      1.09120E-03
  381.00      1.10420E-03
  383.00      1.05990E-03
  385.00      1.09970E-03
  387.00      1.10240E-03
  389.00      1.02580E-03
  391.00      1.08820E-03
  393.00      1.07180E-03
  395.00      1.07110E-03
  397.00      9.89440E-04
  399.00      1.05280E-03
  401.00      1.04770E-03
  403.00      1.02120E-03
  405.00      1.03210E-03
  407.00      1.02290E-03
  409.00      9.94760E-04
  411.00      9.46310E-04
  413.00      9.96680E-04
  415.00      9.89430E-04
  417.00      9.82460E-04
  419.00      9.70880E-04
  421.00      9.53880E-04
  423.00      9.59250E-04
  425.00      9.51570E-04
  427.00      9.44010E-04
  429.00      9.36600E-04
  431.00      9.28440E-04
  433.00      8.98310E-04
  435.00      8.67400E-04
  437.00      9.06400E-04
  439.00      8.98090E-04
  441.00      8.92970E-04
  443.00      8.86370E-04
  445.00      8.79600E-04
  447.00      8.67490E-04
  449.00      8.66260E-04
  451.00      8.59300E-04
  453.00      8.51910E-04
  455.00      8.33320E-04
  457.00      8.40410E-04
  459.00      8.34140E-04
  461.00      8.27910E-04
  463.00      8.20940E-04
  465.00      8.11610E-04
  467.00      8.08700E-04
  469.00      7.78150E-04
  471.00      7.96620E-04
  473.00      7.92140E-04
  475.00      7.86370E-04
  477.00      7.80660E-04
  479.00      7.75010E-04
  481.00      7.69410E-04
  483.00      7.63400E-04
  485.00      7.44460E-04
  487.00      7.10030E-04
  489.00      7.46600E-04
  491.00      7.42340E-04
  493.00      7.34780E-04
  495.00      7.31960E-04
  497.00      7.26850E-04
  499.00      7.21800E-04
  501.00      7.15490E-04
  503.00      7.11760E-04
  505.00      7.06560E-04
  507.00      7.02000E-04
  509.00      6.97210E-04
  511.00      6.92440E-04
  513.00      6.87700E-04
  515.00      6.83030E-04
  517.00      6.78420E-04
  519.00      6.73840E-04
  521.00      6.69310E-04
  523.00      6.64830E-04
  525.00      6.60310E-04
  527.00      6.55850E-04
  529.00      6.51640E-04
  531.00      6.47330E-04
  533.00      6.43040E-04
  535.00      6.38830E-04
  537.00      6.34640E-04
  539.00      6.30490E-04
  541.00      6.15890E-04
  543.00      6.22270E-04
  545.00      6.18300E-04
  547.00      6.14300E-04
  549.00      6.10360E-04
  551.00      6.06370E-04
  553.00      6.02580E-04
  555.00      5.98740E-04
  557.00      5.94890E-04
  559.00      5.90730E-04
  561.00      5.87440E-04
  563.00      5.83740E-04
  565.00      5.80080E-04
  567.00      5.76450E-04
  569.00      5.65950E-04
  571.00      5.34070E-04
  573.00      5.31000E-04
  575.00      5.27960E-04
  577.00      5.25050E-04
  579.00      5.22400E-04
  581.00      5.19620E-04
  583.00      5.18660E-04
  585.00      5.17720E-04
  587.00      5.14190E-04
  589.00      5.16510E-04
  591.00      5.16440E-04
  593.00      5.16730E-04
  595.00      5.17480E-04
  597.00      5.18180E-04
  599.00      5.19280E-04
  601.00      5.17830E-04
  603.00      5.15740E-04
  605.00      5.14260E-04
  607.00      5.10690E-04
  609.00      5.08400E-04
  611.00      5.04940E-04
  613.00      5.02010E-04
  615.00      4.99830E-04
  617.00      4.95150E-04
  619.00      4.93960E-04
  621.00      4.91200E-04
  623.00      4.86340E-04
  625.00      4.85180E-04
  627.00      4.82780E-04
  629.00      4.80010E-04
  631.00      4.74400E-04
  633.00      4.74380E-04
  635.00      4.71880E-04
  637.00      4.69220E-04
  639.00      4.66390E-04
  641.00      4.60360E-04
  643.00      4.61350E-04
  645.00      4.58770E-04
  647.00      4.56190E-04
  649.00      4.53680E-04
  651.00      4.50970E-04
  653.00      4.43940E-04
  655.00      4.41310E-04
  657.00      4.17060E-04
  659.00      4.40650E-04
  661.00      4.38900E-04
  663.00      4.36510E-04
  665.00      4.34150E-04
  667.00      4.30280E-04
  669.00      4.23720E-04
  671.00      4.27040E-04
  673.00      4.24820E-04
  675.00      4.22530E-04
  677.00      4.20300E-04
  679.00      4.18060E-04
  681.00      4.15830E-04
  683.00      4.13630E-04
  685.00      4.11430E-04
  687.00      4.09260E-04
  689.00      4.01850E-04
  691.00      4.04800E-04
  693.00      4.02840E-04
  695.00      4.00740E-04
  697.00      3.98650E-04
  699.00      3.96580E-04
  701.00      3.94500E-04
  703.00      3.92420E-04
  705.00      3.90430E-04
  707.00      3.87130E-04
  709.00      3.86450E-04
  711.00      3.84460E-04
  713.00      3.82490E-04
  715.00      3.80550E-04
  717.00      3.75140E-04
  719.00      3.74790E-04
  721.00      3.74790E-04
  723.00      3.72900E-04
  725.00      3.71020E-04
  727.00      3.69160E-04
  729.00      3.66890E-04
  731.00      3.65450E-04
  733.00      3.63650E-04
  735.00      3.61840E-04
  737.00      3.60040E-04
  739.00      3.58260E-04
  741.00      3.56490E-04
  743.00      3.54740E-04
  745.00      3.52970E-04
  747.00      3.51270E-04
  749.00      3.49490E-04
  751.00      3.47840E-04
  753.00      3.46160E-04
  755.00      3.44480E-04
  757.00      3.42810E-04
  759.00      3.36280E-04
  761.00      3.39240E-04
  763.00      3.37880E-04
  765.00      3.36260E-04
  767.00      3.34650E-04
  769.00      3.33020E-04
  771.00      3.31460E-04
  773.00      3.29840E-04
  775.00      3.28330E-04
  777.00      3.26780E-04
  779.00      3.25240E-04
  781.00      3.23700E-04
  783.00      3.22190E-04
  785.00      3.20670E-04
  787.00      3.19190E-04
  789.00      3.17700E-04
  791.00      3.16230E-04
  793.00      3.14770E-04
  795.00      3.13310E-04
  797.00      3.11830E-04
  799.00      3.10420E-04
  801.00      3.08990E-04
  803.00      3.07560E-04
  805.00      3.06170E-04
  807.00      3.04770E-04
  809.00      3.03380E-04
  811.00      3.02000E-04
  813.00      3.00630E-04
  815.00      2.99270E-04
  817.00      2.97890E-04
  819.00      2.95370E-04
  821.00      2.83860E-04
  823.00      2.81040E-04
  825.00      2.81140E-04
  827.00      2.80220E-04
  829.00      2.79080E-04
  831.00      2.77900E-04
  833.00      2.76700E-04
  835.00      2.75540E-04
  837.00      2.74460E-04
  839.00      2.73390E-04
  841.00      2.72410E-04
  843.00      2.71440E-04
  845.00      2.70430E-04
  847.00      2.69580E-04
  849.00      2.68810E-04
  851.00      2.67910E-04
  853.00      2.67270E-04
  855.00      2.66200E-04
  857.00      2.65930E-04
  859.00      2.64610E-04
  861.00      2.63940E-04
  863.00      2.64080E-04
  865.00      2.62950E-04
  867.00      2.60620E-04
  869.00      2.62240E-04
  871.00      2.62080E-04
  873.00      2.60900E-04
  875.00      2.56100E-04
  877.00      2.58980E-04
  879.00      2.59960E-04
  881.00      2.59540E-04
  883.00      2.58720E-04
  885.00      2.54490E-04
  887.00      2.48820E-04
  889.00      2.54930E-04
  891.00      2.55070E-04
  893.00      2.54080E-04
  895.00      2.53630E-04
  897.00      2.52270E-04
  899.00      2.49860E-04
  901.00      2.40740E-04
  903.00      2.43760E-04
  905.00      2.47480E-04
  907.00      2.47040E-04
  909.00      2.46390E-04
  911.00      2.44880E-04
  913.00      2.44480E-04
  915.00      2.43490E-04
  917.00      2.42430E-04
  919.00      2.40970E-04
  921.00      2.37620E-04
  923.00      2.26940E-04
  925.00      2.35240E-04
  927.00      2.36980E-04
  929.00      2.36660E-04
  931.00      2.35650E-04
  933.00      2.34540E-04
  935.00      2.29220E-04
  937.00      2.31820E-04
  939.00      2.31930E-04
  941.00      2.31030E-04
  943.00      2.30130E-04
  945.00      2.29220E-04
  947.00      2.28200E-04
  949.00      2.27400E-04
  951.00      2.25630E-04
  953.00      2.22030E-04
  955.00      2.11860E-04
  957.00      2.21450E-04
  959.00      2.22560E-04
  961.00      2.22070E-04
  963.00      2.21160E-04
  965.00      2.20380E-04
  967.00      2.19530E-04
  969.00      2.18680E-04
  971.00      2.17620E-04
  973.00      2.16980E-04
  975.00      2.15890E-04
  977.00      2.13970E-04
  979.00      2.14500E-04
  981.00      2.13680E-04
  983.00      2.12860E-04
  985.00      2.12050E-04
  987.00      2.11240E-04
  989.00      2.10440E-04
  991.00      2.09640E-04
  993.00      2.08850E-04
  995.00      2.08060E-04
  997.00      2.07270E-04
  999.00      2.06490E-04
  1002.5      2.02100E-04
  1007.5      1.98720E-04
  1012.5      1.98320E-04
  1017.5      1.99470E-04
  1022.5      1.97640E-04
  1027.5      1.95830E-04
  1032.5      1.93920E-04
  1037.5      1.92290E-04
  1042.5      1.89620E-04
  1047.5      1.88840E-04
  1052.5      1.87150E-04
  1057.5      1.85480E-04
  1062.5      1.83830E-04
  1067.5      1.82190E-04
  1072.5      1.80610E-04
  1077.5      1.79020E-04
  1082.5      1.77030E-04
  1087.5      1.75850E-04
  1092.5      1.68830E-04
  1097.5      1.71650E-04
  1102.5      1.71350E-04
  1107.5      1.69950E-04
  1112.5      1.68510E-04
  1117.5      1.67170E-04
  1122.5      1.65760E-04
  1127.5      1.64370E-04
  1132.5      1.63000E-04
  1137.5      1.61640E-04
  1142.5      1.60300E-04
  1147.5      1.58980E-04
  1152.5      1.57670E-04
  1157.5      1.56380E-04
  1162.5      1.53660E-04
  1167.5      1.52820E-04
  1172.5      1.52600E-04
  1177.5      1.51370E-04
  1182.5      1.50150E-04
  1187.5      1.48950E-04
  1192.5      1.47760E-04
  1197.5      1.46400E-04
  1202.5      1.45430E-04
  1207.5      1.44290E-04
  1212.5      1.43150E-04
  1217.5      1.42040E-04
  1222.5      1.40930E-04
  1227.5      1.39840E-04
  1232.5      1.38760E-04
  1237.5      1.37690E-04
  1242.5      1.36640E-04
  1247.5      1.35590E-04
  1252.5      1.34540E-04
  1257.5      1.33540E-04
  1262.5      1.32530E-04
  1267.5      1.31530E-04
  1272.5      1.30550E-04
  1277.5      1.28990E-04
  1282.5      1.24090E-04
  1287.5      1.27460E-04
  1292.5      1.26710E-04
  1297.5      1.25710E-04
  1302.5      1.24860E-04
  1307.5      1.23950E-04
  1312.5      1.23040E-04
  1317.5      1.22150E-04
  1322.5      1.21270E-04
  1327.5      1.20390E-04
  1332.5      1.19530E-04
  1337.5      1.18670E-04
  1342.5      1.17820E-04
  1347.5      1.16990E-04
  1352.5      1.16160E-04
  1357.5      1.15340E-04
  1362.5      1.14530E-04
  1367.5      1.13730E-04
  1372.5      1.12940E-04
  1377.5      1.12150E-04
  1382.5      1.11370E-04
  1387.5      1.10610E-04
  1392.5      1.09840E-04
  1397.5      1.09090E-04
