 Castelli and Kurucz 2004-2012 Atmosphere
 T     42000.     G    4.50000 [-1.0] VTURB=2  L/H=1.25 NOVER NEW ODF          
 Wavelength  Eddington Hnu
   (nm)    (ergs/s/cm2/Hz/sr)
  9.0900      6.35680E-23
  9.3500      2.07360E-22
  9.6100      6.36620E-22
  9.7700      1.24110E-21
  9.9600      2.66660E-21
  10.200      6.75650E-21
  10.380      1.32480E-20
  10.560      2.54530E-20
  10.770      5.32090E-20
  11.040      1.32440E-19
  11.400      4.21520E-19
  11.780      1.34130E-18
  12.130      3.68310E-18
  12.480      9.62540E-18
  12.710      1.76560E-17
  12.840      2.46690E-17
  13.050      4.18290E-17
  13.240      6.66180E-17
  13.390      9.54580E-17
  13.660      1.79260E-16
  13.980      3.68780E-16
  14.330      7.84940E-16
  14.720      1.74810E-15
  15.100      3.71500E-15
  15.520      8.18690E-15
  15.880      1.56490E-14
  16.200      2.72780E-14
  16.600      5.31780E-14
  17.030      1.05340E-13
  17.340      1.69160E-13
  17.680      2.80070E-13
  18.020      4.55070E-13
  18.170      5.58110E-13
  18.610      1.01660E-12
  19.100      1.91340E-12
  19.390      2.74600E-12
  19.840      4.70820E-12
  20.180      6.96770E-12
  20.500      9.98020E-12
  21.050      1.80450E-11
  21.620      3.23170E-11
  21.980      4.60700E-11
  22.300      6.24610E-11
  22.680      8.85370E-11
  23.000      2.26350E-08
  23.400      1.00820E-07
  24.000      3.18690E-07
  24.650      2.31690E-06
  25.240      7.80940E-06
  25.680      7.65820E-06
  26.000      1.80410E-05
  26.400      4.66690E-05
  26.850      6.50570E-05
  27.350      7.95200E-05
  27.850      6.80830E-05
  28.400      1.18050E-04
  29.000      1.45620E-04
  29.600      1.10320E-04
  30.100      2.97550E-05
  30.800      7.60910E-05
  31.800      9.56910E-05
  32.800      1.23730E-04
  33.800      1.11230E-04
  34.800      1.21330E-04
  35.700      2.14110E-04
  36.600      3.06710E-04
  37.500      3.56010E-04
  38.500      3.35950E-04
  39.500      4.46440E-04
  40.500      5.38110E-04
  41.400      5.64320E-04
  42.200      5.62220E-04
  43.000      5.49990E-04
  44.100      6.41220E-04
  45.100      6.81320E-04
  46.000      6.56070E-04
  47.000      6.80330E-04
  48.000      7.43430E-04
  49.000      6.92130E-04
  50.000      8.02790E-04
  50.600      7.83430E-04
  51.200      1.09340E-03
  52.000      1.07010E-03
  53.000      1.04820E-03
  54.000      9.73870E-04
  55.000      9.45750E-04
  56.000      1.17120E-03
  57.000      1.23770E-03
  58.000      1.23280E-03
  59.000      1.28080E-03
  60.000      1.22850E-03
  61.000      1.20990E-03
  62.000      1.38660E-03
  63.000      1.37140E-03
  64.000      1.45240E-03
  65.000      1.43680E-03
  65.800      1.38360E-03
  66.500      1.48800E-03
  67.500      1.54710E-03
  68.500      1.47990E-03
  69.500      1.57890E-03
  70.500      1.50570E-03
  71.600      1.64240E-03
  72.600      1.67610E-03
  73.500      1.69880E-03
  74.500      1.68570E-03
  75.500      1.69220E-03
  76.500      1.66240E-03
  77.500      1.72670E-03
  78.500      1.70910E-03
  79.500      1.76320E-03
  80.500      1.78360E-03
  81.500      1.81230E-03
  82.500      1.83750E-03
  83.500      1.74390E-03
  84.500      1.85700E-03
  85.500      1.84750E-03
  86.500      1.89630E-03
  87.500      1.91590E-03
  88.500      1.91980E-03
  89.500      1.93150E-03
  90.500      1.92320E-03
  91.500      1.56560E-03
  92.500      2.68040E-03
  93.500      3.50780E-03
  94.500      4.17230E-03
  95.500      4.56470E-03
  96.500      5.04520E-03
  97.500      4.02910E-03
  98.500      4.86750E-03
  99.500      4.56520E-03
  100.50      4.76850E-03
  101.50      4.83270E-03
  102.50      4.16280E-03
  103.50      4.88670E-03
  104.50      4.95940E-03
  105.50      4.93510E-03
  106.50      4.80340E-03
  107.50      4.83200E-03
  108.50      4.62800E-03
  109.50      4.81190E-03
  110.50      4.74290E-03
  111.50      4.70750E-03
  112.50      4.59410E-03
  113.50      4.69660E-03
  114.50      4.67730E-03
  115.50      4.58500E-03
  116.50      4.51990E-03
  117.50      4.18900E-03
  118.50      4.42850E-03
  119.50      4.39490E-03
  120.50      4.36830E-03
  121.50      3.69850E-03
  122.50      4.30520E-03
  123.50      4.27380E-03
  124.50      4.23410E-03
  125.50      4.28130E-03
  126.50      4.27460E-03
  127.50      4.25800E-03
  128.50      4.24010E-03
  129.50      4.20570E-03
  130.50      4.15550E-03
  131.50      4.14900E-03
  132.50      4.10720E-03
  133.50      4.09580E-03
  134.50      4.08270E-03
  135.50      4.00740E-03
  136.50      3.93870E-03
  137.50      3.88260E-03
  138.50      3.89690E-03
  139.50      3.83110E-03
  140.50      3.74540E-03
  141.50      3.85680E-03
  142.50      3.76150E-03
  143.50      3.80140E-03
  144.20      3.74190E-03
  144.70      3.73750E-03
  145.50      3.69510E-03
  146.50      3.69060E-03
  147.50      3.67830E-03
  148.50      3.69470E-03
  149.50      3.64940E-03
  150.50      3.64780E-03
  151.20      3.64770E-03
  151.70      3.60380E-03
  152.50      3.59170E-03
  153.50      3.48670E-03
  154.50      3.27340E-03
  155.50      3.29010E-03
  156.50      3.39180E-03
  157.50      3.42100E-03
  158.50      3.40280E-03
  159.50      3.38500E-03
  160.50      3.30280E-03
  161.50      3.27160E-03
  162.50      3.25270E-03
  163.50      3.21730E-03
  164.50      3.09690E-03
  165.50      3.25320E-03
  166.50      3.23950E-03
  167.20      3.16360E-03
  167.70      3.24960E-03
  168.50      3.22460E-03
  169.50      3.20970E-03
  170.50      3.17280E-03
  171.50      3.10070E-03
  172.50      3.10310E-03
  173.50      3.13840E-03
  174.50      3.11140E-03
  175.50      3.07880E-03
  176.50      3.07280E-03
  177.50      3.05640E-03
  178.50      3.04340E-03
  179.50      3.01040E-03
  180.50      2.99640E-03
  181.50      2.97720E-03
  182.50      2.95490E-03
  183.50      2.94390E-03
  184.50      2.92350E-03
  185.50      2.90140E-03
  186.50      2.88220E-03
  187.50      2.85990E-03
  188.50      2.84110E-03
  189.50      2.83730E-03
  190.50      2.82050E-03
  191.50      2.80160E-03
  192.50      2.75500E-03
  193.50      2.76720E-03
  194.50      2.75040E-03
  195.50      2.72510E-03
  196.70      2.71020E-03
  197.60      2.69420E-03
  198.40      2.68280E-03
  199.50      2.66290E-03
  200.50      2.64810E-03
  201.50      2.63110E-03
  202.50      2.61420E-03
  203.50      2.59690E-03
  204.50      2.57520E-03
  205.50      1.98890E-03
  206.50      1.93050E-03
  207.40      1.98380E-03
  207.80      2.03690E-03
  208.50      2.18950E-03
  209.50      2.42840E-03
  210.50      2.48250E-03
  211.50      2.47970E-03
  212.50      2.46190E-03
  213.50      2.44650E-03
  214.50      2.43570E-03
  215.50      2.46090E-03
  216.50      2.37630E-03
  217.50      2.44730E-03
  218.50      2.35930E-03
  219.50      2.41850E-03
  220.50      2.40640E-03
  221.50      2.31510E-03
  222.50      2.37620E-03
  223.50      2.36320E-03
  224.50      2.34630E-03
  225.50      2.26330E-03
  226.50      2.31960E-03
  227.50      2.30690E-03
  228.50      2.28900E-03
  229.50      2.25500E-03
  230.50      2.19840E-03
  231.50      2.24700E-03
  232.50      2.23760E-03
  233.50      2.22460E-03
  234.50      2.21010E-03
  235.50      2.19650E-03
  236.50      2.18350E-03
  237.50      2.16890E-03
  238.50      2.08950E-03
  239.50      2.13590E-03
  240.50      2.12830E-03
  241.50      2.11630E-03
  242.50      2.10800E-03
  243.50      2.09440E-03
  244.50      2.08260E-03
  245.50      2.06700E-03
  246.50      2.05830E-03
  247.50      2.04780E-03
  248.50      2.03410E-03
  249.50      1.95220E-03
  250.50      2.00450E-03
  251.30      1.88080E-03
  251.80      1.97950E-03
  252.50      1.98210E-03
  253.50      1.97790E-03
  254.50      1.96730E-03
  255.50      1.95540E-03
  256.50      1.94490E-03
  257.50      1.93360E-03
  258.50      1.92310E-03
  259.50      1.90580E-03
  260.50      1.90190E-03
  261.50      1.88890E-03
  262.50      1.88110E-03
  263.50      1.87090E-03
  264.50      1.85970E-03
  265.50      1.85010E-03
  266.50      1.83920E-03
  267.50      1.82520E-03
  268.50      1.81870E-03
  269.50      1.80790E-03
  270.50      1.80030E-03
  271.50      1.78980E-03
  272.50      1.77920E-03
  273.50      1.72270E-03
  274.50      1.76150E-03
  275.50      1.75160E-03
  276.50      1.74120E-03
  277.50      1.73280E-03
  278.50      1.72260E-03
  279.50      1.71190E-03
  280.50      1.70480E-03
  281.50      1.69600E-03
  282.50      1.68540E-03
  283.50      1.67770E-03
  284.50      1.66980E-03
  285.50      1.66100E-03
  286.50      1.65190E-03
  287.50      1.64340E-03
  288.50      1.63490E-03
  289.50      1.62620E-03
  291.00      1.61340E-03
  293.00      1.59710E-03
  295.00      1.57960E-03
  297.00      1.56360E-03
  299.00      1.54560E-03
  301.00      1.53110E-03
  303.00      1.51320E-03
  305.00      1.49880E-03
  307.00      1.48480E-03
  309.00      1.47140E-03
  311.00      1.45670E-03
  313.00      1.44190E-03
  315.00      1.42900E-03
  317.00      1.41460E-03
  319.00      1.39940E-03
  321.00      1.36730E-03
  323.00      1.37470E-03
  325.00      1.36170E-03
  327.00      1.34450E-03
  329.00      1.33520E-03
  331.00      1.32250E-03
  333.00      1.31030E-03
  335.00      1.29620E-03
  337.00      1.28570E-03
  339.00      1.27390E-03
  341.00      1.26180E-03
  343.00      1.25120E-03
  345.00      1.23810E-03
  347.00      1.22840E-03
  349.00      1.21720E-03
  351.00      1.20630E-03
  353.00      1.19480E-03
  355.00      1.18400E-03
  357.00      1.17420E-03
  359.00      1.16280E-03
  361.00      1.15270E-03
  363.00      1.14170E-03
  364.00      1.11650E-03
  365.00      1.02490E-03
  367.00      1.01740E-03
  369.00      1.01220E-03
  371.00      1.01300E-03
  373.00      1.02010E-03
  375.00      1.03530E-03
  377.00      1.04520E-03
  379.00      1.06060E-03
  381.00      1.07420E-03
  383.00      1.02910E-03
  385.00      1.07070E-03
  387.00      1.07360E-03
  389.00      9.96360E-04
  391.00      1.06020E-03
  393.00      1.04440E-03
  395.00      1.04360E-03
  397.00      9.61010E-04
  399.00      1.02580E-03
  401.00      1.02090E-03
  403.00      9.94320E-04
  405.00      1.00600E-03
  407.00      9.96730E-04
  409.00      9.68480E-04
  411.00      9.20040E-04
  413.00      9.71080E-04
  415.00      9.64200E-04
  417.00      9.57700E-04
  419.00      9.46420E-04
  421.00      9.29900E-04
  423.00      9.35190E-04
  425.00      9.27700E-04
  427.00      9.20350E-04
  429.00      9.13110E-04
  431.00      9.04990E-04
  433.00      8.74810E-04
  435.00      8.43850E-04
  437.00      8.83560E-04
  439.00      8.75010E-04
  441.00      8.70680E-04
  443.00      8.64250E-04
  445.00      8.57720E-04
  447.00      8.45020E-04
  449.00      8.44700E-04
  451.00      8.37880E-04
  453.00      8.30720E-04
  455.00      8.12600E-04
  457.00      8.19570E-04
  459.00      8.13460E-04
  461.00      8.07390E-04
  463.00      8.00530E-04
  465.00      7.90980E-04
  467.00      7.88660E-04
  469.00      7.58880E-04
  471.00      7.76630E-04
  473.00      7.72610E-04
  475.00      7.67000E-04
  477.00      7.61430E-04
  479.00      7.55940E-04
  481.00      7.50480E-04
  483.00      7.44610E-04
  485.00      7.25450E-04
  487.00      6.91080E-04
  489.00      7.28080E-04
  491.00      7.24080E-04
  493.00      7.16200E-04
  495.00      7.14020E-04
  497.00      7.09050E-04
  499.00      7.04140E-04
  501.00      6.97720E-04
  503.00      6.94360E-04
  505.00      6.89220E-04
  507.00      6.84860E-04
  509.00      6.80190E-04
  511.00      6.75550E-04
  513.00      6.70940E-04
  515.00      6.66390E-04
  517.00      6.61900E-04
  519.00      6.57440E-04
  521.00      6.53030E-04
  523.00      6.48670E-04
  525.00      6.44260E-04
  527.00      6.39910E-04
  529.00      6.35820E-04
  531.00      6.31620E-04
  533.00      6.27450E-04
  535.00      6.23350E-04
  537.00      6.19270E-04
  539.00      6.15220E-04
  541.00      6.01020E-04
  543.00      6.07260E-04
  545.00      6.03350E-04
  547.00      5.99460E-04
  549.00      5.95620E-04
  551.00      5.91730E-04
  553.00      5.88030E-04
  555.00      5.84300E-04
  557.00      5.80550E-04
  559.00      5.76480E-04
  561.00      5.73290E-04
  563.00      5.69690E-04
  565.00      5.66120E-04
  567.00      5.62580E-04
  569.00      5.52430E-04
  571.00      5.21840E-04
  573.00      5.18840E-04
  575.00      5.15880E-04
  577.00      5.13040E-04
  579.00      5.10440E-04
  581.00      5.07730E-04
  583.00      5.06670E-04
  585.00      5.05740E-04
  587.00      5.01880E-04
  589.00      5.04510E-04
  591.00      5.04400E-04
  593.00      5.04630E-04
  595.00      5.05280E-04
  597.00      5.05900E-04
  599.00      5.06880E-04
  601.00      5.05510E-04
  603.00      5.03430E-04
  605.00      5.01970E-04
  607.00      4.98530E-04
  609.00      4.96260E-04
  611.00      4.92910E-04
  613.00      4.90050E-04
  615.00      4.87900E-04
  617.00      4.83410E-04
  619.00      4.82180E-04
  621.00      4.79480E-04
  623.00      4.74840E-04
  625.00      4.73630E-04
  627.00      4.71280E-04
  629.00      4.68580E-04
  631.00      4.63310E-04
  633.00      4.63100E-04
  635.00      4.60660E-04
  637.00      4.58060E-04
  639.00      4.55310E-04
  641.00      4.49570E-04
  643.00      4.50390E-04
  645.00      4.47870E-04
  647.00      4.45360E-04
  649.00      4.42920E-04
  651.00      4.40270E-04
  653.00      4.33540E-04
  655.00      4.30630E-04
  657.00      4.06510E-04
  659.00      4.30100E-04
  661.00      4.28510E-04
  663.00      4.26180E-04
  665.00      4.23880E-04
  667.00      4.19970E-04
  669.00      4.13710E-04
  671.00      4.16940E-04
  673.00      4.14780E-04
  675.00      4.12550E-04
  677.00      4.10380E-04
  679.00      4.08200E-04
  681.00      4.06030E-04
  683.00      4.03870E-04
  685.00      4.01730E-04
  687.00      3.99610E-04
  689.00      3.92520E-04
  691.00      3.95270E-04
  693.00      3.93360E-04
  695.00      3.91310E-04
  697.00      3.89270E-04
  699.00      3.87250E-04
  701.00      3.85220E-04
  703.00      3.83180E-04
  705.00      3.81250E-04
  707.00      3.77810E-04
  709.00      3.77370E-04
  711.00      3.75430E-04
  713.00      3.73520E-04
  715.00      3.71620E-04
  717.00      3.66410E-04
  719.00      3.66050E-04
  721.00      3.66000E-04
  723.00      3.64150E-04
  725.00      3.62320E-04
  727.00      3.60510E-04
  729.00      3.58180E-04
  731.00      3.56890E-04
  733.00      3.55140E-04
  735.00      3.53370E-04
  737.00      3.51620E-04
  739.00      3.49880E-04
  741.00      3.48150E-04
  743.00      3.46450E-04
  745.00      3.44720E-04
  747.00      3.43060E-04
  749.00      3.41320E-04
  751.00      3.39710E-04
  753.00      3.38080E-04
  755.00      3.36440E-04
  757.00      3.34810E-04
  759.00      3.28530E-04
  761.00      3.31340E-04
  763.00      3.30000E-04
  765.00      3.28420E-04
  767.00      3.26850E-04
  769.00      3.25260E-04
  771.00      3.23740E-04
  773.00      3.22160E-04
  775.00      3.20690E-04
  777.00      3.19180E-04
  779.00      3.17670E-04
  781.00      3.16170E-04
  783.00      3.14700E-04
  785.00      3.13220E-04
  787.00      3.11780E-04
  789.00      3.10330E-04
  791.00      3.08890E-04
  793.00      3.07460E-04
  795.00      3.06040E-04
  797.00      3.04600E-04
  799.00      3.03220E-04
  801.00      3.01830E-04
  803.00      3.00430E-04
  805.00      2.99080E-04
  807.00      2.97710E-04
  809.00      2.96350E-04
  811.00      2.95010E-04
  813.00      2.93670E-04
  815.00      2.92340E-04
  817.00      2.91000E-04
  819.00      2.88570E-04
  821.00      2.77630E-04
  823.00      2.74870E-04
  825.00      2.74970E-04
  827.00      2.74070E-04
  829.00      2.72970E-04
  831.00      2.71820E-04
  833.00      2.70640E-04
  835.00      2.69480E-04
  837.00      2.68450E-04
  839.00      2.67400E-04
  841.00      2.66430E-04
  843.00      2.65470E-04
  845.00      2.64440E-04
  847.00      2.63620E-04
  849.00      2.62850E-04
  851.00      2.61960E-04
  853.00      2.61320E-04
  855.00      2.60260E-04
  857.00      2.60020E-04
  859.00      2.58620E-04
  861.00      2.58000E-04
  863.00      2.58190E-04
  865.00      2.57000E-04
  867.00      2.54610E-04
  869.00      2.56340E-04
  871.00      2.56210E-04
  873.00      2.54940E-04
  875.00      2.50020E-04
  877.00      2.52990E-04
  879.00      2.54100E-04
  881.00      2.53690E-04
  883.00      2.52850E-04
  885.00      2.48480E-04
  887.00      2.42790E-04
  889.00      2.49100E-04
  891.00      2.49310E-04
  893.00      2.48360E-04
  895.00      2.47890E-04
  897.00      2.46540E-04
  899.00      2.44120E-04
  901.00      2.34870E-04
  903.00      2.37980E-04
  905.00      2.41860E-04
  907.00      2.41420E-04
  909.00      2.40810E-04
  911.00      2.39410E-04
  913.00      2.39000E-04
  915.00      2.38030E-04
  917.00      2.36950E-04
  919.00      2.35550E-04
  921.00      2.32070E-04
  923.00      2.21350E-04
  925.00      2.29780E-04
  927.00      2.31640E-04
  929.00      2.31370E-04
  931.00      2.30330E-04
  933.00      2.29340E-04
  935.00      2.24150E-04
  937.00      2.26680E-04
  939.00      2.26760E-04
  941.00      2.25860E-04
  943.00      2.24980E-04
  945.00      2.24090E-04
  947.00      2.23060E-04
  949.00      2.22320E-04
  951.00      2.20480E-04
  953.00      2.16810E-04
  955.00      2.06660E-04
  957.00      2.16360E-04
  959.00      2.17560E-04
  961.00      2.17100E-04
  963.00      2.16180E-04
  965.00      2.15460E-04
  967.00      2.14630E-04
  969.00      2.13790E-04
  971.00      2.12720E-04
  973.00      2.12130E-04
  975.00      2.11090E-04
  977.00      2.09270E-04
  979.00      2.09710E-04
  981.00      2.08910E-04
  983.00      2.08110E-04
  985.00      2.07320E-04
  987.00      2.06530E-04
  989.00      2.05750E-04
  991.00      2.04970E-04
  993.00      2.04190E-04
  995.00      2.03420E-04
  997.00      2.02650E-04
  999.00      2.01890E-04
  1002.5      1.97410E-04
  1007.5      1.94120E-04
  1012.5      1.93930E-04
  1017.5      1.95040E-04
  1022.5      1.93240E-04
  1027.5      1.91470E-04
  1032.5      1.89580E-04
  1037.5      1.88010E-04
  1042.5      1.85460E-04
  1047.5      1.84640E-04
  1052.5      1.82990E-04
  1057.5      1.81360E-04
  1062.5      1.79750E-04
  1067.5      1.78140E-04
  1072.5      1.76600E-04
  1077.5      1.75060E-04
  1082.5      1.73050E-04
  1087.5      1.71950E-04
  1092.5      1.64870E-04
  1097.5      1.67780E-04
  1102.5      1.67540E-04
  1107.5      1.66190E-04
  1112.5      1.64780E-04
  1117.5      1.63470E-04
  1122.5      1.62090E-04
  1127.5      1.60740E-04
  1132.5      1.59390E-04
  1137.5      1.58070E-04
  1142.5      1.56760E-04
  1147.5      1.55460E-04
  1152.5      1.54190E-04
  1157.5      1.52920E-04
  1162.5      1.50300E-04
  1167.5      1.49480E-04
  1172.5      1.49230E-04
  1177.5      1.48030E-04
  1182.5      1.46840E-04
  1187.5      1.45670E-04
  1192.5      1.44510E-04
  1197.5      1.43120E-04
  1202.5      1.42230E-04
  1207.5      1.41110E-04
  1212.5      1.40000E-04
  1217.5      1.38910E-04
  1222.5      1.37830E-04
  1227.5      1.36760E-04
  1232.5      1.35710E-04
  1237.5      1.34660E-04
  1242.5      1.33630E-04
  1247.5      1.32610E-04
  1252.5      1.31570E-04
  1257.5      1.30610E-04
  1262.5      1.29620E-04
  1267.5      1.28650E-04
  1272.5      1.27680E-04
  1277.5      1.26080E-04
  1282.5      1.21240E-04
  1287.5      1.24650E-04
  1292.5      1.23930E-04
  1297.5      1.22930E-04
  1302.5      1.22120E-04
  1307.5      1.21230E-04
  1312.5      1.20350E-04
  1317.5      1.19470E-04
  1322.5      1.18610E-04
  1327.5      1.17760E-04
  1332.5      1.16910E-04
  1337.5      1.16080E-04
  1342.5      1.15240E-04
  1347.5      1.14430E-04
  1352.5      1.13620E-04
  1357.5      1.12820E-04
  1362.5      1.12030E-04
  1367.5      1.11250E-04
  1372.5      1.10470E-04
  1377.5      1.09700E-04
  1382.5      1.08940E-04
  1387.5      1.08190E-04
  1392.5      1.07450E-04
  1397.5      1.06710E-04
