 Castelli and Kurucz 2004-2012 Atmosphere
 T     34000.     G    4.50000 [-1.0] VTURB=2  L/H=1.25 NOVER NEW ODF          
 Wavelength  Eddington Hnu
   (nm)    (ergs/s/cm2/Hz/sr)
  9.0900      2.09350E-30
  9.3500      1.09150E-29
  9.6100      5.21990E-29
  9.7700      1.31440E-28
  9.9600      3.79230E-28
  10.200      1.37000E-27
  10.380      3.46340E-27
  10.560      8.49830E-27
  10.770      2.33630E-26
  11.040      8.13260E-26
  11.400      3.93700E-25
  11.780      1.89270E-24
  12.130      7.41810E-24
  12.480      2.70930E-23
  12.710      6.12550E-23
  12.840      9.59920E-23
  13.050      1.94920E-22
  13.240      3.63630E-22
  13.390      5.88120E-22
  13.660      1.36570E-21
  13.980      3.56900E-21
  14.330      9.76690E-21
  14.720      2.84910E-20
  15.100      7.70520E-20
  15.520      2.19700E-19
  15.880      5.18440E-19
  16.200      1.08100E-18
  16.600      2.61400E-18
  17.030      6.47420E-18
  17.340      1.21420E-17
  17.680      2.36550E-17
  18.020      4.50360E-17
  18.170      5.94320E-17
  18.610      1.30970E-16
  19.100      3.03780E-16
  19.390      4.90740E-16
  19.840      1.00700E-15
  20.180      1.69990E-15
  20.500      2.74210E-15
  21.050      6.04670E-15
  21.620      1.31880E-14
  21.980      2.11810E-14
  22.300      3.18780E-14
  22.680      5.10180E-14
  23.000      3.74390E-11
  23.400      1.65160E-10
  24.000      3.28020E-10
  24.650      6.03680E-10
  25.240      9.88220E-10
  25.680      1.03930E-09
  26.000      2.10830E-09
  26.400      3.69620E-09
  26.850      5.38820E-09
  27.350      6.92280E-09
  27.850      7.93140E-09
  28.400      1.46890E-08
  29.000      1.94970E-08
  29.600      2.28090E-08
  30.100      2.47660E-08
  30.800      4.84910E-08
  31.800      1.23530E-07
  32.800      1.66530E-07
  33.800      2.55960E-07
  34.800      3.62760E-07
  35.700      4.86420E-07
  36.600      6.92180E-07
  37.500      8.37330E-07
  38.500      1.10010E-06
  39.500      1.43250E-06
  40.500      1.78270E-06
  41.400      2.19200E-06
  42.200      2.51220E-06
  43.000      2.91200E-06
  44.100      3.66270E-06
  45.100      4.38300E-06
  46.000      5.00280E-06
  47.000      5.98730E-06
  48.000      7.08140E-06
  49.000      8.07630E-06
  50.000      9.67070E-06
  50.600      2.97390E-05
  51.200      1.10010E-04
  52.000      1.06700E-04
  53.000      1.05190E-04
  54.000      9.85690E-05
  55.000      1.12510E-04
  56.000      1.32350E-04
  57.000      1.39780E-04
  58.000      1.34540E-04
  59.000      1.45710E-04
  60.000      1.40590E-04
  61.000      1.53090E-04
  62.000      1.72520E-04
  63.000      1.75770E-04
  64.000      1.80440E-04
  65.000      1.87170E-04
  65.800      1.82970E-04
  66.500      1.94540E-04
  67.500      2.06190E-04
  68.500      1.95460E-04
  69.500      2.19790E-04
  70.500      2.12980E-04
  71.600      2.39080E-04
  72.600      2.43210E-04
  73.500      2.52500E-04
  74.500      2.54900E-04
  75.500      2.60590E-04
  76.500      2.66640E-04
  77.500      2.75460E-04
  78.500      2.87840E-04
  79.500      2.93910E-04
  80.500      2.97820E-04
  81.500      3.06200E-04
  82.500      3.18160E-04
  83.500      3.01740E-04
  84.500      3.29340E-04
  85.500      3.36090E-04
  86.500      3.47940E-04
  87.500      3.55660E-04
  88.500      3.64010E-04
  89.500      3.72640E-04
  90.500      3.75130E-04
  91.500      3.90930E-04
  92.500      1.04730E-03
  93.500      1.62250E-03
  94.500      2.36850E-03
  95.500      2.64800E-03
  96.500      3.16800E-03
  97.500      1.93340E-03
  98.500      3.05190E-03
  99.500      2.85590E-03
  100.50      2.99490E-03
  101.50      3.03280E-03
  102.50      2.21220E-03
  103.50      3.00680E-03
  104.50      3.22610E-03
  105.50      3.20270E-03
  106.50      3.02780E-03
  107.50      3.08540E-03
  108.50      2.90050E-03
  109.50      3.10910E-03
  110.50      3.03680E-03
  111.50      3.02730E-03
  112.50      2.83590E-03
  113.50      3.01540E-03
  114.50      2.95570E-03
  115.50      2.92080E-03
  116.50      2.89890E-03
  117.50      2.42490E-03
  118.50      2.77750E-03
  119.50      2.77060E-03
  120.50      2.68980E-03
  121.50      1.97870E-03
  122.50      2.67300E-03
  123.50      2.78000E-03
  124.50      2.73750E-03
  125.50      2.75900E-03
  126.50      2.78490E-03
  127.50      2.78690E-03
  128.50      2.78520E-03
  129.50      2.68070E-03
  130.50      2.69850E-03
  131.50      2.74410E-03
  132.50      2.69660E-03
  133.50      2.66140E-03
  134.50      2.68500E-03
  135.50      2.65660E-03
  136.50      2.62310E-03
  137.50      2.60500E-03
  138.50      2.58370E-03
  139.50      2.42080E-03
  140.50      2.42080E-03
  141.50      2.52650E-03
  142.50      2.41970E-03
  143.50      2.48300E-03
  144.20      2.48600E-03
  144.70      2.47220E-03
  145.50      2.43380E-03
  146.50      2.42910E-03
  147.50      2.41020E-03
  148.50      2.42110E-03
  149.50      2.38340E-03
  150.50      2.37530E-03
  151.20      2.37030E-03
  151.70      2.35630E-03
  152.50      2.32680E-03
  153.50      2.20110E-03
  154.50      2.08880E-03
  155.50      2.08560E-03
  156.50      2.14890E-03
  157.50      2.19400E-03
  158.50      2.21080E-03
  159.50      2.19920E-03
  160.50      2.11220E-03
  161.50      2.07450E-03
  162.50      2.09220E-03
  163.50      2.08840E-03
  164.50      2.02830E-03
  165.50      2.12190E-03
  166.50      2.10490E-03
  167.20      2.04030E-03
  167.70      2.15420E-03
  168.50      2.12000E-03
  169.50      2.10210E-03
  170.50      2.07690E-03
  171.50      2.04000E-03
  172.50      2.01690E-03
  173.50      2.06520E-03
  174.50      2.04930E-03
  175.50      2.02420E-03
  176.50      2.02160E-03
  177.50      2.01270E-03
  178.50      2.01130E-03
  179.50      1.98890E-03
  180.50      1.98820E-03
  181.50      1.96940E-03
  182.50      1.95420E-03
  183.50      1.95850E-03
  184.50      1.92250E-03
  185.50      1.90730E-03
  186.50      1.90230E-03
  187.50      1.89250E-03
  188.50      1.86470E-03
  189.50      1.85350E-03
  190.50      1.86890E-03
  191.50      1.84180E-03
  192.50      1.79780E-03
  193.50      1.82910E-03
  194.50      1.83350E-03
  195.50      1.78280E-03
  196.70      1.80300E-03
  197.60      1.80680E-03
  198.40      1.78520E-03
  199.50      1.75760E-03
  200.50      1.77370E-03
  201.50      1.76770E-03
  202.50      1.75880E-03
  203.50      1.74170E-03
  204.50      1.73030E-03
  205.50      1.44960E-03
  206.50      1.41150E-03
  207.40      1.43870E-03
  207.80      1.44650E-03
  208.50      1.51070E-03
  209.50      1.61710E-03
  210.50      1.66750E-03
  211.50      1.67140E-03
  212.50      1.65700E-03
  213.50      1.65020E-03
  214.50      1.64070E-03
  215.50      1.64550E-03
  216.50      1.60600E-03
  217.50      1.63350E-03
  218.50      1.59420E-03
  219.50      1.61670E-03
  220.50      1.60810E-03
  221.50      1.56520E-03
  222.50      1.58810E-03
  223.50      1.57890E-03
  224.50      1.56860E-03
  225.50      1.52860E-03
  226.50      1.55130E-03
  227.50      1.54280E-03
  228.50      1.52920E-03
  229.50      1.48130E-03
  230.50      1.48450E-03
  231.50      1.50380E-03
  232.50      1.49700E-03
  233.50      1.48800E-03
  234.50      1.47980E-03
  235.50      1.47070E-03
  236.50      1.46230E-03
  237.50      1.45290E-03
  238.50      1.41320E-03
  239.50      1.43060E-03
  240.50      1.42810E-03
  241.50      1.41960E-03
  242.50      1.41260E-03
  243.50      1.40340E-03
  244.50      1.39600E-03
  245.50      1.38720E-03
  246.50      1.38050E-03
  247.50      1.37270E-03
  248.50      1.36390E-03
  249.50      1.26640E-03
  250.50      1.34420E-03
  251.30      1.28540E-03
  251.80      1.32370E-03
  252.50      1.33410E-03
  253.50      1.32770E-03
  254.50      1.31850E-03
  255.50      1.31150E-03
  256.50      1.30550E-03
  257.50      1.29820E-03
  258.50      1.29140E-03
  259.50      1.28330E-03
  260.50      1.28040E-03
  261.50      1.27260E-03
  262.50      1.26640E-03
  263.50      1.25940E-03
  264.50      1.25180E-03
  265.50      1.24470E-03
  266.50      1.23580E-03
  267.50      1.22670E-03
  268.50      1.22570E-03
  269.50      1.21360E-03
  270.50      1.21200E-03
  271.50      1.20500E-03
  272.50      1.19400E-03
  273.50      1.17360E-03
  274.50      1.18700E-03
  275.50      1.18090E-03
  276.50      1.16850E-03
  277.50      1.16910E-03
  278.50      1.16230E-03
  279.50      1.14980E-03
  280.50      1.14870E-03
  281.50      1.14470E-03
  282.50      1.13210E-03
  283.50      1.12800E-03
  284.50      1.12720E-03
  285.50      1.12110E-03
  286.50      1.11480E-03
  287.50      1.10950E-03
  288.50      1.10380E-03
  289.50      1.09820E-03
  291.00      1.08920E-03
  293.00      1.07900E-03
  295.00      1.06280E-03
  297.00      1.05690E-03
  299.00      1.04500E-03
  301.00      1.03490E-03
  303.00      1.02400E-03
  305.00      1.01480E-03
  307.00      1.00610E-03
  309.00      9.94100E-04
  311.00      9.86340E-04
  313.00      9.76840E-04
  315.00      9.67110E-04
  317.00      9.57900E-04
  319.00      9.44360E-04
  321.00      9.33450E-04
  323.00      9.31480E-04
  325.00      9.23080E-04
  327.00      9.13420E-04
  329.00      9.05440E-04
  331.00      8.97770E-04
  333.00      8.89110E-04
  335.00      8.79600E-04
  337.00      8.72980E-04
  339.00      8.65770E-04
  341.00      8.57910E-04
  343.00      8.48270E-04
  345.00      8.38420E-04
  347.00      8.32750E-04
  349.00      8.25330E-04
  351.00      8.18790E-04
  353.00      8.12530E-04
  355.00      8.05080E-04
  357.00      8.01190E-04
  359.00      7.90150E-04
  361.00      7.85060E-04
  363.00      7.76490E-04
  364.00      7.73670E-04
  365.00      7.47210E-04
  367.00      7.42920E-04
  369.00      7.37050E-04
  371.00      7.25620E-04
  373.00      7.15720E-04
  375.00      7.19600E-04
  377.00      7.13380E-04
  379.00      7.35610E-04
  381.00      7.58220E-04
  383.00      6.95830E-04
  385.00      7.71490E-04
  387.00      7.77080E-04
  389.00      6.75740E-04
  391.00      7.73180E-04
  393.00      7.66240E-04
  395.00      7.60080E-04
  397.00      6.51050E-04
  399.00      7.46550E-04
  401.00      7.44100E-04
  403.00      7.18650E-04
  405.00      7.37890E-04
  407.00      7.26790E-04
  409.00      6.91520E-04
  411.00      6.34620E-04
  413.00      7.05930E-04
  415.00      7.03250E-04
  417.00      7.01950E-04
  419.00      6.95420E-04
  421.00      6.87790E-04
  423.00      6.86350E-04
  425.00      6.80080E-04
  427.00      6.73320E-04
  429.00      6.69030E-04
  431.00      6.60860E-04
  433.00      6.22870E-04
  435.00      5.86180E-04
  437.00      6.45220E-04
  439.00      6.32720E-04
  441.00      6.37620E-04
  443.00      6.33030E-04
  445.00      6.29110E-04
  447.00      6.07380E-04
  449.00      6.19340E-04
  451.00      6.14640E-04
  453.00      6.10160E-04
  455.00      6.01220E-04
  457.00      6.01370E-04
  459.00      5.96320E-04
  461.00      5.91960E-04
  463.00      5.86670E-04
  465.00      5.75460E-04
  467.00      5.78280E-04
  469.00      5.65110E-04
  471.00      5.65230E-04
  473.00      5.66930E-04
  475.00      5.62690E-04
  477.00      5.58920E-04
  479.00      5.54850E-04
  481.00      5.50690E-04
  483.00      5.44520E-04
  485.00      5.19120E-04
  487.00      4.80920E-04
  489.00      5.32020E-04
  491.00      5.30710E-04
  493.00      5.19010E-04
  495.00      5.23560E-04
  497.00      5.20410E-04
  499.00      5.16760E-04
  501.00      5.08570E-04
  503.00      5.09470E-04
  505.00      5.04320E-04
  507.00      5.02620E-04
  509.00      4.99140E-04
  511.00      4.95720E-04
  513.00      4.92290E-04
  515.00      4.88920E-04
  517.00      4.85620E-04
  519.00      4.82400E-04
  521.00      4.79180E-04
  523.00      4.75980E-04
  525.00      4.72680E-04
  527.00      4.69530E-04
  529.00      4.66510E-04
  531.00      4.63420E-04
  533.00      4.60380E-04
  535.00      4.57340E-04
  537.00      4.54360E-04
  539.00      4.51360E-04
  541.00      4.45270E-04
  543.00      4.45550E-04
  545.00      4.42660E-04
  547.00      4.39810E-04
  549.00      4.36980E-04
  551.00      4.34160E-04
  553.00      4.31410E-04
  555.00      4.28670E-04
  557.00      4.25940E-04
  559.00      4.23110E-04
  561.00      4.20580E-04
  563.00      4.17940E-04
  565.00      4.15310E-04
  567.00      4.12630E-04
  569.00      4.08210E-04
  571.00      4.01800E-04
  573.00      3.99430E-04
  575.00      3.96960E-04
  577.00      3.94720E-04
  579.00      3.92360E-04
  581.00      3.90000E-04
  583.00      3.87700E-04
  585.00      3.85790E-04
  587.00      3.75830E-04
  589.00      3.81420E-04
  591.00      3.80110E-04
  593.00      3.78340E-04
  595.00      3.76620E-04
  597.00      3.75000E-04
  599.00      3.73310E-04
  601.00      3.72070E-04
  603.00      3.69870E-04
  605.00      3.67740E-04
  607.00      3.65600E-04
  609.00      3.63450E-04
  611.00      3.61320E-04
  613.00      3.59210E-04
  615.00      3.57080E-04
  617.00      3.55010E-04
  619.00      3.52990E-04
  621.00      3.50960E-04
  623.00      3.48930E-04
  625.00      3.46930E-04
  627.00      3.44950E-04
  629.00      3.42980E-04
  631.00      3.41000E-04
  633.00      3.39090E-04
  635.00      3.37170E-04
  637.00      3.35270E-04
  639.00      3.33380E-04
  641.00      3.31490E-04
  643.00      3.29660E-04
  645.00      3.27820E-04
  647.00      3.25940E-04
  649.00      3.24150E-04
  651.00      3.22370E-04
  653.00      3.19230E-04
  655.00      3.11170E-04
  657.00      2.85910E-04
  659.00      3.13370E-04
  661.00      3.13500E-04
  663.00      3.11940E-04
  665.00      3.10310E-04
  667.00      3.06230E-04
  669.00      3.04280E-04
  671.00      3.05240E-04
  673.00      3.03610E-04
  675.00      3.02030E-04
  677.00      3.00460E-04
  679.00      2.98780E-04
  681.00      2.97270E-04
  683.00      2.95680E-04
  685.00      2.94130E-04
  687.00      2.92580E-04
  689.00      2.90590E-04
  691.00      2.89450E-04
  693.00      2.88000E-04
  695.00      2.86500E-04
  697.00      2.85010E-04
  699.00      2.83520E-04
  701.00      2.82040E-04
  703.00      2.80530E-04
  705.00      2.79130E-04
  707.00      2.74560E-04
  709.00      2.76290E-04
  711.00      2.74870E-04
  713.00      2.73480E-04
  715.00      2.72090E-04
  717.00      2.70360E-04
  719.00      2.69180E-04
  721.00      2.67980E-04
  723.00      2.66350E-04
  725.00      2.65260E-04
  727.00      2.63960E-04
  729.00      2.61110E-04
  731.00      2.61310E-04
  733.00      2.60030E-04
  735.00      2.58740E-04
  737.00      2.57460E-04
  739.00      2.56190E-04
  741.00      2.54930E-04
  743.00      2.53670E-04
  745.00      2.52440E-04
  747.00      2.51180E-04
  749.00      2.49930E-04
  751.00      2.48720E-04
  753.00      2.47560E-04
  755.00      2.46370E-04
  757.00      2.45170E-04
  759.00      2.43480E-04
  761.00      2.42780E-04
  763.00      2.41650E-04
  765.00      2.40500E-04
  767.00      2.39350E-04
  769.00      2.38190E-04
  771.00      2.37070E-04
  773.00      2.35920E-04
  775.00      2.34840E-04
  777.00      2.33730E-04
  779.00      2.32640E-04
  781.00      2.31470E-04
  783.00      2.30460E-04
  785.00      2.29510E-04
  787.00      2.28410E-04
  789.00      2.27320E-04
  791.00      2.26320E-04
  793.00      2.25270E-04
  795.00      2.24230E-04
  797.00      2.23110E-04
  799.00      2.22170E-04
  801.00      2.21150E-04
  803.00      2.20120E-04
  805.00      2.19100E-04
  807.00      2.18120E-04
  809.00      2.16920E-04
  811.00      2.15890E-04
  813.00      2.15140E-04
  815.00      2.13960E-04
  817.00      2.13200E-04
  819.00      2.11910E-04
  821.00      2.09650E-04
  823.00      2.08560E-04
  825.00      2.08050E-04
  827.00      2.06680E-04
  829.00      2.06270E-04
  831.00      2.05420E-04
  833.00      2.04420E-04
  835.00      2.02990E-04
  837.00      2.02500E-04
  839.00      2.01790E-04
  841.00      2.00930E-04
  843.00      1.99990E-04
  845.00      1.98370E-04
  847.00      1.98280E-04
  849.00      1.97200E-04
  851.00      1.96360E-04
  853.00      1.95460E-04
  855.00      1.94230E-04
  857.00      1.94650E-04
  859.00      1.91190E-04
  861.00      1.91420E-04
  863.00      1.92920E-04
  865.00      1.90090E-04
  867.00      1.85780E-04
  869.00      1.90530E-04
  871.00      1.91020E-04
  873.00      1.87700E-04
  875.00      1.79190E-04
  877.00      1.84720E-04
  879.00      1.88430E-04
  881.00      1.88230E-04
  883.00      1.86810E-04
  885.00      1.79350E-04
  887.00      1.72170E-04
  889.00      1.83050E-04
  891.00      1.84560E-04
  893.00      1.84120E-04
  895.00      1.83630E-04
  897.00      1.82540E-04
  899.00      1.78940E-04
  901.00      1.66260E-04
  903.00      1.71310E-04
  905.00      1.78440E-04
  907.00      1.77790E-04
  909.00      1.78280E-04
  911.00      1.78120E-04
  913.00      1.77470E-04
  915.00      1.76760E-04
  917.00      1.75370E-04
  919.00      1.74180E-04
  921.00      1.68620E-04
  923.00      1.55420E-04
  925.00      1.67260E-04
  927.00      1.71190E-04
  929.00      1.71320E-04
  931.00      1.70510E-04
  933.00      1.70360E-04
  935.00      1.68870E-04
  937.00      1.69030E-04
  939.00      1.68370E-04
  941.00      1.67690E-04
  943.00      1.67030E-04
  945.00      1.66370E-04
  947.00      1.65000E-04
  949.00      1.64590E-04
  951.00      1.62190E-04
  953.00      1.56880E-04
  955.00      1.45160E-04
  957.00      1.58120E-04
  959.00      1.60800E-04
  961.00      1.60600E-04
  963.00      1.59940E-04
  965.00      1.59940E-04
  967.00      1.59320E-04
  969.00      1.58630E-04
  971.00      1.57440E-04
  973.00      1.57450E-04
  975.00      1.56870E-04
  977.00      1.56260E-04
  979.00      1.55660E-04
  981.00      1.55060E-04
  983.00      1.54470E-04
  985.00      1.53880E-04
  987.00      1.53290E-04
  989.00      1.52700E-04
  991.00      1.52020E-04
  993.00      1.51550E-04
  995.00      1.50980E-04
  997.00      1.50390E-04
  999.00      1.49490E-04
  1002.5      1.43800E-04
  1007.5      1.40990E-04
  1012.5      1.44980E-04
  1017.5      1.44730E-04
  1022.5      1.43360E-04
  1027.5      1.42090E-04
  1032.5      1.40370E-04
  1037.5      1.39510E-04
  1042.5      1.38240E-04
  1047.5      1.37000E-04
  1052.5      1.35770E-04
  1057.5      1.34560E-04
  1062.5      1.33360E-04
  1067.5      1.32020E-04
  1072.5      1.31010E-04
  1077.5      1.29860E-04
  1082.5      1.27790E-04
  1087.5      1.27250E-04
  1092.5      1.18680E-04
  1097.5      1.23110E-04
  1102.5      1.23790E-04
  1107.5      1.23200E-04
  1112.5      1.22220E-04
  1117.5      1.21190E-04
  1122.5      1.20130E-04
  1127.5      1.19160E-04
  1132.5      1.18150E-04
  1137.5      1.17170E-04
  1142.5      1.16200E-04
  1147.5      1.15240E-04
  1152.5      1.14290E-04
  1157.5      1.13350E-04
  1162.5      1.12240E-04
  1167.5      1.11460E-04
  1172.5      1.10610E-04
  1177.5      1.09720E-04
  1182.5      1.08830E-04
  1187.5      1.07960E-04
  1192.5      1.07100E-04
  1197.5      1.05430E-04
  1202.5      1.05410E-04
  1207.5      1.04580E-04
  1212.5      1.03760E-04
  1217.5      1.02950E-04
  1222.5      1.02140E-04
  1227.5      1.01350E-04
  1232.5      1.00570E-04
  1237.5      9.97920E-05
  1242.5      9.90270E-05
  1247.5      9.82690E-05
  1252.5      9.73850E-05
  1257.5      9.67800E-05
  1262.5      9.60490E-05
  1267.5      9.53270E-05
  1272.5      9.45760E-05
  1277.5      9.25690E-05
  1282.5      8.74310E-05
  1287.5      9.19800E-05
  1292.5      9.18290E-05
  1297.5      9.07040E-05
  1302.5      9.04810E-05
  1307.5      8.98250E-05
  1312.5      8.91710E-05
  1317.5      8.85240E-05
  1322.5      8.78840E-05
  1327.5      8.72510E-05
  1332.5      8.66240E-05
  1337.5      8.60030E-05
  1342.5      8.53430E-05
  1347.5      8.47850E-05
  1352.5      8.41840E-05
  1357.5      8.35910E-05
  1362.5      8.29990E-05
  1367.5      8.24230E-05
  1372.5      8.18430E-05
  1377.5      8.12790E-05
  1382.5      8.07150E-05
  1387.5      8.01580E-05
  1392.5      7.96040E-05
  1397.5      7.90590E-05
