 Castelli and Kurucz 2004-2012 Atmosphere
 T     35000.     G    5.00000 [-1.0] VTURB=2  L/H=1.25 NOVER NEW ODF          
 Wavelength  Eddington Hnu
   (nm)    (ergs/s/cm2/Hz/sr)
  9.0900      5.70850E-29
  9.3500      2.76980E-28
  9.6100      1.23680E-27
  9.7700      2.99020E-27
  9.9600      8.23050E-27
  10.200      2.80700E-26
  10.380      6.80330E-26
  10.560      1.60190E-25
  10.770      4.20170E-25
  11.040      1.37830E-24
  11.400      6.18160E-24
  11.780      2.74800E-23
  12.130      1.00460E-22
  12.480      3.43050E-22
  12.710      7.42990E-22
  12.840      1.13700E-21
  13.050      2.22350E-21
  13.240      4.01170E-21
  13.390      6.32300E-21
  13.660      1.40330E-20
  13.980      3.48210E-20
  14.330      9.02680E-20
  14.720      2.48490E-19
  15.100      6.36870E-19
  15.520      1.71590E-18
  15.880      3.86620E-18
  16.200      7.75000E-18
  16.600      1.78700E-17
  17.030      4.21530E-17
  17.340      7.64360E-17
  17.680      1.43670E-16
  18.020      2.64200E-16
  18.170      3.43490E-16
  18.610      7.25500E-16
  19.100      1.60810E-15
  19.390      2.53150E-15
  19.840      4.99780E-15
  20.180      8.20140E-15
  20.500      1.28930E-14
  21.050      2.72450E-14
  21.620      5.69700E-14
  21.980      8.92100E-14
  22.300      1.31360E-13
  22.680      2.04980E-13
  23.000      8.17350E-11
  23.400      4.25910E-10
  24.000      9.49160E-10
  24.650      1.80140E-09
  25.240      2.93740E-09
  25.680      2.98080E-09
  26.000      6.12730E-09
  26.400      1.11960E-08
  26.850      1.63500E-08
  27.350      2.03950E-08
  27.850      2.18250E-08
  28.400      4.05880E-08
  29.000      5.11930E-08
  29.600      5.53400E-08
  30.100      5.63630E-08
  30.800      1.13210E-07
  31.800      2.61240E-07
  32.800      3.36530E-07
  33.800      4.87410E-07
  34.800      6.66140E-07
  35.700      8.68260E-07
  36.600      1.19660E-06
  37.500      1.41800E-06
  38.500      1.81600E-06
  39.500      2.31580E-06
  40.500      2.82830E-06
  41.400      3.42810E-06
  42.200      3.88560E-06
  43.000      4.45990E-06
  44.100      5.52420E-06
  45.100      6.54840E-06
  46.000      7.41380E-06
  47.000      8.79380E-06
  48.000      1.02930E-05
  49.000      1.16560E-05
  50.000      1.37980E-05
  50.600      3.70280E-05
  51.200      1.41480E-04
  52.000      1.38160E-04
  53.000      1.38850E-04
  54.000      1.29110E-04
  55.000      1.47030E-04
  56.000      1.69750E-04
  57.000      1.78350E-04
  58.000      1.71890E-04
  59.000      1.85370E-04
  60.000      1.80770E-04
  61.000      1.93620E-04
  62.000      2.15530E-04
  63.000      2.19620E-04
  64.000      2.23940E-04
  65.000      2.32230E-04
  65.800      2.28620E-04
  66.500      2.40430E-04
  67.500      2.52510E-04
  68.500      2.41330E-04
  69.500      2.68240E-04
  70.500      2.62220E-04
  71.600      2.89160E-04
  72.600      2.93970E-04
  73.500      3.04570E-04
  74.500      3.07720E-04
  75.500      3.14110E-04
  76.500      3.20380E-04
  77.500      3.29820E-04
  78.500      3.43720E-04
  79.500      3.50120E-04
  80.500      3.54840E-04
  81.500      3.64290E-04
  82.500      3.77050E-04
  83.500      3.59920E-04
  84.500      3.89810E-04
  85.500      3.97030E-04
  86.500      4.09880E-04
  87.500      4.18260E-04
  88.500      4.27130E-04
  89.500      4.36390E-04
  90.500      4.39160E-04
  91.500      4.35480E-04
  92.500      9.95940E-04
  93.500      1.57310E-03
  94.500      2.48890E-03
  95.500      2.86830E-03
  96.500      3.62430E-03
  97.500      2.09030E-03
  98.500      3.61550E-03
  99.500      3.33930E-03
  100.50      3.56370E-03
  101.50      3.55360E-03
  102.50      2.29360E-03
  103.50      3.48710E-03
  104.50      3.78470E-03
  105.50      3.75870E-03
  106.50      3.54430E-03
  107.50      3.60900E-03
  108.50      3.33580E-03
  109.50      3.62600E-03
  110.50      3.53420E-03
  111.50      3.52080E-03
  112.50      3.29750E-03
  113.50      3.49560E-03
  114.50      3.41680E-03
  115.50      3.37890E-03
  116.50      3.34410E-03
  117.50      2.81990E-03
  118.50      3.20390E-03
  119.50      3.18890E-03
  120.50      3.06090E-03
  121.50      2.05220E-03
  122.50      3.02430E-03
  123.50      3.17480E-03
  124.50      3.12890E-03
  125.50      3.15240E-03
  126.50      3.17380E-03
  127.50      3.16940E-03
  128.50      3.16190E-03
  129.50      3.03680E-03
  130.50      3.05820E-03
  131.50      3.10330E-03
  132.50      3.04510E-03
  133.50      3.00380E-03
  134.50      3.02360E-03
  135.50      2.99500E-03
  136.50      2.95370E-03
  137.50      2.93200E-03
  138.50      2.90240E-03
  139.50      2.72800E-03
  140.50      2.72790E-03
  141.50      2.83220E-03
  142.50      2.71950E-03
  143.50      2.78170E-03
  144.20      2.78290E-03
  144.70      2.76610E-03
  145.50      2.72580E-03
  146.50      2.71610E-03
  147.50      2.68880E-03
  148.50      2.69820E-03
  149.50      2.65780E-03
  150.50      2.64140E-03
  151.20      2.63510E-03
  151.70      2.61830E-03
  152.50      2.58560E-03
  153.50      2.45360E-03
  154.50      2.33480E-03
  155.50      2.33170E-03
  156.50      2.39290E-03
  157.50      2.43030E-03
  158.50      2.44820E-03
  159.50      2.43350E-03
  160.50      2.34260E-03
  161.50      2.29830E-03
  162.50      2.31550E-03
  163.50      2.30170E-03
  164.50      2.22910E-03
  165.50      2.33780E-03
  166.50      2.32060E-03
  167.20      2.25460E-03
  167.70      2.36230E-03
  168.50      2.32780E-03
  169.50      2.30730E-03
  170.50      2.27860E-03
  171.50      2.23810E-03
  172.50      2.21190E-03
  173.50      2.25970E-03
  174.50      2.24100E-03
  175.50      2.21320E-03
  176.50      2.20720E-03
  177.50      2.19630E-03
  178.50      2.19280E-03
  179.50      2.16930E-03
  180.50      2.16550E-03
  181.50      2.14520E-03
  182.50      2.12750E-03
  183.50      2.12840E-03
  184.50      2.08990E-03
  185.50      2.07140E-03
  186.50      2.06490E-03
  187.50      2.05470E-03
  188.50      2.02390E-03
  189.50      2.00910E-03
  190.50      2.02340E-03
  191.50      1.99330E-03
  192.50      1.94620E-03
  193.50      1.97700E-03
  194.50      1.98050E-03
  195.50      1.92890E-03
  196.70      1.94640E-03
  197.60      1.94880E-03
  198.40      1.92540E-03
  199.50      1.89610E-03
  200.50      1.91030E-03
  201.50      1.90270E-03
  202.50      1.89230E-03
  203.50      1.87370E-03
  204.50      1.86110E-03
  205.50      1.56950E-03
  206.50      1.52800E-03
  207.40      1.54350E-03
  207.80      1.54400E-03
  208.50      1.59040E-03
  209.50      1.67960E-03
  210.50      1.77550E-03
  211.50      1.79050E-03
  212.50      1.77620E-03
  213.50      1.76780E-03
  214.50      1.75650E-03
  215.50      1.75640E-03
  216.50      1.71830E-03
  217.50      1.74210E-03
  218.50      1.70220E-03
  219.50      1.72370E-03
  220.50      1.71530E-03
  221.50      1.66690E-03
  222.50      1.69300E-03
  223.50      1.68330E-03
  224.50      1.67110E-03
  225.50      1.62430E-03
  226.50      1.65240E-03
  227.50      1.64290E-03
  228.50      1.62800E-03
  229.50      1.58080E-03
  230.50      1.57450E-03
  231.50      1.59930E-03
  232.50      1.59220E-03
  233.50      1.58230E-03
  234.50      1.57320E-03
  235.50      1.56330E-03
  236.50      1.55400E-03
  237.50      1.54350E-03
  238.50      1.49700E-03
  239.50      1.51950E-03
  240.50      1.51630E-03
  241.50      1.50700E-03
  242.50      1.49900E-03
  243.50      1.48890E-03
  244.50      1.48080E-03
  245.50      1.47130E-03
  246.50      1.46380E-03
  247.50      1.45520E-03
  248.50      1.44590E-03
  249.50      1.35750E-03
  250.50      1.42350E-03
  251.30      1.35570E-03
  251.80      1.40150E-03
  252.50      1.41290E-03
  253.50      1.40580E-03
  254.50      1.39570E-03
  255.50      1.38800E-03
  256.50      1.38130E-03
  257.50      1.37340E-03
  258.50      1.36590E-03
  259.50      1.35740E-03
  260.50      1.35400E-03
  261.50      1.34580E-03
  262.50      1.33880E-03
  263.50      1.33120E-03
  264.50      1.32310E-03
  265.50      1.31550E-03
  266.50      1.30590E-03
  267.50      1.29610E-03
  268.50      1.29440E-03
  269.50      1.28100E-03
  270.50      1.27940E-03
  271.50      1.27200E-03
  272.50      1.25940E-03
  273.50      1.23570E-03
  274.50      1.25210E-03
  275.50      1.24560E-03
  276.50      1.23160E-03
  277.50      1.23270E-03
  278.50      1.22560E-03
  279.50      1.21220E-03
  280.50      1.21080E-03
  281.50      1.20640E-03
  282.50      1.19220E-03
  283.50      1.18720E-03
  284.50      1.18750E-03
  285.50      1.18070E-03
  286.50      1.17410E-03
  287.50      1.16830E-03
  288.50      1.16220E-03
  289.50      1.15610E-03
  291.00      1.14640E-03
  293.00      1.13530E-03
  295.00      1.11700E-03
  297.00      1.11160E-03
  299.00      1.09900E-03
  301.00      1.08800E-03
  303.00      1.07650E-03
  305.00      1.06640E-03
  307.00      1.05700E-03
  309.00      1.04410E-03
  311.00      1.03570E-03
  313.00      1.02550E-03
  315.00      1.01510E-03
  317.00      1.00510E-03
  319.00      9.89610E-04
  321.00      9.78560E-04
  323.00      9.76830E-04
  325.00      9.67770E-04
  327.00      9.57730E-04
  329.00      9.48960E-04
  331.00      9.40810E-04
  333.00      9.31570E-04
  335.00      9.21490E-04
  337.00      9.14360E-04
  339.00      9.06570E-04
  341.00      8.98190E-04
  343.00      8.87840E-04
  345.00      8.77290E-04
  347.00      8.71230E-04
  349.00      8.63420E-04
  351.00      8.56170E-04
  353.00      8.49540E-04
  355.00      8.41470E-04
  357.00      8.37810E-04
  359.00      8.25180E-04
  361.00      8.20640E-04
  363.00      8.10780E-04
  364.00      8.09180E-04
  365.00      7.84040E-04
  367.00      7.79490E-04
  369.00      7.73580E-04
  371.00      7.60800E-04
  373.00      7.53370E-04
  375.00      7.48930E-04
  377.00      7.35590E-04
  379.00      7.52370E-04
  381.00      7.76090E-04
  383.00      7.09320E-04
  385.00      7.92980E-04
  387.00      8.05170E-04
  389.00      6.84040E-04
  391.00      8.01710E-04
  393.00      8.00390E-04
  395.00      7.88970E-04
  397.00      6.58540E-04
  399.00      7.72870E-04
  401.00      7.75910E-04
  403.00      7.44140E-04
  405.00      7.70280E-04
  407.00      7.58100E-04
  409.00      7.09010E-04
  411.00      6.46090E-04
  413.00      7.34620E-04
  415.00      7.33750E-04
  417.00      7.33640E-04
  419.00      7.26470E-04
  421.00      7.19200E-04
  423.00      7.17170E-04
  425.00      7.10450E-04
  427.00      7.03170E-04
  429.00      6.97930E-04
  431.00      6.87950E-04
  433.00      6.36480E-04
  435.00      5.97630E-04
  437.00      6.70600E-04
  439.00      6.56910E-04
  441.00      6.65100E-04
  443.00      6.60330E-04
  445.00      6.56290E-04
  447.00      6.27880E-04
  449.00      6.45670E-04
  451.00      6.41130E-04
  453.00      6.36130E-04
  455.00      6.26720E-04
  457.00      6.26960E-04
  459.00      6.21630E-04
  461.00      6.16970E-04
  463.00      6.11460E-04
  465.00      6.00280E-04
  467.00      6.02580E-04
  469.00      5.88510E-04
  471.00      5.88080E-04
  473.00      5.90460E-04
  475.00      5.85970E-04
  477.00      5.82000E-04
  479.00      5.77700E-04
  481.00      5.72530E-04
  483.00      5.64970E-04
  485.00      5.30140E-04
  487.00      4.89430E-04
  489.00      5.50940E-04
  491.00      5.50780E-04
  493.00      5.37470E-04
  495.00      5.44690E-04
  497.00      5.41370E-04
  499.00      5.37520E-04
  501.00      5.28360E-04
  503.00      5.29840E-04
  505.00      5.24210E-04
  507.00      5.22620E-04
  509.00      5.18950E-04
  511.00      5.15350E-04
  513.00      5.11740E-04
  515.00      5.08200E-04
  517.00      5.04720E-04
  519.00      5.01330E-04
  521.00      4.97930E-04
  523.00      4.94570E-04
  525.00      4.91120E-04
  527.00      4.87810E-04
  529.00      4.84610E-04
  531.00      4.81380E-04
  533.00      4.78170E-04
  535.00      4.74970E-04
  537.00      4.71830E-04
  539.00      4.68680E-04
  541.00      4.62100E-04
  543.00      4.62570E-04
  545.00      4.59540E-04
  547.00      4.56540E-04
  549.00      4.53570E-04
  551.00      4.50620E-04
  553.00      4.47730E-04
  555.00      4.44850E-04
  557.00      4.41990E-04
  559.00      4.39060E-04
  561.00      4.36370E-04
  563.00      4.33600E-04
  565.00      4.30840E-04
  567.00      4.28040E-04
  569.00      4.23700E-04
  571.00      4.17750E-04
  573.00      4.15240E-04
  575.00      4.12640E-04
  577.00      4.10270E-04
  579.00      4.07780E-04
  581.00      4.05290E-04
  583.00      4.02780E-04
  585.00      4.00530E-04
  587.00      3.88630E-04
  589.00      3.95260E-04
  591.00      3.94070E-04
  593.00      3.92070E-04
  595.00      3.90100E-04
  597.00      3.88270E-04
  599.00      3.86350E-04
  601.00      3.84500E-04
  603.00      3.82860E-04
  605.00      3.80990E-04
  607.00      3.78750E-04
  609.00      3.76510E-04
  611.00      3.74290E-04
  613.00      3.72080E-04
  615.00      3.69850E-04
  617.00      3.67700E-04
  619.00      3.65580E-04
  621.00      3.63450E-04
  623.00      3.61340E-04
  625.00      3.59240E-04
  627.00      3.57180E-04
  629.00      3.55120E-04
  631.00      3.53080E-04
  633.00      3.51060E-04
  635.00      3.49050E-04
  637.00      3.47070E-04
  639.00      3.45100E-04
  641.00      3.43140E-04
  643.00      3.41210E-04
  645.00      3.39290E-04
  647.00      3.37330E-04
  649.00      3.35460E-04
  651.00      3.33260E-04
  653.00      3.29800E-04
  655.00      3.18430E-04
  657.00      2.91360E-04
  659.00      3.22930E-04
  661.00      3.23860E-04
  663.00      3.22720E-04
  665.00      3.21030E-04
  667.00      3.16320E-04
  669.00      3.14410E-04
  671.00      3.15750E-04
  673.00      3.14050E-04
  675.00      3.12400E-04
  677.00      3.10760E-04
  679.00      3.09010E-04
  681.00      3.07430E-04
  683.00      3.05780E-04
  685.00      3.04160E-04
  687.00      3.02540E-04
  689.00      3.00670E-04
  691.00      2.99290E-04
  693.00      2.97780E-04
  695.00      2.96210E-04
  697.00      2.94660E-04
  699.00      2.93120E-04
  701.00      2.91580E-04
  703.00      2.90010E-04
  705.00      2.88550E-04
  707.00      2.83610E-04
  709.00      2.85590E-04
  711.00      2.84110E-04
  713.00      2.82660E-04
  715.00      2.81210E-04
  717.00      2.79520E-04
  719.00      2.78220E-04
  721.00      2.76930E-04
  723.00      2.75240E-04
  725.00      2.74110E-04
  727.00      2.72750E-04
  729.00      2.69730E-04
  731.00      2.70000E-04
  733.00      2.68660E-04
  735.00      2.67320E-04
  737.00      2.65990E-04
  739.00      2.64670E-04
  741.00      2.63360E-04
  743.00      2.62050E-04
  745.00      2.60780E-04
  747.00      2.59460E-04
  749.00      2.58180E-04
  751.00      2.56910E-04
  753.00      2.55700E-04
  755.00      2.54460E-04
  757.00      2.53220E-04
  759.00      2.51580E-04
  761.00      2.50740E-04
  763.00      2.49560E-04
  765.00      2.48360E-04
  767.00      2.47170E-04
  769.00      2.45970E-04
  771.00      2.44800E-04
  773.00      2.43610E-04
  775.00      2.42480E-04
  777.00      2.41330E-04
  779.00      2.40190E-04
  781.00      2.38990E-04
  783.00      2.37930E-04
  785.00      2.36950E-04
  787.00      2.35810E-04
  789.00      2.34680E-04
  791.00      2.33630E-04
  793.00      2.32550E-04
  795.00      2.31470E-04
  797.00      2.30350E-04
  799.00      2.29330E-04
  801.00      2.28270E-04
  803.00      2.27200E-04
  805.00      2.26170E-04
  807.00      2.25130E-04
  809.00      2.23940E-04
  811.00      2.22870E-04
  813.00      2.22030E-04
  815.00      2.20850E-04
  817.00      2.20020E-04
  819.00      2.18660E-04
  821.00      2.16550E-04
  823.00      2.15420E-04
  825.00      2.14810E-04
  827.00      2.13480E-04
  829.00      2.13020E-04
  831.00      2.12150E-04
  833.00      2.11100E-04
  835.00      2.09680E-04
  837.00      2.09140E-04
  839.00      2.08410E-04
  841.00      2.07500E-04
  843.00      2.06530E-04
  845.00      2.04880E-04
  847.00      2.04790E-04
  849.00      2.03690E-04
  851.00      2.02910E-04
  853.00      2.01800E-04
  855.00      2.01000E-04
  857.00      2.00570E-04
  859.00      1.97750E-04
  861.00      1.98130E-04
  863.00      1.98500E-04
  865.00      1.96020E-04
  867.00      1.93520E-04
  869.00      1.95970E-04
  871.00      1.96160E-04
  873.00      1.92930E-04
  875.00      1.87100E-04
  877.00      1.90120E-04
  879.00      1.93300E-04
  881.00      1.93260E-04
  883.00      1.91540E-04
  885.00      1.84250E-04
  887.00      1.78890E-04
  889.00      1.87550E-04
  891.00      1.89540E-04
  893.00      1.89370E-04
  895.00      1.88880E-04
  897.00      1.87480E-04
  899.00      1.83120E-04
  901.00      1.71450E-04
  903.00      1.75460E-04
  905.00      1.82780E-04
  907.00      1.82650E-04
  909.00      1.83470E-04
  911.00      1.83250E-04
  913.00      1.82590E-04
  915.00      1.81730E-04
  917.00      1.80370E-04
  919.00      1.78690E-04
  921.00      1.72120E-04
  923.00      1.59780E-04
  925.00      1.70510E-04
  927.00      1.75520E-04
  929.00      1.76190E-04
  931.00      1.75440E-04
  933.00      1.75550E-04
  935.00      1.73970E-04
  937.00      1.74200E-04
  939.00      1.73540E-04
  941.00      1.72830E-04
  943.00      1.72140E-04
  945.00      1.71390E-04
  947.00      1.69640E-04
  949.00      1.69230E-04
  951.00      1.66240E-04
  953.00      1.59750E-04
  955.00      1.48540E-04
  957.00      1.61060E-04
  959.00      1.64910E-04
  961.00      1.65140E-04
  963.00      1.64530E-04
  965.00      1.64800E-04
  967.00      1.64160E-04
  969.00      1.63430E-04
  971.00      1.62260E-04
  973.00      1.62230E-04
  975.00      1.61620E-04
  977.00      1.61000E-04
  979.00      1.60370E-04
  981.00      1.59750E-04
  983.00      1.59140E-04
  985.00      1.58530E-04
  987.00      1.57920E-04
  989.00      1.57300E-04
  991.00      1.56600E-04
  993.00      1.56120E-04
  995.00      1.55520E-04
  997.00      1.54630E-04
  999.00      1.53660E-04
  1002.5      1.46860E-04
  1007.5      1.43960E-04
  1012.5      1.49060E-04
  1017.5      1.49070E-04
  1022.5      1.47640E-04
  1027.5      1.46330E-04
  1032.5      1.44500E-04
  1037.5      1.43660E-04
  1042.5      1.42350E-04
  1047.5      1.41070E-04
  1052.5      1.39800E-04
  1057.5      1.38540E-04
  1062.5      1.37310E-04
  1067.5      1.35910E-04
  1072.5      1.34880E-04
  1077.5      1.33690E-04
  1082.5      1.31520E-04
  1087.5      1.30660E-04
  1092.5      1.21010E-04
  1097.5      1.25710E-04
  1102.5      1.27210E-04
  1107.5      1.26750E-04
  1112.5      1.25790E-04
  1117.5      1.24730E-04
  1122.5      1.23630E-04
  1127.5      1.22630E-04
  1132.5      1.21590E-04
  1137.5      1.20580E-04
  1142.5      1.19570E-04
  1147.5      1.18580E-04
  1152.5      1.17600E-04
  1157.5      1.16630E-04
  1162.5      1.15490E-04
  1167.5      1.14700E-04
  1172.5      1.13800E-04
  1177.5      1.12880E-04
  1182.5      1.11960E-04
  1187.5      1.11070E-04
  1192.5      1.10180E-04
  1197.5      1.08280E-04
  1202.5      1.08430E-04
  1207.5      1.07570E-04
  1212.5      1.06720E-04
  1217.5      1.05890E-04
  1222.5      1.05060E-04
  1227.5      1.04240E-04
  1232.5      1.03430E-04
  1237.5      1.02630E-04
  1242.5      1.01850E-04
  1247.5      1.01060E-04
  1252.5      1.00140E-04
  1257.5      9.95280E-05
  1262.5      9.87730E-05
  1267.5      9.80280E-05
  1272.5      9.71370E-05
  1277.5      9.47750E-05
  1282.5      8.90050E-05
  1287.5      9.42400E-05
  1292.5      9.43150E-05
  1297.5      9.31840E-05
  1302.5      9.30310E-05
  1307.5      9.23550E-05
  1312.5      9.16810E-05
  1317.5      9.10140E-05
  1322.5      9.03540E-05
  1327.5      8.97010E-05
  1332.5      8.90550E-05
  1337.5      8.84150E-05
  1342.5      8.77350E-05
  1347.5      8.71590E-05
  1352.5      8.65390E-05
  1357.5      8.59290E-05
  1362.5      8.53180E-05
  1367.5      8.47240E-05
  1372.5      8.41260E-05
  1377.5      8.35450E-05
  1382.5      8.29640E-05
  1387.5      8.23890E-05
  1392.5      8.18190E-05
  1397.5      8.12570E-05
