 Castelli and Kurucz 2004-2012 Atmosphere
 T     47000.     G    5.00000 [-1.0] VTURB=2  L/H=1.25 NOVER NEW ODF          
 Wavelength  Eddington Hnu
   (nm)    (ergs/s/cm2/Hz/sr)
  9.0900      1.87920E-19
  9.3500      5.15930E-19
  9.6100      1.33350E-18
  9.7700      2.35360E-18
  9.9600      4.48550E-18
  10.200      9.79400E-18
  10.380      1.72060E-17
  10.560      2.96680E-17
  10.770      5.47800E-17
  11.040      1.16590E-16
  11.400      3.02640E-16
  11.780      7.81320E-16
  12.130      1.78340E-15
  12.480      3.89530E-15
  12.710      6.37540E-15
  12.840      8.36680E-15
  13.050      1.28100E-14
  13.240      1.86490E-14
  13.390      2.49260E-14
  13.660      4.13460E-14
  13.980      7.39480E-14
  14.330      1.35600E-13
  14.720      2.55930E-13
  15.100      4.72260E-13
  15.520      8.90850E-13
  15.880      1.50080E-12
  16.200      2.36090E-12
  16.600      4.05160E-12
  17.030      7.00380E-12
  17.340      1.02600E-11
  17.680      1.54990E-11
  18.020      2.30080E-11
  18.170      2.69330E-11
  18.610      4.42200E-11
  19.100      7.39660E-11
  19.390      9.97520E-11
  19.840      1.54910E-10
  20.180      2.13430E-10
  20.500      2.87350E-10
  21.050      4.67910E-10
  21.620      7.56150E-10
  21.980      1.01520E-09
  22.300      1.30390E-09
  22.680      1.73560E-09
  23.000      1.52420E-07
  23.400      8.81640E-07
  24.000      5.40680E-06
  24.650      3.35410E-05
  25.240      9.03870E-05
  25.680      9.22690E-05
  26.000      1.58880E-04
  26.400      2.93600E-04
  26.850      3.50670E-04
  27.350      4.14020E-04
  27.850      3.82010E-04
  28.400      5.43640E-04
  29.000      6.42900E-04
  29.600      5.58260E-04
  30.100      2.51660E-04
  30.800      3.72090E-04
  31.800      3.61140E-04
  32.800      4.30810E-04
  33.800      3.66780E-04
  34.800      3.81020E-04
  35.700      6.30100E-04
  36.600      8.54220E-04
  37.500      9.67710E-04
  38.500      8.92110E-04
  39.500      1.14850E-03
  40.500      1.35550E-03
  41.400      1.40620E-03
  42.200      1.38390E-03
  43.000      1.36320E-03
  44.100      1.56350E-03
  45.100      1.63980E-03
  46.000      1.57720E-03
  47.000      1.63760E-03
  48.000      1.75700E-03
  49.000      1.66360E-03
  50.000      1.86040E-03
  50.600      1.74830E-03
  51.200      2.08510E-03
  52.000      2.05880E-03
  53.000      2.04180E-03
  54.000      1.89350E-03
  55.000      1.81630E-03
  56.000      2.16390E-03
  57.000      2.25430E-03
  58.000      2.25360E-03
  59.000      2.31530E-03
  60.000      2.25190E-03
  61.000      2.16830E-03
  62.000      2.40740E-03
  63.000      2.36740E-03
  64.000      2.48920E-03
  65.000      2.45120E-03
  65.800      2.37200E-03
  66.500      2.52090E-03
  67.500      2.57880E-03
  68.500      2.47800E-03
  69.500      2.61770E-03
  70.500      2.50910E-03
  71.600      2.67000E-03
  72.600      2.71480E-03
  73.500      2.73280E-03
  74.500      2.71290E-03
  75.500      2.70570E-03
  76.500      2.64830E-03
  77.500      2.73650E-03
  78.500      2.70230E-03
  79.500      2.76150E-03
  80.500      2.79440E-03
  81.500      2.81870E-03
  82.500      2.84200E-03
  83.500      2.72420E-03
  84.500      2.85310E-03
  85.500      2.82390E-03
  86.500      2.88400E-03
  87.500      2.90410E-03
  88.500      2.89600E-03
  89.500      2.90470E-03
  90.500      2.88280E-03
  91.500      2.22710E-03
  92.500      3.48630E-03
  93.500      4.45660E-03
  94.500      5.42200E-03
  95.500      6.00840E-03
  96.500      6.80280E-03
  97.500      5.35930E-03
  98.500      6.62720E-03
  99.500      6.12930E-03
  100.50      6.51170E-03
  101.50      6.51860E-03
  102.50      5.40080E-03
  103.50      6.57860E-03
  104.50      6.67010E-03
  105.50      6.63220E-03
  106.50      6.42680E-03
  107.50      6.48280E-03
  108.50      6.10200E-03
  109.50      6.41700E-03
  110.50      6.31350E-03
  111.50      6.26590E-03
  112.50      6.12950E-03
  113.50      6.22620E-03
  114.50      6.19310E-03
  115.50      6.07320E-03
  116.50      5.94560E-03
  117.50      5.60520E-03
  118.50      5.86510E-03
  119.50      5.78650E-03
  120.50      5.74170E-03
  121.50      4.71490E-03
  122.50      5.63760E-03
  123.50      5.55070E-03
  124.50      5.49970E-03
  125.50      5.57110E-03
  126.50      5.54310E-03
  127.50      5.50520E-03
  128.50      5.46910E-03
  129.50      5.42780E-03
  130.50      5.34940E-03
  131.50      5.32230E-03
  132.50      5.26090E-03
  133.50      5.24280E-03
  134.50      5.21160E-03
  135.50      5.11210E-03
  136.50      5.01090E-03
  137.50      4.92130E-03
  138.50      4.94730E-03
  139.50      4.87590E-03
  140.50      4.76070E-03
  141.50      4.88760E-03
  142.50      4.78860E-03
  143.50      4.81620E-03
  144.20      4.72440E-03
  144.70      4.71850E-03
  145.50      4.66860E-03
  146.50      4.64970E-03
  147.50      4.63600E-03
  148.50      4.65090E-03
  149.50      4.59610E-03
  150.50      4.57830E-03
  151.20      4.57100E-03
  151.70      4.51780E-03
  152.50      4.50890E-03
  153.50      4.40090E-03
  154.50      4.15520E-03
  155.50      4.16580E-03
  156.50      4.28070E-03
  157.50      4.29100E-03
  158.50      4.25110E-03
  159.50      4.22750E-03
  160.50      4.14440E-03
  161.50      4.10760E-03
  162.50      4.07250E-03
  163.50      4.00440E-03
  164.50      3.84140E-03
  165.50      4.04260E-03
  166.50      4.02680E-03
  167.20      3.94730E-03
  167.70      4.01300E-03
  168.50      3.98710E-03
  169.50      3.96430E-03
  170.50      3.92010E-03
  171.50      3.82830E-03
  172.50      3.82910E-03
  173.50      3.85710E-03
  174.50      3.82110E-03
  175.50      3.78360E-03
  176.50      3.76760E-03
  177.50      3.74200E-03
  178.50      3.72220E-03
  179.50      3.68460E-03
  180.50      3.66110E-03
  181.50      3.63540E-03
  182.50      3.60720E-03
  183.50      3.58550E-03
  184.50      3.56000E-03
  185.50      3.53170E-03
  186.50      3.50690E-03
  187.50      3.47930E-03
  188.50      3.45210E-03
  189.50      3.44030E-03
  190.50      3.41640E-03
  191.50      3.39130E-03
  192.50      3.33980E-03
  193.50      3.34550E-03
  194.50      3.32270E-03
  195.50      3.29430E-03
  196.70      3.27070E-03
  197.60      3.24840E-03
  198.40      3.23330E-03
  199.50      3.20750E-03
  200.50      3.18710E-03
  201.50      3.16500E-03
  202.50      3.14330E-03
  203.50      3.12090E-03
  204.50      3.09320E-03
  205.50      2.38050E-03
  206.50      2.29760E-03
  207.40      2.33410E-03
  207.80      2.37990E-03
  208.50      2.50700E-03
  209.50      2.78180E-03
  210.50      2.95010E-03
  211.50      2.96280E-03
  212.50      2.94140E-03
  213.50      2.91860E-03
  214.50      2.90350E-03
  215.50      2.92950E-03
  216.50      2.82360E-03
  217.50      2.91620E-03
  218.50      2.79460E-03
  219.50      2.87980E-03
  220.50      2.86760E-03
  221.50      2.73340E-03
  222.50      2.83030E-03
  223.50      2.81570E-03
  224.50      2.79160E-03
  225.50      2.66710E-03
  226.50      2.75960E-03
  227.50      2.74420E-03
  228.50      2.72210E-03
  229.50      2.68630E-03
  230.50      2.58610E-03
  231.50      2.66580E-03
  232.50      2.65640E-03
  233.50      2.63990E-03
  234.50      2.62180E-03
  235.50      2.60490E-03
  236.50      2.58810E-03
  237.50      2.56910E-03
  238.50      2.45420E-03
  239.50      2.52860E-03
  240.50      2.51780E-03
  241.50      2.50360E-03
  242.50      2.49310E-03
  243.50      2.47630E-03
  244.50      2.46150E-03
  245.50      2.44180E-03
  246.50      2.43100E-03
  247.50      2.41760E-03
  248.50      2.40100E-03
  249.50      2.32640E-03
  250.50      2.35830E-03
  251.30      2.18720E-03
  251.80      2.33240E-03
  252.50      2.33360E-03
  253.50      2.33020E-03
  254.50      2.31700E-03
  255.50      2.30260E-03
  256.50      2.28940E-03
  257.50      2.27540E-03
  258.50      2.26190E-03
  259.50      2.24060E-03
  260.50      2.23570E-03
  261.50      2.21930E-03
  262.50      2.20980E-03
  263.50      2.19700E-03
  264.50      2.18320E-03
  265.50      2.17150E-03
  266.50      2.15830E-03
  267.50      2.14140E-03
  268.50      2.13270E-03
  269.50      2.11940E-03
  270.50      2.10960E-03
  271.50      2.09700E-03
  272.50      2.08310E-03
  273.50      2.00300E-03
  274.50      2.06160E-03
  275.50      2.04980E-03
  276.50      2.03770E-03
  277.50      2.02670E-03
  278.50      2.01430E-03
  279.50      2.00200E-03
  280.50      1.99260E-03
  281.50      1.98170E-03
  282.50      1.96920E-03
  283.50      1.95960E-03
  284.50      1.94940E-03
  285.50      1.93860E-03
  286.50      1.92760E-03
  287.50      1.91720E-03
  288.50      1.90690E-03
  289.50      1.89620E-03
  291.00      1.88070E-03
  293.00      1.86080E-03
  295.00      1.84010E-03
  297.00      1.82020E-03
  299.00      1.79880E-03
  301.00      1.78110E-03
  303.00      1.75980E-03
  305.00      1.74220E-03
  307.00      1.72400E-03
  309.00      1.70850E-03
  311.00      1.69080E-03
  313.00      1.67270E-03
  315.00      1.65690E-03
  317.00      1.63950E-03
  319.00      1.62160E-03
  321.00      1.57900E-03
  323.00      1.59150E-03
  325.00      1.57570E-03
  327.00      1.55570E-03
  329.00      1.54410E-03
  331.00      1.52890E-03
  333.00      1.51410E-03
  335.00      1.49760E-03
  337.00      1.48470E-03
  339.00      1.47020E-03
  341.00      1.45570E-03
  343.00      1.44310E-03
  345.00      1.42790E-03
  347.00      1.41580E-03
  349.00      1.40250E-03
  351.00      1.38970E-03
  353.00      1.37620E-03
  355.00      1.36330E-03
  357.00      1.35130E-03
  359.00      1.33820E-03
  361.00      1.32610E-03
  363.00      1.31330E-03
  364.00      1.28200E-03
  365.00      1.17120E-03
  367.00      1.16220E-03
  369.00      1.15460E-03
  371.00      1.15220E-03
  373.00      1.15790E-03
  375.00      1.17050E-03
  377.00      1.18250E-03
  379.00      1.20180E-03
  381.00      1.22070E-03
  383.00      1.17140E-03
  385.00      1.21610E-03
  387.00      1.22270E-03
  389.00      1.12670E-03
  391.00      1.20620E-03
  393.00      1.19240E-03
  395.00      1.18810E-03
  397.00      1.08490E-03
  399.00      1.16630E-03
  401.00      1.16310E-03
  403.00      1.13260E-03
  405.00      1.14730E-03
  407.00      1.13570E-03
  409.00      1.09600E-03
  411.00      1.03960E-03
  413.00      1.10530E-03
  415.00      1.09930E-03
  417.00      1.09120E-03
  419.00      1.07530E-03
  421.00      1.05560E-03
  423.00      1.06470E-03
  425.00      1.05600E-03
  427.00      1.04740E-03
  429.00      1.03890E-03
  431.00      1.02820E-03
  433.00      9.86700E-04
  435.00      9.51710E-04
  437.00      1.00280E-03
  439.00      9.95400E-04
  441.00      9.89450E-04
  443.00      9.81920E-04
  445.00      9.74160E-04
  447.00      9.60500E-04
  449.00      9.59060E-04
  451.00      9.51260E-04
  453.00      9.41570E-04
  455.00      9.17920E-04
  457.00      9.29850E-04
  459.00      9.22780E-04
  461.00      9.15700E-04
  463.00      9.07880E-04
  465.00      8.98090E-04
  467.00      8.93560E-04
  469.00      8.57050E-04
  471.00      8.80530E-04
  473.00      8.75210E-04
  475.00      8.68710E-04
  477.00      8.62260E-04
  479.00      8.55850E-04
  481.00      8.49550E-04
  483.00      8.41640E-04
  485.00      8.15120E-04
  487.00      7.76470E-04
  489.00      8.22190E-04
  491.00      8.18990E-04
  493.00      8.10770E-04
  495.00      8.07410E-04
  497.00      8.01630E-04
  499.00      7.95950E-04
  501.00      7.89070E-04
  503.00      7.84670E-04
  505.00      7.78910E-04
  507.00      7.73690E-04
  509.00      7.68300E-04
  511.00      7.62950E-04
  513.00      7.57630E-04
  515.00      7.52390E-04
  517.00      7.47210E-04
  519.00      7.42070E-04
  521.00      7.36980E-04
  523.00      7.31950E-04
  525.00      7.26900E-04
  527.00      7.21900E-04
  529.00      7.17160E-04
  531.00      7.12330E-04
  533.00      7.07530E-04
  535.00      7.02810E-04
  537.00      6.98120E-04
  539.00      6.93470E-04
  541.00      6.74250E-04
  543.00      6.84000E-04
  545.00      6.79830E-04
  547.00      6.75360E-04
  549.00      6.70950E-04
  551.00      6.66510E-04
  553.00      6.62250E-04
  555.00      6.57960E-04
  557.00      6.53670E-04
  559.00      6.49100E-04
  561.00      6.45330E-04
  563.00      6.41200E-04
  565.00      6.37110E-04
  567.00      6.33060E-04
  569.00      6.21220E-04
  571.00      5.84690E-04
  573.00      5.81290E-04
  575.00      5.77910E-04
  577.00      5.74620E-04
  579.00      5.71490E-04
  581.00      5.67940E-04
  583.00      5.66330E-04
  585.00      5.64580E-04
  587.00      5.60720E-04
  589.00      5.62250E-04
  591.00      5.61750E-04
  593.00      5.61570E-04
  595.00      5.61830E-04
  597.00      5.62340E-04
  599.00      5.63600E-04
  601.00      5.63170E-04
  603.00      5.62890E-04
  605.00      5.62280E-04
  607.00      5.58920E-04
  609.00      5.56150E-04
  611.00      5.53200E-04
  613.00      5.50180E-04
  615.00      5.47720E-04
  617.00      5.42740E-04
  619.00      5.41110E-04
  621.00      5.38150E-04
  623.00      5.33010E-04
  625.00      5.31230E-04
  627.00      5.28790E-04
  629.00      5.25720E-04
  631.00      5.19860E-04
  633.00      5.19300E-04
  635.00      5.16700E-04
  637.00      5.13740E-04
  639.00      5.10320E-04
  641.00      5.04190E-04
  643.00      5.04910E-04
  645.00      5.02140E-04
  647.00      4.99280E-04
  649.00      4.96490E-04
  651.00      4.93040E-04
  653.00      4.85440E-04
  655.00      4.80480E-04
  657.00      4.53460E-04
  659.00      4.81130E-04
  661.00      4.80100E-04
  663.00      4.77460E-04
  665.00      4.74830E-04
  667.00      4.70240E-04
  669.00      4.63100E-04
  671.00      4.66970E-04
  673.00      4.64520E-04
  675.00      4.61980E-04
  677.00      4.59500E-04
  679.00      4.57020E-04
  681.00      4.54550E-04
  683.00      4.52110E-04
  685.00      4.49680E-04
  687.00      4.47240E-04
  689.00      4.38290E-04
  691.00      4.42030E-04
  693.00      4.40170E-04
  695.00      4.37850E-04
  697.00      4.35540E-04
  699.00      4.33240E-04
  701.00      4.30960E-04
  703.00      4.28660E-04
  705.00      4.26450E-04
  707.00      4.23100E-04
  709.00      4.22040E-04
  711.00      4.19850E-04
  713.00      4.17680E-04
  715.00      4.15520E-04
  717.00      4.08850E-04
  719.00      4.08360E-04
  721.00      4.09160E-04
  723.00      4.07080E-04
  725.00      4.05000E-04
  727.00      4.02950E-04
  729.00      4.00570E-04
  731.00      3.98860E-04
  733.00      3.96870E-04
  735.00      3.94870E-04
  737.00      3.92890E-04
  739.00      3.90920E-04
  741.00      3.88970E-04
  743.00      3.87040E-04
  745.00      3.85080E-04
  747.00      3.83210E-04
  749.00      3.81260E-04
  751.00      3.79430E-04
  753.00      3.77570E-04
  755.00      3.75720E-04
  757.00      3.73870E-04
  759.00      3.65420E-04
  761.00      3.69610E-04
  763.00      3.68440E-04
  765.00      3.66660E-04
  767.00      3.64890E-04
  769.00      3.63090E-04
  771.00      3.61370E-04
  773.00      3.59600E-04
  775.00      3.57920E-04
  777.00      3.56220E-04
  779.00      3.54520E-04
  781.00      3.52830E-04
  783.00      3.51160E-04
  785.00      3.49490E-04
  787.00      3.47850E-04
  789.00      3.46220E-04
  791.00      3.44600E-04
  793.00      3.42980E-04
  795.00      3.41380E-04
  797.00      3.39760E-04
  799.00      3.38200E-04
  801.00      3.36630E-04
  803.00      3.35060E-04
  805.00      3.33520E-04
  807.00      3.31980E-04
  809.00      3.30460E-04
  811.00      3.28940E-04
  813.00      3.27430E-04
  815.00      3.25940E-04
  817.00      3.24420E-04
  819.00      3.21610E-04
  821.00      3.08620E-04
  823.00      3.05330E-04
  825.00      3.05460E-04
  827.00      3.04650E-04
  829.00      3.03380E-04
  831.00      3.02090E-04
  833.00      3.00770E-04
  835.00      2.99500E-04
  837.00      2.98280E-04
  839.00      2.97070E-04
  841.00      2.95910E-04
  843.00      2.94760E-04
  845.00      2.93590E-04
  847.00      2.92580E-04
  849.00      2.91650E-04
  851.00      2.90650E-04
  853.00      2.89780E-04
  855.00      2.88720E-04
  857.00      2.88070E-04
  859.00      2.86920E-04
  861.00      2.86170E-04
  863.00      2.85830E-04
  865.00      2.84750E-04
  867.00      2.83090E-04
  869.00      2.83630E-04
  871.00      2.83260E-04
  873.00      2.82100E-04
  875.00      2.78850E-04
  877.00      2.80240E-04
  879.00      2.80890E-04
  881.00      2.80560E-04
  883.00      2.79730E-04
  885.00      2.75950E-04
  887.00      2.71730E-04
  889.00      2.76050E-04
  891.00      2.76470E-04
  893.00      2.75830E-04
  895.00      2.75030E-04
  897.00      2.73610E-04
  899.00      2.70850E-04
  901.00      2.62580E-04
  903.00      2.64640E-04
  905.00      2.68300E-04
  907.00      2.68040E-04
  909.00      2.67430E-04
  911.00      2.66070E-04
  913.00      2.65600E-04
  915.00      2.64560E-04
  917.00      2.63150E-04
  919.00      2.61260E-04
  921.00      2.57320E-04
  923.00      2.47110E-04
  925.00      2.54570E-04
  927.00      2.56880E-04
  929.00      2.56730E-04
  931.00      2.55930E-04
  933.00      2.54420E-04
  935.00      2.47870E-04
  937.00      2.51820E-04
  939.00      2.51780E-04
  941.00      2.50910E-04
  943.00      2.49920E-04
  945.00      2.48920E-04
  947.00      2.47820E-04
  949.00      2.46660E-04
  951.00      2.44560E-04
  953.00      2.40070E-04
  955.00      2.29870E-04
  957.00      2.39390E-04
  959.00      2.41110E-04
  961.00      2.40940E-04
  963.00      2.40130E-04
  965.00      2.39250E-04
  967.00      2.38320E-04
  969.00      2.37390E-04
  971.00      2.36310E-04
  973.00      2.35530E-04
  975.00      2.34210E-04
  977.00      2.32400E-04
  979.00      2.32810E-04
  981.00      2.31920E-04
  983.00      2.31020E-04
  985.00      2.30140E-04
  987.00      2.29250E-04
  989.00      2.28380E-04
  991.00      2.27500E-04
  993.00      2.26640E-04
  995.00      2.25770E-04
  997.00      2.24910E-04
  999.00      2.23920E-04
  1002.5      2.18570E-04
  1007.5      2.14910E-04
  1012.5      2.14730E-04
  1017.5      2.16390E-04
  1022.5      2.14390E-04
  1027.5      2.12410E-04
  1032.5      2.10360E-04
  1037.5      2.08540E-04
  1042.5      2.05570E-04
  1047.5      2.04770E-04
  1052.5      2.02930E-04
  1057.5      2.01110E-04
  1062.5      1.99310E-04
  1067.5      1.97530E-04
  1072.5      1.95790E-04
  1077.5      1.94060E-04
  1082.5      1.92000E-04
  1087.5      1.90420E-04
  1092.5      1.82320E-04
  1097.5      1.85430E-04
  1102.5      1.85690E-04
  1107.5      1.84160E-04
  1112.5      1.82590E-04
  1117.5      1.81140E-04
  1122.5      1.79600E-04
  1127.5      1.78080E-04
  1132.5      1.76580E-04
  1137.5      1.75100E-04
  1142.5      1.73640E-04
  1147.5      1.72200E-04
  1152.5      1.70770E-04
  1157.5      1.69360E-04
  1162.5      1.66020E-04
  1167.5      1.65200E-04
  1172.5      1.65240E-04
  1177.5      1.63900E-04
  1182.5      1.62580E-04
  1187.5      1.61270E-04
  1192.5      1.59980E-04
  1197.5      1.58560E-04
  1202.5      1.57440E-04
  1207.5      1.56190E-04
  1212.5      1.54960E-04
  1217.5      1.53740E-04
  1222.5      1.52540E-04
  1227.5      1.51350E-04
  1232.5      1.50170E-04
  1237.5      1.49010E-04
  1242.5      1.47860E-04
  1247.5      1.46720E-04
  1252.5      1.45580E-04
  1257.5      1.44490E-04
  1262.5      1.43390E-04
  1267.5      1.42310E-04
  1272.5      1.41230E-04
  1277.5      1.39350E-04
  1282.5      1.33600E-04
  1287.5      1.37700E-04
  1292.5      1.37060E-04
  1297.5      1.36010E-04
  1302.5      1.35040E-04
  1307.5      1.34050E-04
  1312.5      1.33070E-04
  1317.5      1.32100E-04
  1322.5      1.31140E-04
  1327.5      1.30190E-04
  1332.5      1.29250E-04
  1337.5      1.28320E-04
  1342.5      1.27400E-04
  1347.5      1.26490E-04
  1352.5      1.25590E-04
  1357.5      1.24700E-04
  1362.5      1.23820E-04
  1367.5      1.22950E-04
  1372.5      1.22090E-04
  1377.5      1.21240E-04
  1382.5      1.20390E-04
  1387.5      1.19560E-04
  1392.5      1.18730E-04
  1397.5      1.17910E-04
