 Castelli and Kurucz 2004-2012 Atmosphere
 T     36000.     G    5.00000 [-1.0] VTURB=2  L/H=1.25 NOVER NEW ODF          
 Wavelength  Eddington Hnu
   (nm)    (ergs/s/cm2/Hz/sr)
  9.0900      8.49950E-28
  9.3500      3.82270E-27
  9.6100      1.58940E-26
  9.7700      3.68710E-26
  9.9600      9.67910E-26
  10.200      3.11900E-25
  10.380      7.26040E-25
  10.560      1.64430E-24
  10.770      4.12990E-24
  11.040      1.28510E-23
  11.400      5.39370E-23
  11.780      2.24720E-22
  12.130      7.76510E-22
  12.480      2.51500E-21
  12.710      5.26890E-21
  12.840      7.91620E-21
  13.050      1.50380E-20
  13.240      2.64550E-20
  13.390      4.08930E-20
  13.660      8.76910E-20
  13.980      2.09380E-19
  14.330      5.21330E-19
  14.720      1.37360E-18
  15.100      3.38550E-18
  15.520      8.75420E-18
  15.880      1.90830E-17
  16.200      3.71930E-17
  16.600      8.29760E-17
  17.030      1.89300E-16
  17.340      3.35440E-16
  17.680      6.15650E-16
  18.020      1.10660E-15
  18.170      1.42480E-15
  18.610      2.92760E-15
  19.100      6.30470E-15
  19.390      9.76280E-15
  19.840      1.88030E-14
  20.180      3.03090E-14
  20.500      4.68800E-14
  21.050      9.64460E-14
  21.620      1.96400E-13
  21.980      3.02530E-13
  22.300      4.39230E-13
  22.680      6.74240E-13
  23.000      2.46760E-10
  23.400      1.30300E-09
  24.000      3.03500E-09
  24.650      6.03010E-09
  25.240      1.01300E-08
  25.680      9.91200E-09
  26.000      2.23940E-08
  26.400      5.67390E-08
  26.850      9.02890E-08
  27.350      1.13100E-07
  27.850      1.04680E-07
  28.400      2.12290E-07
  29.000      2.52940E-07
  29.600      2.17370E-07
  30.100      1.79080E-07
  30.800      4.77340E-07
  31.800      1.11010E-06
  32.800      1.38550E-06
  33.800      1.82660E-06
  34.800      2.37080E-06
  35.700      3.04420E-06
  36.600      4.08100E-06
  37.500      4.57030E-06
  38.500      5.37060E-06
  39.500      6.62160E-06
  40.500      7.75710E-06
  41.400      8.99180E-06
  42.200      9.82520E-06
  43.000      1.08660E-05
  44.100      1.30850E-05
  45.100      1.50450E-05
  46.000      1.65240E-05
  47.000      1.90780E-05
  48.000      2.19040E-05
  49.000      2.41020E-05
  50.000      2.81190E-05
  50.600      6.56220E-05
  51.200      2.24410E-04
  52.000      2.18060E-04
  53.000      2.17110E-04
  54.000      2.02040E-04
  55.000      2.25990E-04
  56.000      2.64020E-04
  57.000      2.75940E-04
  58.000      2.66720E-04
  59.000      2.85300E-04
  60.000      2.75680E-04
  61.000      2.94120E-04
  62.000      3.28560E-04
  63.000      3.33080E-04
  64.000      3.41640E-04
  65.000      3.50110E-04
  65.800      3.41940E-04
  66.500      3.60810E-04
  67.500      3.80350E-04
  68.500      3.61330E-04
  69.500      3.98340E-04
  70.500      3.87000E-04
  71.600      4.26880E-04
  72.600      4.33400E-04
  73.500      4.47650E-04
  74.500      4.48110E-04
  75.500      4.55890E-04
  76.500      4.62340E-04
  77.500      4.74630E-04
  78.500      4.91750E-04
  79.500      5.00030E-04
  80.500      5.05240E-04
  81.500      5.17570E-04
  82.500      5.33450E-04
  83.500      5.06890E-04
  84.500      5.48030E-04
  85.500      5.55800E-04
  86.500      5.72370E-04
  87.500      5.81950E-04
  88.500      5.91770E-04
  89.500      6.02210E-04
  90.500      6.04370E-04
  91.500      5.80370E-04
  92.500      1.21260E-03
  93.500      1.83280E-03
  94.500      2.76120E-03
  95.500      3.14890E-03
  96.500      3.92930E-03
  97.500      2.40280E-03
  98.500      3.89730E-03
  99.500      3.59790E-03
  100.50      3.83020E-03
  101.50      3.84230E-03
  102.50      2.59900E-03
  103.50      3.78170E-03
  104.50      4.04870E-03
  105.50      4.02230E-03
  106.50      3.82180E-03
  107.50      3.87160E-03
  108.50      3.58730E-03
  109.50      3.88280E-03
  110.50      3.78680E-03
  111.50      3.77190E-03
  112.50      3.55680E-03
  113.50      3.74680E-03
  114.50      3.68180E-03
  115.50      3.62220E-03
  116.50      3.58230E-03
  117.50      3.06250E-03
  118.50      3.43550E-03
  119.50      3.42600E-03
  120.50      3.30890E-03
  121.50      2.31340E-03
  122.50      3.26270E-03
  123.50      3.39950E-03
  124.50      3.35340E-03
  125.50      3.37700E-03
  126.50      3.39770E-03
  127.50      3.39220E-03
  128.50      3.38400E-03
  129.50      3.26660E-03
  130.50      3.28010E-03
  131.50      3.32120E-03
  132.50      3.26550E-03
  133.50      3.22330E-03
  134.50      3.24180E-03
  135.50      3.20460E-03
  136.50      3.16400E-03
  137.50      3.13620E-03
  138.50      3.10790E-03
  139.50      2.94800E-03
  140.50      2.93590E-03
  141.50      3.03810E-03
  142.50      2.91790E-03
  143.50      2.98280E-03
  144.20      2.97860E-03
  144.70      2.96210E-03
  145.50      2.91890E-03
  146.50      2.91180E-03
  147.50      2.88290E-03
  148.50      2.89410E-03
  149.50      2.85100E-03
  150.50      2.84080E-03
  151.20      2.83510E-03
  151.70      2.81440E-03
  152.50      2.77980E-03
  153.50      2.64600E-03
  154.50      2.50600E-03
  155.50      2.50880E-03
  156.50      2.57370E-03
  157.50      2.61230E-03
  158.50      2.63030E-03
  159.50      2.61360E-03
  160.50      2.51750E-03
  161.50      2.47140E-03
  162.50      2.48570E-03
  163.50      2.46610E-03
  164.50      2.38660E-03
  165.50      2.50900E-03
  166.50      2.49070E-03
  167.20      2.41780E-03
  167.70      2.53230E-03
  168.50      2.49700E-03
  169.50      2.47720E-03
  170.50      2.44710E-03
  171.50      2.40200E-03
  172.50      2.37670E-03
  173.50      2.42740E-03
  174.50      2.40730E-03
  175.50      2.37590E-03
  176.50      2.37370E-03
  177.50      2.36130E-03
  178.50      2.35620E-03
  179.50      2.32890E-03
  180.50      2.32370E-03
  181.50      2.30430E-03
  182.50      2.28430E-03
  183.50      2.28570E-03
  184.50      2.25220E-03
  185.50      2.23250E-03
  186.50      2.22180E-03
  187.50      2.20780E-03
  188.50      2.18210E-03
  189.50      2.17210E-03
  190.50      2.17970E-03
  191.50      2.15240E-03
  192.50      2.10120E-03
  193.50      2.13190E-03
  194.50      2.13090E-03
  195.50      2.08480E-03
  196.70      2.09580E-03
  197.60      2.09320E-03
  198.40      2.07390E-03
  199.50      2.04700E-03
  200.50      2.05470E-03
  201.50      2.04430E-03
  202.50      2.03190E-03
  203.50      2.01490E-03
  204.50      2.00110E-03
  205.50      1.64850E-03
  206.50      1.60090E-03
  207.40      1.61610E-03
  207.80      1.62510E-03
  208.50      1.68210E-03
  209.50      1.79970E-03
  210.50      1.90810E-03
  211.50      1.92320E-03
  212.50      1.90710E-03
  213.50      1.89800E-03
  214.50      1.88680E-03
  215.50      1.88910E-03
  216.50      1.84230E-03
  217.50      1.87560E-03
  218.50      1.82530E-03
  219.50      1.85500E-03
  220.50      1.84660E-03
  221.50      1.78670E-03
  222.50      1.82280E-03
  223.50      1.81290E-03
  224.50      1.79870E-03
  225.50      1.74140E-03
  226.50      1.77920E-03
  227.50      1.76900E-03
  228.50      1.75270E-03
  229.50      1.70460E-03
  230.50      1.68840E-03
  231.50      1.72170E-03
  232.50      1.71440E-03
  233.50      1.70390E-03
  234.50      1.69370E-03
  235.50      1.68280E-03
  236.50      1.67280E-03
  237.50      1.66130E-03
  238.50      1.60450E-03
  239.50      1.63480E-03
  240.50      1.63210E-03
  241.50      1.62220E-03
  242.50      1.61370E-03
  243.50      1.60310E-03
  244.50      1.59420E-03
  245.50      1.58360E-03
  246.50      1.57570E-03
  247.50      1.56660E-03
  248.50      1.55640E-03
  249.50      1.46340E-03
  250.50      1.53160E-03
  251.30      1.44890E-03
  251.80      1.50710E-03
  252.50      1.52050E-03
  253.50      1.51320E-03
  254.50      1.50310E-03
  255.50      1.49440E-03
  256.50      1.48680E-03
  257.50      1.47830E-03
  258.50      1.47010E-03
  259.50      1.46060E-03
  260.50      1.45660E-03
  261.50      1.44750E-03
  262.50      1.44040E-03
  263.50      1.43210E-03
  264.50      1.42340E-03
  265.50      1.41520E-03
  266.50      1.40530E-03
  267.50      1.39460E-03
  268.50      1.39220E-03
  269.50      1.37910E-03
  270.50      1.37660E-03
  271.50      1.36850E-03
  272.50      1.35550E-03
  273.50      1.32420E-03
  274.50      1.34690E-03
  275.50      1.33970E-03
  276.50      1.32570E-03
  277.50      1.32570E-03
  278.50      1.31800E-03
  279.50      1.30480E-03
  280.50      1.30250E-03
  281.50      1.29720E-03
  282.50      1.28320E-03
  283.50      1.27810E-03
  284.50      1.27690E-03
  285.50      1.26980E-03
  286.50      1.26260E-03
  287.50      1.25630E-03
  288.50      1.24960E-03
  289.50      1.24300E-03
  291.00      1.23270E-03
  293.00      1.22060E-03
  295.00      1.20190E-03
  297.00      1.19500E-03
  299.00      1.18120E-03
  301.00      1.16960E-03
  303.00      1.15680E-03
  305.00      1.14590E-03
  307.00      1.13590E-03
  309.00      1.12260E-03
  311.00      1.11290E-03
  313.00      1.10190E-03
  315.00      1.09070E-03
  317.00      1.07990E-03
  319.00      1.06390E-03
  321.00      1.04920E-03
  323.00      1.04950E-03
  325.00      1.03970E-03
  327.00      1.02830E-03
  329.00      1.01930E-03
  331.00      1.01040E-03
  333.00      1.00050E-03
  335.00      9.89560E-04
  337.00      9.81870E-04
  339.00      9.73420E-04
  341.00      9.64350E-04
  343.00      9.53560E-04
  345.00      9.42360E-04
  347.00      9.35730E-04
  349.00      9.27300E-04
  351.00      9.19370E-04
  353.00      9.12110E-04
  355.00      9.03340E-04
  357.00      8.98800E-04
  359.00      8.85840E-04
  361.00      8.80440E-04
  363.00      8.70140E-04
  364.00      8.65930E-04
  365.00      8.31650E-04
  367.00      8.26480E-04
  369.00      8.20250E-04
  371.00      8.08360E-04
  373.00      8.02660E-04
  375.00      7.99660E-04
  377.00      7.88170E-04
  379.00      8.04930E-04
  381.00      8.28560E-04
  383.00      7.62200E-04
  385.00      8.43030E-04
  387.00      8.54450E-04
  389.00      7.34960E-04
  391.00      8.49580E-04
  393.00      8.46840E-04
  395.00      8.36090E-04
  397.00      7.07390E-04
  399.00      8.19510E-04
  401.00      8.21340E-04
  403.00      7.89690E-04
  405.00      8.14590E-04
  407.00      8.02770E-04
  409.00      7.54440E-04
  411.00      6.91520E-04
  413.00      7.78320E-04
  415.00      7.76650E-04
  417.00      7.75730E-04
  419.00      7.67500E-04
  421.00      7.58730E-04
  423.00      7.58170E-04
  425.00      7.51280E-04
  427.00      7.44080E-04
  429.00      7.38360E-04
  431.00      7.28280E-04
  433.00      6.77760E-04
  435.00      6.38800E-04
  437.00      7.10100E-04
  439.00      6.96490E-04
  441.00      7.03640E-04
  443.00      6.98430E-04
  445.00      6.93920E-04
  447.00      6.66530E-04
  449.00      6.82850E-04
  451.00      6.77660E-04
  453.00      6.72250E-04
  455.00      6.60880E-04
  457.00      6.62850E-04
  459.00      6.57290E-04
  461.00      6.52340E-04
  463.00      6.46390E-04
  465.00      6.34640E-04
  467.00      6.37040E-04
  469.00      6.19650E-04
  471.00      6.22570E-04
  473.00      6.24210E-04
  475.00      6.19510E-04
  477.00      6.15180E-04
  479.00      6.10630E-04
  481.00      6.05420E-04
  483.00      5.97830E-04
  485.00      5.63720E-04
  487.00      5.22730E-04
  489.00      5.83140E-04
  491.00      5.82500E-04
  493.00      5.69390E-04
  495.00      5.75820E-04
  497.00      5.72200E-04
  499.00      5.68140E-04
  501.00      5.59060E-04
  503.00      5.60020E-04
  505.00      5.54370E-04
  507.00      5.52360E-04
  509.00      5.48500E-04
  511.00      5.44710E-04
  513.00      5.40910E-04
  515.00      5.37170E-04
  517.00      5.33460E-04
  519.00      5.29850E-04
  521.00      5.26260E-04
  523.00      5.22690E-04
  525.00      5.19040E-04
  527.00      5.15530E-04
  529.00      5.12170E-04
  531.00      5.08730E-04
  533.00      5.05330E-04
  535.00      5.01960E-04
  537.00      4.98630E-04
  539.00      4.95310E-04
  541.00      4.86990E-04
  543.00      4.88820E-04
  545.00      4.85630E-04
  547.00      4.82450E-04
  549.00      4.79310E-04
  551.00      4.76180E-04
  553.00      4.73120E-04
  555.00      4.70070E-04
  557.00      4.67040E-04
  559.00      4.63890E-04
  561.00      4.61090E-04
  563.00      4.58160E-04
  565.00      4.55250E-04
  567.00      4.52310E-04
  569.00      4.47150E-04
  571.00      4.38520E-04
  573.00      4.35910E-04
  575.00      4.33220E-04
  577.00      4.30720E-04
  579.00      4.28140E-04
  581.00      4.25530E-04
  583.00      4.22980E-04
  585.00      4.20740E-04
  587.00      4.09390E-04
  589.00      4.15670E-04
  591.00      4.14480E-04
  593.00      4.12620E-04
  595.00      4.10800E-04
  597.00      4.09120E-04
  599.00      4.07400E-04
  601.00      4.05710E-04
  603.00      4.03840E-04
  605.00      4.02440E-04
  607.00      4.00200E-04
  609.00      3.97820E-04
  611.00      3.95470E-04
  613.00      3.93130E-04
  615.00      3.90780E-04
  617.00      3.88500E-04
  619.00      3.86250E-04
  621.00      3.84000E-04
  623.00      3.81760E-04
  625.00      3.79540E-04
  627.00      3.77350E-04
  629.00      3.75180E-04
  631.00      3.73010E-04
  633.00      3.70880E-04
  635.00      3.68750E-04
  637.00      3.66660E-04
  639.00      3.64570E-04
  641.00      3.62470E-04
  643.00      3.60450E-04
  645.00      3.58410E-04
  647.00      3.56350E-04
  649.00      3.54370E-04
  651.00      3.52100E-04
  653.00      3.48290E-04
  655.00      3.37390E-04
  657.00      3.10130E-04
  659.00      3.41530E-04
  661.00      3.42220E-04
  663.00      3.40870E-04
  665.00      3.39070E-04
  667.00      3.34270E-04
  669.00      3.32050E-04
  671.00      3.33460E-04
  673.00      3.31690E-04
  675.00      3.29920E-04
  677.00      3.28190E-04
  679.00      3.26390E-04
  681.00      3.24680E-04
  683.00      3.22940E-04
  685.00      3.21220E-04
  687.00      3.19500E-04
  689.00      3.17180E-04
  691.00      3.16060E-04
  693.00      3.14460E-04
  695.00      3.12800E-04
  697.00      3.11160E-04
  699.00      3.09530E-04
  701.00      3.07900E-04
  703.00      3.06230E-04
  705.00      3.04690E-04
  707.00      2.99780E-04
  709.00      3.01570E-04
  711.00      3.00000E-04
  713.00      2.98460E-04
  715.00      2.96930E-04
  717.00      2.94950E-04
  719.00      2.93610E-04
  721.00      2.92410E-04
  723.00      2.90730E-04
  725.00      2.89420E-04
  727.00      2.87980E-04
  729.00      2.84930E-04
  731.00      2.85070E-04
  733.00      2.83650E-04
  735.00      2.82230E-04
  737.00      2.80830E-04
  739.00      2.79430E-04
  741.00      2.78040E-04
  743.00      2.76660E-04
  745.00      2.75310E-04
  747.00      2.73930E-04
  749.00      2.72530E-04
  751.00      2.71220E-04
  753.00      2.69940E-04
  755.00      2.68620E-04
  757.00      2.67310E-04
  759.00      2.65170E-04
  761.00      2.64680E-04
  763.00      2.63440E-04
  765.00      2.62170E-04
  767.00      2.60910E-04
  769.00      2.59630E-04
  771.00      2.58400E-04
  773.00      2.57120E-04
  775.00      2.55950E-04
  777.00      2.54730E-04
  779.00      2.53530E-04
  781.00      2.52260E-04
  783.00      2.51140E-04
  785.00      2.50080E-04
  787.00      2.48870E-04
  789.00      2.47700E-04
  791.00      2.46570E-04
  793.00      2.45420E-04
  795.00      2.44280E-04
  797.00      2.43100E-04
  799.00      2.42020E-04
  801.00      2.40900E-04
  803.00      2.39770E-04
  805.00      2.38680E-04
  807.00      2.37590E-04
  809.00      2.36390E-04
  811.00      2.35240E-04
  813.00      2.34340E-04
  815.00      2.33110E-04
  817.00      2.32200E-04
  819.00      2.30750E-04
  821.00      2.27850E-04
  823.00      2.26400E-04
  825.00      2.25910E-04
  827.00      2.24660E-04
  829.00      2.24110E-04
  831.00      2.23190E-04
  833.00      2.22090E-04
  835.00      2.20680E-04
  837.00      2.20070E-04
  839.00      2.19270E-04
  841.00      2.18320E-04
  843.00      2.17320E-04
  845.00      2.15710E-04
  847.00      2.15490E-04
  849.00      2.14400E-04
  851.00      2.13550E-04
  853.00      2.12470E-04
  855.00      2.11630E-04
  857.00      2.11140E-04
  859.00      2.08490E-04
  861.00      2.08740E-04
  863.00      2.08970E-04
  865.00      2.06630E-04
  867.00      2.04260E-04
  869.00      2.06420E-04
  871.00      2.06500E-04
  873.00      2.03460E-04
  875.00      1.97960E-04
  877.00      2.00700E-04
  879.00      2.03570E-04
  881.00      2.03470E-04
  883.00      2.01820E-04
  885.00      1.94840E-04
  887.00      1.89660E-04
  889.00      1.97830E-04
  891.00      1.99640E-04
  893.00      1.99410E-04
  895.00      1.98870E-04
  897.00      1.97480E-04
  899.00      1.93230E-04
  901.00      1.81870E-04
  903.00      1.85690E-04
  905.00      1.92680E-04
  907.00      1.92490E-04
  909.00      1.93190E-04
  911.00      1.92890E-04
  913.00      1.92340E-04
  915.00      1.91300E-04
  917.00      1.89940E-04
  919.00      1.88250E-04
  921.00      1.81840E-04
  923.00      1.69740E-04
  925.00      1.80150E-04
  927.00      1.84940E-04
  929.00      1.85510E-04
  931.00      1.84760E-04
  933.00      1.84720E-04
  935.00      1.82600E-04
  937.00      1.83320E-04
  939.00      1.82620E-04
  941.00      1.81880E-04
  943.00      1.81150E-04
  945.00      1.80400E-04
  947.00      1.78650E-04
  949.00      1.78170E-04
  951.00      1.75230E-04
  953.00      1.68880E-04
  955.00      1.57790E-04
  957.00      1.70040E-04
  959.00      1.73710E-04
  961.00      1.73880E-04
  963.00      1.73240E-04
  965.00      1.73420E-04
  967.00      1.72750E-04
  969.00      1.71990E-04
  971.00      1.70730E-04
  973.00      1.70700E-04
  975.00      1.70070E-04
  977.00      1.69410E-04
  979.00      1.68760E-04
  981.00      1.68100E-04
  983.00      1.67460E-04
  985.00      1.66810E-04
  987.00      1.66170E-04
  989.00      1.65540E-04
  991.00      1.64820E-04
  993.00      1.64270E-04
  995.00      1.63650E-04
  997.00      1.62800E-04
  999.00      1.61750E-04
  1002.5      1.55060E-04
  1007.5      1.52090E-04
  1012.5      1.56660E-04
  1017.5      1.56850E-04
  1022.5      1.55360E-04
  1027.5      1.53960E-04
  1032.5      1.52080E-04
  1037.5      1.51150E-04
  1042.5      1.49770E-04
  1047.5      1.48420E-04
  1052.5      1.47080E-04
  1057.5      1.45760E-04
  1062.5      1.44460E-04
  1067.5      1.43020E-04
  1072.5      1.41910E-04
  1077.5      1.40650E-04
  1082.5      1.38470E-04
  1087.5      1.37530E-04
  1092.5      1.27990E-04
  1097.5      1.32550E-04
  1102.5      1.33920E-04
  1107.5      1.33360E-04
  1112.5      1.32340E-04
  1117.5      1.31220E-04
  1122.5      1.30070E-04
  1127.5      1.29010E-04
  1132.5      1.27920E-04
  1137.5      1.26850E-04
  1142.5      1.25790E-04
  1147.5      1.24740E-04
  1152.5      1.23710E-04
  1157.5      1.22690E-04
  1162.5      1.21350E-04
  1167.5      1.20620E-04
  1172.5      1.19710E-04
  1177.5      1.18740E-04
  1182.5      1.17780E-04
  1187.5      1.16830E-04
  1192.5      1.15900E-04
  1197.5      1.14000E-04
  1202.5      1.14060E-04
  1207.5      1.13160E-04
  1212.5      1.12260E-04
  1217.5      1.11380E-04
  1222.5      1.10510E-04
  1227.5      1.09650E-04
  1232.5      1.08800E-04
  1237.5      1.07960E-04
  1242.5      1.07130E-04
  1247.5      1.06300E-04
  1252.5      1.05350E-04
  1257.5      1.04690E-04
  1262.5      1.03890E-04
  1267.5      1.03110E-04
  1272.5      1.02200E-04
  1277.5      9.98430E-05
  1282.5      9.41080E-05
  1287.5      9.92120E-05
  1292.5      9.92290E-05
  1297.5      9.80900E-05
  1302.5      9.78500E-05
  1307.5      9.71380E-05
  1312.5      9.64280E-05
  1317.5      9.57260E-05
  1322.5      9.50310E-05
  1327.5      9.43440E-05
  1332.5      9.36640E-05
  1337.5      9.29910E-05
  1342.5      9.22810E-05
  1347.5      9.16690E-05
  1352.5      9.10170E-05
  1357.5      9.03740E-05
  1362.5      8.97340E-05
  1367.5      8.91070E-05
  1372.5      8.84780E-05
  1377.5      8.78650E-05
  1382.5      8.72550E-05
  1387.5      8.66500E-05
  1392.5      8.60500E-05
  1397.5      8.54590E-05
