 Castelli and Kurucz 2004-2012 Atmosphere
 T     39000.     G    4.50000 [-1.5a] N(He)/Ntot=0.0784 VTURB=2.0  L/H=1.25 OD
 Wavelength  Eddington Hnu
   (nm)    (ergs/s/cm2/Hz/sr)
  9.0900      4.98680E-25
  9.3500      1.93310E-24
  9.6100      7.00680E-24
  9.7700      1.50260E-23
  9.9600      3.60820E-23
  10.200      1.04580E-22
  10.380      2.25820E-22
  10.560      4.75760E-22
  10.770      1.10170E-21
  11.040      3.10420E-21
  11.400      1.15060E-20
  11.780      4.23580E-20
  12.130      1.31520E-19
  12.480      3.84570E-19
  12.710      7.55380E-19
  12.840      1.09530E-18
  13.050      1.96680E-18
  13.240      3.29100E-18
  13.390      4.89430E-18
  13.660      9.80290E-18
  13.980      2.16380E-17
  14.330      4.95150E-17
  14.720      1.19140E-16
  15.100      2.70390E-16
  15.520      6.39310E-16
  15.880      1.29380E-15
  16.200      2.36480E-15
  16.600      4.88240E-15
  17.030      1.02760E-14
  17.340      1.72120E-14
  17.680      2.97470E-14
  18.020      5.04200E-14
  18.170      6.32240E-14
  18.610      1.21000E-13
  19.100      2.40980E-13
  19.390      3.56900E-13
  19.840      6.42810E-13
  20.180      9.86880E-13
  20.500      1.45940E-12
  21.050      2.78330E-12
  21.620      5.26270E-12
  21.980      7.74890E-12
  22.300      1.08170E-11
  22.680      1.58540E-11
  23.000      4.82280E-09
  23.400      2.17770E-08
  24.000      5.51300E-08
  24.650      3.13890E-07
  25.240      1.35490E-06
  25.680      1.08570E-06
  26.000      4.20020E-06
  26.400      1.11800E-05
  26.850      1.85720E-05
  27.350      2.43900E-05
  27.850      2.22480E-05
  28.400      3.93840E-05
  29.000      4.64670E-05
  29.600      3.06730E-05
  30.100      4.72210E-06
  30.800      1.92280E-05
  31.800      3.57010E-05
  32.800      4.73410E-05
  33.800      4.57890E-05
  34.800      5.22030E-05
  35.700      8.15200E-05
  36.600      1.10240E-04
  37.500      1.23260E-04
  38.500      1.24880E-04
  39.500      1.51400E-04
  40.500      1.72360E-04
  41.400      1.81340E-04
  42.200      1.80260E-04
  43.000      1.79520E-04
  44.100      2.00260E-04
  45.100      2.13200E-04
  46.000      2.10820E-04
  47.000      2.19310E-04
  48.000      2.36120E-04
  49.000      2.29250E-04
  50.000      2.60600E-04
  50.600      3.46940E-04
  51.200      6.40550E-04
  52.000      6.29160E-04
  53.000      6.24730E-04
  54.000      5.94110E-04
  55.000      5.96870E-04
  56.000      7.14480E-04
  57.000      7.52250E-04
  58.000      7.45100E-04
  59.000      7.82440E-04
  60.000      7.51900E-04
  61.000      7.62890E-04
  62.000      8.56000E-04
  63.000      8.62000E-04
  64.000      8.99860E-04
  65.000      8.97920E-04
  65.800      8.66440E-04
  66.500      9.26300E-04
  67.500      9.72590E-04
  68.500      9.40590E-04
  69.500      1.00150E-03
  70.500      9.51480E-04
  71.600      1.04970E-03
  72.600      1.07150E-03
  73.500      1.09390E-03
  74.500      1.08780E-03
  75.500      1.09680E-03
  76.500      1.10110E-03
  77.500      1.13370E-03
  78.500      1.13570E-03
  79.500      1.16570E-03
  80.500      1.17710E-03
  81.500      1.20200E-03
  82.500      1.22730E-03
  83.500      1.16320E-03
  84.500      1.24850E-03
  85.500      1.25130E-03
  86.500      1.28430E-03
  87.500      1.30130E-03
  88.500      1.31080E-03
  89.500      1.32220E-03
  90.500      1.32130E-03
  91.500      1.13300E-03
  92.500      2.09240E-03
  93.500      2.81490E-03
  94.500      3.54010E-03
  95.500      3.89150E-03
  96.500      4.42760E-03
  97.500      3.42600E-03
  98.500      4.32980E-03
  99.500      4.07720E-03
  100.50      4.26530E-03
  101.50      4.32350E-03
  102.50      3.52100E-03
  103.50      4.29350E-03
  104.50      4.36380E-03
  105.50      4.34520E-03
  106.50      4.22150E-03
  107.50      4.23650E-03
  108.50      4.04560E-03
  109.50      4.24140E-03
  110.50      4.17880E-03
  111.50      4.14190E-03
  112.50      4.01960E-03
  113.50      4.12320E-03
  114.50      4.09780E-03
  115.50      4.02390E-03
  116.50      4.00350E-03
  117.50      3.68980E-03
  118.50      3.91230E-03
  119.50      3.89630E-03
  120.50      3.85300E-03
  121.50      3.16020E-03
  122.50      3.81750E-03
  123.50      3.81500E-03
  124.50      3.77550E-03
  125.50      3.80520E-03
  126.50      3.78990E-03
  127.50      3.77390E-03
  128.50      3.75570E-03
  129.50      3.70620E-03
  130.50      3.68600E-03
  131.50      3.68040E-03
  132.50      3.64520E-03
  133.50      3.62760E-03
  134.50      3.61030E-03
  135.50      3.57030E-03
  136.50      3.52910E-03
  137.50      3.48610E-03
  138.50      3.48440E-03
  139.50      3.39790E-03
  140.50      3.34650E-03
  141.50      3.42270E-03
  142.50      3.36070E-03
  143.50      3.37570E-03
  144.20      3.34590E-03
  144.70      3.33700E-03
  145.50      3.30610E-03
  146.50      3.29420E-03
  147.50      3.27670E-03
  148.50      3.27680E-03
  149.50      3.24230E-03
  150.50      3.23420E-03
  151.20      3.22840E-03
  151.70      3.20240E-03
  152.50      3.18070E-03
  153.50      3.10460E-03
  154.50      2.97080E-03
  155.50      2.97560E-03
  156.50      3.02590E-03
  157.50      3.04230E-03
  158.50      3.02860E-03
  159.50      3.01180E-03
  160.50      2.94660E-03
  161.50      2.92150E-03
  162.50      2.89290E-03
  163.50      2.85230E-03
  164.50      2.74200E-03
  165.50      2.89170E-03
  166.50      2.86990E-03
  167.20      2.82600E-03
  167.70      2.88000E-03
  168.50      2.85880E-03
  169.50      2.84300E-03
  170.50      2.81610E-03
  171.50      2.76020E-03
  172.50      2.75250E-03
  173.50      2.78040E-03
  174.50      2.75700E-03
  175.50      2.73100E-03
  176.50      2.72350E-03
  177.50      2.71080E-03
  178.50      2.69720E-03
  179.50      2.67210E-03
  180.50      2.65960E-03
  181.50      2.64300E-03
  182.50      2.62330E-03
  183.50      2.61300E-03
  184.50      2.59410E-03
  185.50      2.57460E-03
  186.50      2.55750E-03
  187.50      2.53960E-03
  188.50      2.52470E-03
  189.50      2.51580E-03
  190.50      2.50170E-03
  191.50      2.48470E-03
  192.50      2.45110E-03
  193.50      2.45510E-03
  194.50      2.44050E-03
  195.50      2.42080E-03
  196.70      2.40630E-03
  197.60      2.39300E-03
  198.40      2.38150E-03
  199.50      2.36460E-03
  200.50      2.35160E-03
  201.50      2.33700E-03
  202.50      2.32240E-03
  203.50      2.30800E-03
  204.50      2.29230E-03
  205.50      1.77870E-03
  206.50      1.72550E-03
  207.40      1.77110E-03
  207.80      1.81670E-03
  208.50      1.94490E-03
  209.50      2.15690E-03
  210.50      2.21120E-03
  211.50      2.20750E-03
  212.50      2.19070E-03
  213.50      2.17820E-03
  214.50      2.16940E-03
  215.50      2.18950E-03
  216.50      2.12030E-03
  217.50      2.17810E-03
  218.50      2.10160E-03
  219.50      2.15240E-03
  220.50      2.14210E-03
  221.50      2.06240E-03
  222.50      2.11600E-03
  223.50      2.10440E-03
  224.50      2.09000E-03
  225.50      2.01640E-03
  226.50      2.06650E-03
  227.50      2.05480E-03
  228.50      2.03870E-03
  229.50      2.00940E-03
  230.50      1.95970E-03
  231.50      2.00310E-03
  232.50      1.99430E-03
  233.50      1.98290E-03
  234.50      1.97110E-03
  235.50      1.95940E-03
  236.50      1.94800E-03
  237.50      1.93570E-03
  238.50      1.86560E-03
  239.50      1.90620E-03
  240.50      1.90220E-03
  241.50      1.89020E-03
  242.50      1.88140E-03
  243.50      1.86980E-03
  244.50      1.85960E-03
  245.50      1.84620E-03
  246.50      1.83850E-03
  247.50      1.82840E-03
  248.50      1.81760E-03
  249.50      1.73060E-03
  250.50      1.79080E-03
  251.30      1.68200E-03
  251.80      1.76740E-03
  252.50      1.77520E-03
  253.50      1.76740E-03
  254.50      1.75750E-03
  255.50      1.74730E-03
  256.50      1.73800E-03
  257.50      1.72850E-03
  258.50      1.71910E-03
  259.50      1.70610E-03
  260.50      1.70100E-03
  261.50      1.69050E-03
  262.50      1.68260E-03
  263.50      1.67350E-03
  264.50      1.66380E-03
  265.50      1.65500E-03
  266.50      1.64530E-03
  267.50      1.63370E-03
  268.50      1.62780E-03
  269.50      1.61780E-03
  270.50      1.61130E-03
  271.50      1.60230E-03
  272.50      1.59150E-03
  273.50      1.54380E-03
  274.50      1.57710E-03
  275.50      1.56850E-03
  276.50      1.55770E-03
  277.50      1.55200E-03
  278.50      1.54330E-03
  279.50      1.53300E-03
  280.50      1.52720E-03
  281.50      1.51950E-03
  282.50      1.50870E-03
  283.50      1.50260E-03
  284.50      1.49630E-03
  285.50      1.48850E-03
  286.50      1.48070E-03
  287.50      1.47310E-03
  288.50      1.46560E-03
  289.50      1.45790E-03
  291.00      1.44650E-03
  293.00      1.43210E-03
  295.00      1.41540E-03
  297.00      1.40270E-03
  299.00      1.38700E-03
  301.00      1.37420E-03
  303.00      1.35850E-03
  305.00      1.34580E-03
  307.00      1.33410E-03
  309.00      1.32100E-03
  311.00      1.30800E-03
  313.00      1.29520E-03
  315.00      1.28350E-03
  317.00      1.27090E-03
  319.00      1.25580E-03
  321.00      1.23000E-03
  323.00      1.23540E-03
  325.00      1.22380E-03
  327.00      1.20910E-03
  329.00      1.20040E-03
  331.00      1.18930E-03
  333.00      1.17840E-03
  335.00      1.16590E-03
  337.00      1.15680E-03
  339.00      1.14630E-03
  341.00      1.13580E-03
  343.00      1.12660E-03
  345.00      1.11450E-03
  347.00      1.10620E-03
  349.00      1.09580E-03
  351.00      1.08610E-03
  353.00      1.07590E-03
  355.00      1.06600E-03
  357.00      1.05820E-03
  359.00      1.04690E-03
  361.00      1.03860E-03
  363.00      1.02830E-03
  364.00      1.00950E-03
  365.00      9.35880E-04
  367.00      9.29290E-04
  369.00      9.23900E-04
  371.00      9.21820E-04
  373.00      9.25160E-04
  375.00      9.36650E-04
  377.00      9.41890E-04
  379.00      9.58630E-04
  381.00      9.74640E-04
  383.00      9.25030E-04
  385.00      9.75340E-04
  387.00      9.78940E-04
  389.00      8.97010E-04
  391.00      9.68240E-04
  393.00      9.55150E-04
  395.00      9.53090E-04
  397.00      8.65030E-04
  399.00      9.36830E-04
  401.00      9.32550E-04
  403.00      9.06300E-04
  405.00      9.20410E-04
  407.00      9.11170E-04
  409.00      8.81860E-04
  411.00      8.31680E-04
  413.00      8.87080E-04
  415.00      8.81270E-04
  417.00      8.76320E-04
  419.00      8.66210E-04
  421.00      8.51820E-04
  423.00      8.55890E-04
  425.00      8.48990E-04
  427.00      8.42250E-04
  429.00      8.35680E-04
  431.00      8.27980E-04
  433.00      7.96620E-04
  435.00      7.64460E-04
  437.00      8.08560E-04
  439.00      7.98860E-04
  441.00      7.97360E-04
  443.00      7.91110E-04
  445.00      7.85480E-04
  447.00      7.70120E-04
  449.00      7.73540E-04
  451.00      7.67680E-04
  453.00      7.61070E-04
  455.00      7.45130E-04
  457.00      7.50740E-04
  459.00      7.45030E-04
  461.00      7.39500E-04
  463.00      7.33410E-04
  465.00      7.25410E-04
  467.00      7.22570E-04
  469.00      6.96470E-04
  471.00      7.10090E-04
  473.00      7.07850E-04
  475.00      7.02730E-04
  477.00      6.97670E-04
  479.00      6.92670E-04
  481.00      6.87670E-04
  483.00      6.81960E-04
  485.00      6.61610E-04
  487.00      6.26880E-04
  489.00      6.66800E-04
  491.00      6.63650E-04
  493.00      6.54370E-04
  495.00      6.54380E-04
  497.00      6.49930E-04
  499.00      6.45430E-04
  501.00      6.38520E-04
  503.00      6.36500E-04
  505.00      6.31460E-04
  507.00      6.27870E-04
  509.00      6.23590E-04
  511.00      6.19360E-04
  513.00      6.15160E-04
  515.00      6.11010E-04
  517.00      6.06890E-04
  519.00      6.02830E-04
  521.00      5.98810E-04
  523.00      5.94820E-04
  525.00      5.90840E-04
  527.00      5.86850E-04
  529.00      5.83080E-04
  531.00      5.79250E-04
  533.00      5.75450E-04
  535.00      5.71690E-04
  537.00      5.67960E-04
  539.00      5.64270E-04
  541.00      5.51910E-04
  543.00      5.56990E-04
  545.00      5.53420E-04
  547.00      5.49870E-04
  549.00      5.46350E-04
  551.00      5.42810E-04
  553.00      5.39420E-04
  555.00      5.36000E-04
  557.00      5.32610E-04
  559.00      5.28920E-04
  561.00      5.25940E-04
  563.00      5.22650E-04
  565.00      5.19390E-04
  567.00      5.16160E-04
  569.00      5.07890E-04
  571.00      4.83690E-04
  573.00      4.80920E-04
  575.00      4.78170E-04
  577.00      4.75500E-04
  579.00      4.72970E-04
  581.00      4.70620E-04
  583.00      4.68960E-04
  585.00      4.67830E-04
  587.00      4.62350E-04
  589.00      4.65980E-04
  591.00      4.65530E-04
  593.00      4.65230E-04
  595.00      4.65180E-04
  597.00      4.65200E-04
  599.00      4.65450E-04
  601.00      4.64210E-04
  603.00      4.62140E-04
  605.00      4.60710E-04
  607.00      4.57810E-04
  609.00      4.55510E-04
  611.00      4.52530E-04
  613.00      4.49910E-04
  615.00      4.47610E-04
  617.00      4.44100E-04
  619.00      4.42460E-04
  621.00      4.39920E-04
  623.00      4.36250E-04
  625.00      4.34710E-04
  627.00      4.32420E-04
  629.00      4.29950E-04
  631.00      4.25820E-04
  633.00      4.25060E-04
  635.00      4.22700E-04
  637.00      4.20330E-04
  639.00      4.17960E-04
  641.00      4.13460E-04
  643.00      4.13310E-04
  645.00      4.11010E-04
  647.00      4.08730E-04
  649.00      4.06470E-04
  651.00      4.04070E-04
  653.00      3.98660E-04
  655.00      3.94210E-04
  657.00      3.70340E-04
  659.00      3.94460E-04
  661.00      3.93280E-04
  663.00      3.91150E-04
  665.00      3.89070E-04
  667.00      3.85060E-04
  669.00      3.80170E-04
  671.00      3.82710E-04
  673.00      3.80760E-04
  675.00      3.78710E-04
  677.00      3.76710E-04
  679.00      3.74710E-04
  681.00      3.72720E-04
  683.00      3.70750E-04
  685.00      3.68790E-04
  687.00      3.66850E-04
  689.00      3.61340E-04
  691.00      3.62940E-04
  693.00      3.61120E-04
  695.00      3.59240E-04
  697.00      3.57380E-04
  699.00      3.55520E-04
  701.00      3.53670E-04
  703.00      3.51830E-04
  705.00      3.50030E-04
  707.00      3.46120E-04
  709.00      3.46480E-04
  711.00      3.44710E-04
  713.00      3.42960E-04
  715.00      3.41210E-04
  717.00      3.37050E-04
  719.00      3.36450E-04
  721.00      3.36070E-04
  723.00      3.34380E-04
  725.00      3.32700E-04
  727.00      3.31040E-04
  729.00      3.28470E-04
  731.00      3.27730E-04
  733.00      3.26120E-04
  735.00      3.24510E-04
  737.00      3.22900E-04
  739.00      3.21310E-04
  741.00      3.19730E-04
  743.00      3.18170E-04
  745.00      3.16600E-04
  747.00      3.15070E-04
  749.00      3.13510E-04
  751.00      3.11990E-04
  753.00      3.10500E-04
  755.00      3.09000E-04
  757.00      3.07510E-04
  759.00      3.02510E-04
  761.00      3.04420E-04
  763.00      3.03100E-04
  765.00      3.01650E-04
  767.00      3.00220E-04
  769.00      2.98760E-04
  771.00      2.97370E-04
  773.00      2.95910E-04
  775.00      2.94570E-04
  777.00      2.93180E-04
  779.00      2.91810E-04
  781.00      2.90420E-04
  783.00      2.89080E-04
  785.00      2.87780E-04
  787.00      2.86440E-04
  789.00      2.85110E-04
  791.00      2.83800E-04
  793.00      2.82480E-04
  795.00      2.81180E-04
  797.00      2.79860E-04
  799.00      2.78600E-04
  801.00      2.77320E-04
  803.00      2.76050E-04
  805.00      2.74790E-04
  807.00      2.73540E-04
  809.00      2.72300E-04
  811.00      2.71060E-04
  813.00      2.69840E-04
  815.00      2.68620E-04
  817.00      2.67390E-04
  819.00      2.65330E-04
  821.00      2.57150E-04
  823.00      2.54660E-04
  825.00      2.54740E-04
  827.00      2.53800E-04
  829.00      2.52880E-04
  831.00      2.51820E-04
  833.00      2.50710E-04
  835.00      2.49510E-04
  837.00      2.48600E-04
  839.00      2.47630E-04
  841.00      2.46690E-04
  843.00      2.45740E-04
  845.00      2.44580E-04
  847.00      2.43920E-04
  849.00      2.43080E-04
  851.00      2.42240E-04
  853.00      2.41480E-04
  855.00      2.40430E-04
  857.00      2.40270E-04
  859.00      2.38410E-04
  861.00      2.38010E-04
  863.00      2.38420E-04
  865.00      2.36830E-04
  867.00      2.34110E-04
  869.00      2.36380E-04
  871.00      2.36380E-04
  873.00      2.34550E-04
  875.00      2.28930E-04
  877.00      2.32320E-04
  879.00      2.34090E-04
  881.00      2.33730E-04
  883.00      2.32730E-04
  885.00      2.27580E-04
  887.00      2.21700E-04
  889.00      2.29060E-04
  891.00      2.29610E-04
  893.00      2.28820E-04
  895.00      2.28240E-04
  897.00      2.27010E-04
  899.00      2.24310E-04
  901.00      2.14350E-04
  903.00      2.17860E-04
  905.00      2.22590E-04
  907.00      2.22020E-04
  909.00      2.21810E-04
  911.00      2.20810E-04
  913.00      2.20270E-04
  915.00      2.19380E-04
  917.00      2.18270E-04
  919.00      2.16840E-04
  921.00      2.12790E-04
  923.00      2.01750E-04
  925.00      2.10850E-04
  927.00      2.13250E-04
  929.00      2.13160E-04
  931.00      2.12140E-04
  933.00      2.11390E-04
  935.00      2.07120E-04
  937.00      2.09200E-04
  939.00      2.09010E-04
  941.00      2.08180E-04
  943.00      2.07360E-04
  945.00      2.06540E-04
  947.00      2.05430E-04
  949.00      2.04830E-04
  951.00      2.02710E-04
  953.00      1.98630E-04
  955.00      1.88430E-04
  957.00      1.98720E-04
  959.00      2.00260E-04
  961.00      1.99970E-04
  963.00      1.99120E-04
  965.00      1.98590E-04
  967.00      1.97820E-04
  969.00      1.97030E-04
  971.00      1.96050E-04
  973.00      1.95530E-04
  975.00      1.94650E-04
  977.00      1.93310E-04
  979.00      1.93300E-04
  981.00      1.92560E-04
  983.00      1.91820E-04
  985.00      1.91090E-04
  987.00      1.90370E-04
  989.00      1.89650E-04
  991.00      1.88930E-04
  993.00      1.88210E-04
  995.00      1.87500E-04
  997.00      1.86800E-04
  999.00      1.86090E-04
  1002.5      1.81220E-04
  1007.5      1.78150E-04
  1012.5      1.79020E-04
  1017.5      1.79780E-04
  1022.5      1.78120E-04
  1027.5      1.76500E-04
  1032.5      1.74650E-04
  1037.5      1.73310E-04
  1042.5      1.71220E-04
  1047.5      1.70210E-04
  1052.5      1.68690E-04
  1057.5      1.67190E-04
  1062.5      1.65710E-04
  1067.5      1.64180E-04
  1072.5      1.62800E-04
  1077.5      1.61380E-04
  1082.5      1.59310E-04
  1087.5      1.58430E-04
  1092.5      1.51080E-04
  1097.5      1.54280E-04
  1102.5      1.54340E-04
  1107.5      1.53200E-04
  1112.5      1.51920E-04
  1117.5      1.50680E-04
  1122.5      1.49400E-04
  1127.5      1.48160E-04
  1132.5      1.46920E-04
  1137.5      1.45700E-04
  1142.5      1.44500E-04
  1147.5      1.43310E-04
  1152.5      1.42130E-04
  1157.5      1.40970E-04
  1162.5      1.38790E-04
  1167.5      1.38040E-04
  1172.5      1.37560E-04
  1177.5      1.36460E-04
  1182.5      1.35360E-04
  1187.5      1.34280E-04
  1192.5      1.33210E-04
  1197.5      1.31720E-04
  1202.5      1.31120E-04
  1207.5      1.30080E-04
  1212.5      1.29060E-04
  1217.5      1.28060E-04
  1222.5      1.27060E-04
  1227.5      1.26080E-04
  1232.5      1.25110E-04
  1237.5      1.24150E-04
  1242.5      1.23200E-04
  1247.5      1.22260E-04
  1252.5      1.21270E-04
  1257.5      1.20410E-04
  1262.5      1.19510E-04
  1267.5      1.18610E-04
  1272.5      1.17720E-04
  1277.5      1.15960E-04
  1282.5      1.11240E-04
  1287.5      1.14840E-04
  1292.5      1.14270E-04
  1297.5      1.13230E-04
  1302.5      1.12600E-04
  1307.5      1.11780E-04
  1312.5      1.10970E-04
  1317.5      1.10170E-04
  1322.5      1.09370E-04
  1327.5      1.08590E-04
  1332.5      1.07810E-04
  1337.5      1.07040E-04
  1342.5      1.06260E-04
  1347.5      1.05520E-04
  1352.5      1.04780E-04
  1357.5      1.04040E-04
  1362.5      1.03310E-04
  1367.5      1.02590E-04
  1372.5      1.01880E-04
  1377.5      1.01170E-04
  1382.5      1.00470E-04
  1387.5      9.97770E-05
  1392.5      9.90920E-05
  1397.5      9.84130E-05
