 Castelli and Kurucz 2004-2012 Atmosphere
 T     39000.     G    5.00000 [-1.5a] N(He)/Ntot=0.0784 VTURB=2.0  L/H=1.25 OD
 Wavelength  Eddington Hnu
   (nm)    (ergs/s/cm2/Hz/sr)
  9.0900      8.65330E-25
  9.3500      3.33570E-24
  9.6100      1.20250E-23
  9.7700      2.56940E-23
  9.9600      6.14430E-23
  10.200      1.77160E-22
  10.380      3.81120E-22
  10.560      8.00250E-22
  10.770      1.84510E-21
  11.040      5.17060E-21
  11.400      1.90260E-20
  11.780      6.94970E-20
  12.130      2.14210E-19
  12.480      6.21790E-19
  12.710      1.21520E-18
  12.840      1.75700E-18
  13.050      3.14050E-18
  13.240      5.23240E-18
  13.390      7.75420E-18
  13.660      1.54310E-17
  13.980      3.37970E-17
  14.330      7.66720E-17
  14.720      1.82690E-16
  15.100      4.10110E-16
  15.520      9.58500E-16
  15.880      1.92000E-15
  16.200      3.47690E-15
  16.600      7.09580E-15
  17.030      1.47460E-14
  17.340      2.44790E-14
  17.680      4.18950E-14
  18.020      7.03510E-14
  18.170      8.78800E-14
  18.610      1.66060E-13
  19.100      3.26550E-13
  19.390      4.80100E-13
  19.840      8.55140E-13
  20.180      1.30190E-12
  20.500      1.91080E-12
  21.050      3.60400E-12
  21.620      6.73430E-12
  21.980      9.84510E-12
  22.300      1.36600E-11
  22.680      1.99020E-11
  23.000      3.53210E-09
  23.400      1.68460E-08
  24.000      4.89700E-08
  24.650      2.07110E-07
  25.240      7.34690E-07
  25.680      6.33530E-07
  26.000      2.36950E-06
  26.400      6.33130E-06
  26.850      1.11810E-05
  27.350      1.51620E-05
  27.850      1.44340E-05
  28.400      2.56400E-05
  29.000      3.01390E-05
  29.600      2.10350E-05
  30.100      4.26250E-06
  30.800      1.47630E-05
  31.800      2.70200E-05
  32.800      3.44010E-05
  33.800      3.45230E-05
  34.800      3.98510E-05
  35.700      5.57060E-05
  36.600      7.17680E-05
  37.500      7.79180E-05
  38.500      7.96680E-05
  39.500      9.33250E-05
  40.500      1.02980E-04
  41.400      1.08840E-04
  42.200      1.08670E-04
  43.000      1.10020E-04
  44.100      1.21740E-04
  45.100      1.30410E-04
  46.000      1.31950E-04
  47.000      1.39990E-04
  48.000      1.51210E-04
  49.000      1.52800E-04
  50.000      1.71240E-04
  50.600      2.66390E-04
  51.200      5.95180E-04
  52.000      5.84680E-04
  53.000      5.88520E-04
  54.000      5.56500E-04
  55.000      5.79120E-04
  56.000      6.72160E-04
  57.000      6.99160E-04
  58.000      6.88470E-04
  59.000      7.24480E-04
  60.000      7.01690E-04
  61.000      7.18690E-04
  62.000      7.92250E-04
  63.000      8.01530E-04
  64.000      8.27480E-04
  65.000      8.29080E-04
  65.800      8.04710E-04
  66.500      8.50890E-04
  67.500      8.92300E-04
  68.500      8.65020E-04
  69.500      9.19410E-04
  70.500      8.81910E-04
  71.600      9.62620E-04
  72.600      9.79610E-04
  73.500      1.00200E-03
  74.500      9.97470E-04
  75.500      1.00670E-03
  76.500      1.01400E-03
  77.500      1.03900E-03
  78.500      1.05140E-03
  79.500      1.07110E-03
  80.500      1.08070E-03
  81.500      1.10230E-03
  82.500      1.12660E-03
  83.500      1.07190E-03
  84.500      1.14650E-03
  85.500      1.15260E-03
  86.500      1.18010E-03
  87.500      1.19450E-03
  88.500      1.20490E-03
  89.500      1.21610E-03
  90.500      1.21650E-03
  91.500      1.04760E-03
  92.500      1.86290E-03
  93.500      2.56980E-03
  94.500      3.52860E-03
  95.500      3.96790E-03
  96.500      4.80990E-03
  97.500      3.42130E-03
  98.500      4.81460E-03
  99.500      4.45210E-03
  100.50      4.75440E-03
  101.50      4.77660E-03
  102.50      3.47100E-03
  103.50      4.69170E-03
  104.50      4.82890E-03
  105.50      4.80700E-03
  106.50      4.64660E-03
  107.50      4.65760E-03
  108.50      4.35540E-03
  109.50      4.65680E-03
  110.50      4.57340E-03
  111.50      4.53180E-03
  112.50      4.37030E-03
  113.50      4.49780E-03
  114.50      4.45690E-03
  115.50      4.37290E-03
  116.50      4.34530E-03
  117.50      3.96670E-03
  118.50      4.22610E-03
  119.50      4.20590E-03
  120.50      4.11200E-03
  121.50      3.09960E-03
  122.50      4.06340E-03
  123.50      4.10740E-03
  124.50      4.06050E-03
  125.50      4.08890E-03
  126.50      4.07040E-03
  127.50      4.04920E-03
  128.50      4.02600E-03
  129.50      3.94810E-03
  130.50      3.93710E-03
  131.50      3.93580E-03
  132.50      3.89360E-03
  133.50      3.86350E-03
  134.50      3.84450E-03
  135.50      3.80610E-03
  136.50      3.76330E-03
  137.50      3.71880E-03
  138.50      3.70420E-03
  139.50      3.58950E-03
  140.50      3.54830E-03
  141.50      3.62500E-03
  142.50      3.55360E-03
  143.50      3.56910E-03
  144.20      3.54350E-03
  144.70      3.53040E-03
  145.50      3.49690E-03
  146.50      3.48030E-03
  147.50      3.45390E-03
  148.50      3.44940E-03
  149.50      3.41240E-03
  150.50      3.39800E-03
  151.20      3.38880E-03
  151.70      3.36490E-03
  152.50      3.33560E-03
  153.50      3.25030E-03
  154.50      3.11550E-03
  155.50      3.11980E-03
  156.50      3.16210E-03
  157.50      3.17520E-03
  158.50      3.16570E-03
  159.50      3.14530E-03
  160.50      3.07320E-03
  161.50      3.04010E-03
  162.50      3.01270E-03
  163.50      2.96080E-03
  164.50      2.84340E-03
  165.50      3.00890E-03
  166.50      2.98490E-03
  167.20      2.93840E-03
  167.70      2.99430E-03
  168.50      2.97030E-03
  169.50      2.95090E-03
  170.50      2.92210E-03
  171.50      2.86510E-03
  172.50      2.84990E-03
  173.50      2.88090E-03
  174.50      2.85520E-03
  175.50      2.82630E-03
  176.50      2.81850E-03
  177.50      2.80350E-03
  178.50      2.78830E-03
  179.50      2.76180E-03
  180.50      2.74790E-03
  181.50      2.72910E-03
  182.50      2.70780E-03
  183.50      2.69660E-03
  184.50      2.67460E-03
  185.50      2.65300E-03
  186.50      2.63450E-03
  187.50      2.61600E-03
  188.50      2.59880E-03
  189.50      2.58830E-03
  190.50      2.57430E-03
  191.50      2.55490E-03
  192.50      2.51630E-03
  193.50      2.52320E-03
  194.50      2.50800E-03
  195.50      2.48530E-03
  196.70      2.47060E-03
  197.60      2.45710E-03
  198.40      2.44400E-03
  199.50      2.42520E-03
  200.50      2.41210E-03
  201.50      2.39650E-03
  202.50      2.38080E-03
  203.50      2.36510E-03
  204.50      2.34890E-03
  205.50      1.83650E-03
  206.50      1.77470E-03
  207.40      1.79640E-03
  207.80      1.82900E-03
  208.50      1.91600E-03
  209.50      2.10860E-03
  210.50      2.24210E-03
  211.50      2.25400E-03
  212.50      2.23610E-03
  213.50      2.22270E-03
  214.50      2.21170E-03
  215.50      2.22320E-03
  216.50      2.15730E-03
  217.50      2.21210E-03
  218.50      2.13250E-03
  219.50      2.18570E-03
  220.50      2.17700E-03
  221.50      2.08600E-03
  222.50      2.14920E-03
  223.50      2.13880E-03
  224.50      2.12140E-03
  225.50      2.03510E-03
  226.50      2.09830E-03
  227.50      2.08620E-03
  228.50      2.06860E-03
  229.50      2.03570E-03
  230.50      1.97470E-03
  231.50      2.03030E-03
  232.50      2.02220E-03
  233.50      2.01030E-03
  234.50      1.99780E-03
  235.50      1.98550E-03
  236.50      1.97340E-03
  237.50      1.96000E-03
  238.50      1.87770E-03
  239.50      1.92890E-03
  240.50      1.92580E-03
  241.50      1.91330E-03
  242.50      1.90340E-03
  243.50      1.89120E-03
  244.50      1.88050E-03
  245.50      1.86710E-03
  246.50      1.85840E-03
  247.50      1.84770E-03
  248.50      1.83650E-03
  249.50      1.74910E-03
  250.50      1.80490E-03
  251.30      1.68370E-03
  251.80      1.78000E-03
  252.50      1.79280E-03
  253.50      1.78400E-03
  254.50      1.77340E-03
  255.50      1.76280E-03
  256.50      1.75320E-03
  257.50      1.74330E-03
  258.50      1.73340E-03
  259.50      1.72110E-03
  260.50      1.71550E-03
  261.50      1.70490E-03
  262.50      1.69620E-03
  263.50      1.68680E-03
  264.50      1.67690E-03
  265.50      1.66750E-03
  266.50      1.65720E-03
  267.50      1.64530E-03
  268.50      1.63940E-03
  269.50      1.62780E-03
  270.50      1.62210E-03
  271.50      1.61280E-03
  272.50      1.59940E-03
  273.50      1.54710E-03
  274.50      1.58660E-03
  275.50      1.57780E-03
  276.50      1.56490E-03
  277.50      1.56080E-03
  278.50      1.55190E-03
  279.50      1.54040E-03
  280.50      1.53490E-03
  281.50      1.52710E-03
  282.50      1.51430E-03
  283.50      1.50830E-03
  284.50      1.50310E-03
  285.50      1.49500E-03
  286.50      1.48680E-03
  287.50      1.47910E-03
  288.50      1.47130E-03
  289.50      1.46330E-03
  291.00      1.45160E-03
  293.00      1.43680E-03
  295.00      1.41790E-03
  297.00      1.40660E-03
  299.00      1.39070E-03
  301.00      1.37720E-03
  303.00      1.36150E-03
  305.00      1.34840E-03
  307.00      1.33640E-03
  309.00      1.32240E-03
  311.00      1.30940E-03
  313.00      1.29650E-03
  315.00      1.28400E-03
  317.00      1.27120E-03
  319.00      1.25410E-03
  321.00      1.22880E-03
  323.00      1.23490E-03
  325.00      1.22310E-03
  327.00      1.20870E-03
  329.00      1.19920E-03
  331.00      1.18810E-03
  333.00      1.17690E-03
  335.00      1.16420E-03
  337.00      1.15480E-03
  339.00      1.14430E-03
  341.00      1.13360E-03
  343.00      1.12210E-03
  345.00      1.10960E-03
  347.00      1.10130E-03
  349.00      1.09140E-03
  351.00      1.08260E-03
  353.00      1.07260E-03
  355.00      1.06220E-03
  357.00      1.05520E-03
  359.00      1.04230E-03
  361.00      1.03480E-03
  363.00      1.02340E-03
  364.00      1.00890E-03
  365.00      9.43990E-04
  367.00      9.37410E-04
  369.00      9.30790E-04
  371.00      9.23220E-04
  373.00      9.23440E-04
  375.00      9.27130E-04
  377.00      9.24990E-04
  379.00      9.41630E-04
  381.00      9.63280E-04
  383.00      9.03680E-04
  385.00      9.69910E-04
  387.00      9.79330E-04
  389.00      8.71320E-04
  391.00      9.69970E-04
  393.00      9.63230E-04
  395.00      9.55300E-04
  397.00      8.38780E-04
  399.00      9.37320E-04
  401.00      9.36680E-04
  403.00      9.05670E-04
  405.00      9.27030E-04
  407.00      9.15810E-04
  409.00      8.72240E-04
  411.00      8.12710E-04
  413.00      8.89600E-04
  415.00      8.86060E-04
  417.00      8.82580E-04
  419.00      8.71300E-04
  421.00      8.57900E-04
  423.00      8.61890E-04
  425.00      8.54680E-04
  427.00      8.47550E-04
  429.00      8.40620E-04
  431.00      8.30550E-04
  433.00      7.85160E-04
  435.00      7.48190E-04
  437.00      8.10220E-04
  439.00      7.98810E-04
  441.00      8.01430E-04
  443.00      7.95020E-04
  445.00      7.89540E-04
  447.00      7.67010E-04
  449.00      7.77220E-04
  451.00      7.71210E-04
  453.00      7.64040E-04
  455.00      7.47030E-04
  457.00      7.53980E-04
  459.00      7.48020E-04
  461.00      7.42400E-04
  463.00      7.36080E-04
  465.00      7.27230E-04
  467.00      7.24990E-04
  469.00      6.98550E-04
  471.00      7.10870E-04
  473.00      7.10120E-04
  475.00      7.04880E-04
  477.00      6.99720E-04
  479.00      6.94610E-04
  481.00      6.89400E-04
  483.00      6.81630E-04
  485.00      6.51360E-04
  487.00      6.12080E-04
  489.00      6.65530E-04
  491.00      6.64200E-04
  493.00      6.52320E-04
  495.00      6.55440E-04
  497.00      6.51010E-04
  499.00      6.46420E-04
  501.00      6.38210E-04
  503.00      6.37310E-04
  505.00      6.31710E-04
  507.00      6.28530E-04
  509.00      6.24180E-04
  511.00      6.19870E-04
  513.00      6.15600E-04
  515.00      6.11370E-04
  517.00      6.07170E-04
  519.00      6.03050E-04
  521.00      5.98960E-04
  523.00      5.94910E-04
  525.00      5.90870E-04
  527.00      5.86830E-04
  529.00      5.82980E-04
  531.00      5.79080E-04
  533.00      5.75230E-04
  535.00      5.71410E-04
  537.00      5.67630E-04
  539.00      5.63870E-04
  541.00      5.50550E-04
  543.00      5.56400E-04
  545.00      5.52870E-04
  547.00      5.49260E-04
  549.00      5.45700E-04
  551.00      5.42130E-04
  553.00      5.38670E-04
  555.00      5.35210E-04
  557.00      5.31780E-04
  559.00      5.28110E-04
  561.00      5.25020E-04
  563.00      5.21680E-04
  565.00      5.18380E-04
  567.00      5.15110E-04
  569.00      5.07660E-04
  571.00      4.87530E-04
  573.00      4.84680E-04
  575.00      4.81840E-04
  577.00      4.79060E-04
  579.00      4.76330E-04
  581.00      4.73610E-04
  583.00      4.71250E-04
  585.00      4.69240E-04
  587.00      4.60930E-04
  589.00      4.65620E-04
  591.00      4.64720E-04
  593.00      4.63650E-04
  595.00      4.62720E-04
  597.00      4.61930E-04
  599.00      4.61340E-04
  601.00      4.60370E-04
  603.00      4.59040E-04
  605.00      4.58340E-04
  607.00      4.56060E-04
  609.00      4.53530E-04
  611.00      4.50820E-04
  613.00      4.48190E-04
  615.00      4.45560E-04
  617.00      4.42870E-04
  619.00      4.40370E-04
  621.00      4.37810E-04
  623.00      4.34970E-04
  625.00      4.32740E-04
  627.00      4.30240E-04
  629.00      4.27760E-04
  631.00      4.24610E-04
  633.00      4.22870E-04
  635.00      4.20460E-04
  637.00      4.18070E-04
  639.00      4.15680E-04
  641.00      4.12170E-04
  643.00      4.11000E-04
  645.00      4.08690E-04
  647.00      4.06390E-04
  649.00      4.04110E-04
  651.00      4.01460E-04
  653.00      3.96530E-04
  655.00      3.87850E-04
  657.00      3.61350E-04
  659.00      3.90600E-04
  661.00      3.90610E-04
  663.00      3.88710E-04
  665.00      3.86640E-04
  667.00      3.81850E-04
  669.00      3.78050E-04
  671.00      3.80230E-04
  673.00      3.78270E-04
  675.00      3.76230E-04
  677.00      3.74220E-04
  679.00      3.72210E-04
  681.00      3.70220E-04
  683.00      3.68240E-04
  685.00      3.66270E-04
  687.00      3.64320E-04
  689.00      3.59800E-04
  691.00      3.60330E-04
  693.00      3.58570E-04
  695.00      3.56690E-04
  697.00      3.54820E-04
  699.00      3.52960E-04
  701.00      3.51100E-04
  703.00      3.49250E-04
  705.00      3.47450E-04
  707.00      3.42900E-04
  709.00      3.43890E-04
  711.00      3.42110E-04
  713.00      3.40350E-04
  715.00      3.38610E-04
  717.00      3.34980E-04
  719.00      3.33990E-04
  721.00      3.33450E-04
  723.00      3.31750E-04
  725.00      3.30080E-04
  727.00      3.28410E-04
  729.00      3.25500E-04
  731.00      3.25110E-04
  733.00      3.23490E-04
  735.00      3.21870E-04
  737.00      3.20260E-04
  739.00      3.18670E-04
  741.00      3.17080E-04
  743.00      3.15520E-04
  745.00      3.13960E-04
  747.00      3.12420E-04
  749.00      3.10850E-04
  751.00      3.09340E-04
  753.00      3.07850E-04
  755.00      3.06350E-04
  757.00      3.04850E-04
  759.00      3.00280E-04
  761.00      3.01690E-04
  763.00      3.00440E-04
  765.00      2.98990E-04
  767.00      2.97560E-04
  769.00      2.96090E-04
  771.00      2.94710E-04
  773.00      2.93250E-04
  775.00      2.91910E-04
  777.00      2.90520E-04
  779.00      2.89140E-04
  781.00      2.87740E-04
  783.00      2.86410E-04
  785.00      2.85150E-04
  787.00      2.83810E-04
  789.00      2.82460E-04
  791.00      2.81160E-04
  793.00      2.79850E-04
  795.00      2.78550E-04
  797.00      2.77250E-04
  799.00      2.75970E-04
  801.00      2.74690E-04
  803.00      2.73420E-04
  805.00      2.72160E-04
  807.00      2.70910E-04
  809.00      2.69650E-04
  811.00      2.68440E-04
  813.00      2.67220E-04
  815.00      2.66000E-04
  817.00      2.64770E-04
  819.00      2.62880E-04
  821.00      2.56370E-04
  823.00      2.53870E-04
  825.00      2.53860E-04
  827.00      2.52960E-04
  829.00      2.52110E-04
  831.00      2.51060E-04
  833.00      2.49910E-04
  835.00      2.48600E-04
  837.00      2.47740E-04
  839.00      2.46760E-04
  841.00      2.45740E-04
  843.00      2.44690E-04
  845.00      2.43310E-04
  847.00      2.42730E-04
  849.00      2.41720E-04
  851.00      2.40860E-04
  853.00      2.39830E-04
  855.00      2.38940E-04
  857.00      2.38340E-04
  859.00      2.36400E-04
  861.00      2.36220E-04
  863.00      2.36140E-04
  865.00      2.34380E-04
  867.00      2.32440E-04
  869.00      2.33740E-04
  871.00      2.33600E-04
  873.00      2.31360E-04
  875.00      2.27050E-04
  877.00      2.28990E-04
  879.00      2.30850E-04
  881.00      2.30620E-04
  883.00      2.29300E-04
  885.00      2.23740E-04
  887.00      2.19170E-04
  889.00      2.25530E-04
  891.00      2.26730E-04
  893.00      2.26310E-04
  895.00      2.25700E-04
  897.00      2.24340E-04
  899.00      2.20670E-04
  901.00      2.10780E-04
  903.00      2.13810E-04
  905.00      2.19400E-04
  907.00      2.19110E-04
  909.00      2.19320E-04
  911.00      2.18690E-04
  913.00      2.18270E-04
  915.00      2.17190E-04
  917.00      2.15690E-04
  919.00      2.14030E-04
  921.00      2.08530E-04
  923.00      1.97600E-04
  925.00      2.06560E-04
  927.00      2.10350E-04
  929.00      2.10580E-04
  931.00      2.09850E-04
  933.00      2.09300E-04
  935.00      2.05160E-04
  937.00      2.07490E-04
  939.00      2.07060E-04
  941.00      2.06230E-04
  943.00      2.05400E-04
  945.00      2.04580E-04
  947.00      2.03110E-04
  949.00      2.02290E-04
  951.00      1.99690E-04
  953.00      1.94110E-04
  955.00      1.83820E-04
  957.00      1.94630E-04
  959.00      1.97540E-04
  961.00      1.97510E-04
  963.00      1.96930E-04
  965.00      1.96650E-04
  967.00      1.95890E-04
  969.00      1.95080E-04
  971.00      1.94030E-04
  973.00      1.93600E-04
  975.00      1.92830E-04
  977.00      1.91800E-04
  979.00      1.91370E-04
  981.00      1.90640E-04
  983.00      1.89900E-04
  985.00      1.89180E-04
  987.00      1.88450E-04
  989.00      1.87730E-04
  991.00      1.87010E-04
  993.00      1.86300E-04
  995.00      1.85590E-04
  997.00      1.84890E-04
  999.00      1.83660E-04
  1002.5      1.77630E-04
  1007.5      1.74500E-04
  1012.5      1.77040E-04
  1017.5      1.77900E-04
  1022.5      1.76230E-04
  1027.5      1.74630E-04
  1032.5      1.72660E-04
  1037.5      1.71450E-04
  1042.5      1.69620E-04
  1047.5      1.68360E-04
  1052.5      1.66840E-04
  1057.5      1.65350E-04
  1062.5      1.63870E-04
  1067.5      1.62310E-04
  1072.5      1.60980E-04
  1077.5      1.59560E-04
  1082.5      1.57370E-04
  1087.5      1.56290E-04
  1092.5      1.47490E-04
  1097.5      1.51350E-04
  1102.5      1.52310E-04
  1107.5      1.51370E-04
  1112.5      1.50150E-04
  1117.5      1.48900E-04
  1122.5      1.47610E-04
  1127.5      1.46390E-04
  1132.5      1.45160E-04
  1137.5      1.43950E-04
  1142.5      1.42750E-04
  1147.5      1.41570E-04
  1152.5      1.40400E-04
  1157.5      1.39240E-04
  1162.5      1.37140E-04
  1167.5      1.36530E-04
  1172.5      1.35860E-04
  1177.5      1.34760E-04
  1182.5      1.33680E-04
  1187.5      1.32600E-04
  1192.5      1.31540E-04
  1197.5      1.29790E-04
  1202.5      1.29460E-04
  1207.5      1.28440E-04
  1212.5      1.27420E-04
  1217.5      1.26430E-04
  1222.5      1.25440E-04
  1227.5      1.24460E-04
  1232.5      1.23500E-04
  1237.5      1.22550E-04
  1242.5      1.21600E-04
  1247.5      1.20670E-04
  1252.5      1.19650E-04
  1257.5      1.18840E-04
  1262.5      1.17940E-04
  1267.5      1.17050E-04
  1272.5      1.16100E-04
  1277.5      1.13870E-04
  1282.5      1.08410E-04
  1287.5      1.12910E-04
  1292.5      1.12750E-04
  1297.5      1.11600E-04
  1302.5      1.11090E-04
  1307.5      1.10280E-04
  1312.5      1.09470E-04
  1317.5      1.08680E-04
  1322.5      1.07890E-04
  1327.5      1.07110E-04
  1332.5      1.06340E-04
  1337.5      1.05580E-04
  1342.5      1.04790E-04
  1347.5      1.04080E-04
  1352.5      1.03340E-04
  1357.5      1.02610E-04
  1362.5      1.01890E-04
  1367.5      1.01170E-04
  1372.5      1.00460E-04
  1377.5      9.97640E-05
  1382.5      9.90720E-05
  1387.5      9.83860E-05
  1392.5      9.77070E-05
  1397.5      9.70350E-05
