 Castelli and Kurucz 2004-2012 Atmosphere
 T     38000.     G    5.00000 [-1.5a] N(He)/Ntot=0.0784 VTURB=2.0  L/H=1.25 OD
 Wavelength  Eddington Hnu
   (nm)    (ergs/s/cm2/Hz/sr)
  9.0900      1.09880E-25
  9.3500      4.47070E-25
  9.6100      1.69530E-24
  9.7700      3.73040E-24
  9.9600      9.22560E-24
  10.200      2.76950E-23
  10.380      6.12870E-23
  10.560      1.32260E-22
  10.770      3.14840E-22
  11.040      9.17890E-22
  11.400      3.55020E-21
  11.780      1.36290E-20
  12.130      4.38460E-20
  12.480      1.32570E-19
  12.710      2.65860E-19
  12.840      3.89900E-19
  13.050      7.12700E-19
  13.240      1.21120E-18
  13.390      1.82260E-18
  13.660      3.72610E-18
  13.980      8.41440E-18
  14.330      1.97150E-17
  14.720      4.86300E-17
  15.100      1.12650E-16
  15.520      2.72260E-16
  15.880      5.60480E-16
  16.200      1.03890E-15
  16.600      2.17990E-15
  17.030      4.66180E-15
  17.340      7.89190E-15
  17.680      1.37880E-14
  18.020      2.36170E-14
  18.170      2.97630E-14
  18.610      5.75890E-14
  19.100      1.16140E-13
  19.390      1.73200E-13
  19.840      3.15150E-13
  20.180      4.87200E-13
  20.500      7.25040E-13
  21.050      1.39890E-12
  21.620      2.67270E-12
  21.980      3.95960E-12
  22.300      5.55690E-12
  22.680      8.20520E-12
  23.000      1.59640E-09
  23.400      8.24810E-09
  24.000      2.49510E-08
  24.650      9.00690E-08
  25.240      2.65790E-07
  25.680      2.21040E-07
  26.000      8.24670E-07
  26.400      2.28060E-06
  26.850      4.19960E-06
  27.350      5.74960E-06
  27.850      5.46260E-06
  28.400      1.01670E-05
  29.000      1.18490E-05
  29.600      8.04130E-06
  30.100      1.77620E-06
  30.800      6.26780E-06
  31.800      1.26020E-05
  32.800      1.59010E-05
  33.800      1.67240E-05
  34.800      1.96810E-05
  35.700      2.62400E-05
  36.600      3.35480E-05
  37.500      3.60750E-05
  38.500      3.77950E-05
  39.500      4.40240E-05
  40.500      4.85590E-05
  41.400      5.22660E-05
  42.200      5.30430E-05
  43.000      5.48380E-05
  44.100      6.16050E-05
  45.100      6.71610E-05
  46.000      6.97130E-05
  47.000      7.58170E-05
  48.000      8.31070E-05
  49.000      8.64240E-05
  50.000      9.77970E-05
  50.600      1.79020E-04
  51.200      4.60820E-04
  52.000      4.51970E-04
  53.000      4.55780E-04
  54.000      4.30040E-04
  55.000      4.55240E-04
  56.000      5.25880E-04
  57.000      5.46400E-04
  58.000      5.36020E-04
  59.000      5.66450E-04
  60.000      5.48610E-04
  61.000      5.66940E-04
  62.000      6.24360E-04
  63.000      6.33210E-04
  64.000      6.51190E-04
  65.000      6.55320E-04
  65.800      6.36850E-04
  66.500      6.72120E-04
  67.500      7.06080E-04
  68.500      6.83720E-04
  69.500      7.30020E-04
  70.500      7.01470E-04
  71.600      7.67200E-04
  72.600      7.80300E-04
  73.500      8.00380E-04
  74.500      7.97260E-04
  75.500      8.05950E-04
  76.500      8.14200E-04
  77.500      8.34190E-04
  78.500      8.49100E-04
  79.500      8.64030E-04
  80.500      8.71870E-04
  81.500      8.90290E-04
  82.500      9.11900E-04
  83.500      8.67610E-04
  84.500      9.30620E-04
  85.500      9.38030E-04
  86.500      9.61100E-04
  87.500      9.73420E-04
  88.500      9.83920E-04
  89.500      9.95000E-04
  90.500      9.96690E-04
  91.500      8.87350E-04
  92.500      1.64990E-03
  93.500      2.32780E-03
  94.500      3.28510E-03
  95.500      3.70980E-03
  96.500      4.54300E-03
  97.500      3.14270E-03
  98.500      4.56220E-03
  99.500      4.21700E-03
  100.50      4.50430E-03
  101.50      4.52290E-03
  102.50      3.20290E-03
  103.50      4.43330E-03
  104.50      4.58930E-03
  105.50      4.56830E-03
  106.50      4.40770E-03
  107.50      4.42150E-03
  108.50      4.12910E-03
  109.50      4.42650E-03
  110.50      4.34060E-03
  111.50      4.30520E-03
  112.50      4.13550E-03
  113.50      4.27470E-03
  114.50      4.23000E-03
  115.50      4.15340E-03
  116.50      4.13150E-03
  117.50      3.74100E-03
  118.50      4.00980E-03
  119.50      3.99190E-03
  120.50      3.88870E-03
  121.50      2.86810E-03
  122.50      3.84900E-03
  123.50      3.90850E-03
  124.50      3.86090E-03
  125.50      3.88880E-03
  126.50      3.87370E-03
  127.50      3.85410E-03
  128.50      3.83280E-03
  129.50      3.74390E-03
  130.50      3.74070E-03
  131.50      3.74830E-03
  132.50      3.70700E-03
  133.50      3.67150E-03
  134.50      3.66010E-03
  135.50      3.62610E-03
  136.50      3.58590E-03
  137.50      3.54670E-03
  138.50      3.52960E-03
  139.50      3.40230E-03
  140.50      3.37140E-03
  141.50      3.45170E-03
  142.50      3.37990E-03
  143.50      3.39870E-03
  144.20      3.37860E-03
  144.70      3.36510E-03
  145.50      3.33250E-03
  146.50      3.31650E-03
  147.50      3.29000E-03
  148.50      3.28570E-03
  149.50      3.25000E-03
  150.50      3.23490E-03
  151.20      3.22750E-03
  151.70      3.20480E-03
  152.50      3.17530E-03
  153.50      3.08840E-03
  154.50      2.96310E-03
  155.50      2.96640E-03
  156.50      3.00470E-03
  157.50      3.01930E-03
  158.50      3.01410E-03
  159.50      2.99490E-03
  160.50      2.92190E-03
  161.50      2.88810E-03
  162.50      2.86500E-03
  163.50      2.81970E-03
  164.50      2.70930E-03
  165.50      2.86450E-03
  166.50      2.84100E-03
  167.20      2.79600E-03
  167.70      2.85440E-03
  168.50      2.83010E-03
  169.50      2.81140E-03
  170.50      2.78320E-03
  171.50      2.73050E-03
  172.50      2.71240E-03
  173.50      2.74620E-03
  174.50      2.72160E-03
  175.50      2.69340E-03
  176.50      2.68700E-03
  177.50      2.67260E-03
  178.50      2.65850E-03
  179.50      2.63320E-03
  180.50      2.62070E-03
  181.50      2.60260E-03
  182.50      2.58200E-03
  183.50      2.57240E-03
  184.50      2.55010E-03
  185.50      2.52870E-03
  186.50      2.51140E-03
  187.50      2.49450E-03
  188.50      2.47750E-03
  189.50      2.46700E-03
  190.50      2.45570E-03
  191.50      2.43620E-03
  192.50      2.39740E-03
  193.50      2.40640E-03
  194.50      2.39310E-03
  195.50      2.36960E-03
  196.70      2.35730E-03
  197.60      2.34510E-03
  198.40      2.33190E-03
  199.50      2.31320E-03
  200.50      2.30200E-03
  201.50      2.28760E-03
  202.50      2.27250E-03
  203.50      2.25740E-03
  204.50      2.24220E-03
  205.50      1.77850E-03
  206.50      1.72110E-03
  207.40      1.73820E-03
  207.80      1.76560E-03
  208.50      1.84200E-03
  209.50      2.01450E-03
  210.50      2.13940E-03
  211.50      2.15120E-03
  212.50      2.13380E-03
  213.50      2.12180E-03
  214.50      2.11090E-03
  215.50      2.11900E-03
  216.50      2.06060E-03
  217.50      2.10710E-03
  218.50      2.03680E-03
  219.50      2.08210E-03
  220.50      2.07350E-03
  221.50      1.99240E-03
  222.50      2.04740E-03
  223.50      2.03700E-03
  224.50      2.02070E-03
  225.50      1.94320E-03
  226.50      1.99850E-03
  227.50      1.98700E-03
  228.50      1.96990E-03
  229.50      1.93610E-03
  230.50      1.88510E-03
  231.50      1.93400E-03
  232.50      1.92610E-03
  233.50      1.91460E-03
  234.50      1.90290E-03
  235.50      1.89120E-03
  236.50      1.87970E-03
  237.50      1.86730E-03
  238.50      1.79250E-03
  239.50      1.83750E-03
  240.50      1.83450E-03
  241.50      1.82260E-03
  242.50      1.81300E-03
  243.50      1.80140E-03
  244.50      1.79120E-03
  245.50      1.77870E-03
  246.50      1.77030E-03
  247.50      1.76000E-03
  248.50      1.74940E-03
  249.50      1.66090E-03
  250.50      1.71990E-03
  251.30      1.61050E-03
  251.80      1.69510E-03
  252.50      1.70830E-03
  253.50      1.69950E-03
  254.50      1.68930E-03
  255.50      1.67920E-03
  256.50      1.67010E-03
  257.50      1.66070E-03
  258.50      1.65140E-03
  259.50      1.64000E-03
  260.50      1.63480E-03
  261.50      1.62490E-03
  262.50      1.61650E-03
  263.50      1.60740E-03
  264.50      1.59790E-03
  265.50      1.58880E-03
  266.50      1.57880E-03
  267.50      1.56750E-03
  268.50      1.56240E-03
  269.50      1.55060E-03
  270.50      1.54580E-03
  271.50      1.53690E-03
  272.50      1.52330E-03
  273.50      1.47750E-03
  274.50      1.51190E-03
  275.50      1.50360E-03
  276.50      1.49030E-03
  277.50      1.48750E-03
  278.50      1.47910E-03
  279.50      1.46730E-03
  280.50      1.46260E-03
  281.50      1.45540E-03
  282.50      1.44210E-03
  283.50      1.43680E-03
  284.50      1.43250E-03
  285.50      1.42470E-03
  286.50      1.41700E-03
  287.50      1.40950E-03
  288.50      1.40220E-03
  289.50      1.39460E-03
  291.00      1.38340E-03
  293.00      1.36940E-03
  295.00      1.35050E-03
  297.00      1.34060E-03
  299.00      1.32560E-03
  301.00      1.31270E-03
  303.00      1.29780E-03
  305.00      1.28540E-03
  307.00      1.27390E-03
  309.00      1.26020E-03
  311.00      1.24810E-03
  313.00      1.23580E-03
  315.00      1.22360E-03
  317.00      1.21150E-03
  319.00      1.19460E-03
  321.00      1.17260E-03
  323.00      1.17700E-03
  325.00      1.16580E-03
  327.00      1.15240E-03
  329.00      1.14300E-03
  331.00      1.13260E-03
  333.00      1.12180E-03
  335.00      1.10960E-03
  337.00      1.10080E-03
  339.00      1.09090E-03
  341.00      1.08070E-03
  343.00      1.06930E-03
  345.00      1.05730E-03
  347.00      1.04950E-03
  349.00      1.04000E-03
  351.00      1.03130E-03
  353.00      1.02230E-03
  355.00      1.01240E-03
  357.00      1.00630E-03
  359.00      9.93260E-04
  361.00      9.86530E-04
  363.00      9.75320E-04
  364.00      9.64480E-04
  365.00      9.09640E-04
  367.00      9.03480E-04
  369.00      8.96930E-04
  371.00      8.87800E-04
  373.00      8.86070E-04
  375.00      8.87460E-04
  377.00      8.81860E-04
  379.00      8.98510E-04
  381.00      9.21080E-04
  383.00      8.58430E-04
  385.00      9.30380E-04
  387.00      9.40620E-04
  389.00      8.27760E-04
  391.00      9.32560E-04
  393.00      9.27200E-04
  395.00      9.18330E-04
  397.00      7.96700E-04
  399.00      9.00740E-04
  401.00      9.00790E-04
  403.00      8.69420E-04
  405.00      8.91790E-04
  407.00      8.80860E-04
  409.00      8.35510E-04
  411.00      7.74120E-04
  413.00      8.55040E-04
  415.00      8.52040E-04
  417.00      8.49440E-04
  419.00      8.39050E-04
  421.00      8.27140E-04
  423.00      8.29590E-04
  425.00      8.22510E-04
  427.00      8.15620E-04
  429.00      8.08970E-04
  431.00      7.98840E-04
  433.00      7.51530E-04
  435.00      7.13450E-04
  437.00      7.79160E-04
  439.00      7.66750E-04
  441.00      7.71150E-04
  443.00      7.64940E-04
  445.00      7.59740E-04
  447.00      7.35360E-04
  449.00      7.47810E-04
  451.00      7.42190E-04
  453.00      7.35570E-04
  455.00      7.20170E-04
  457.00      7.25580E-04
  459.00      7.19740E-04
  461.00      7.14360E-04
  463.00      7.08250E-04
  465.00      6.99150E-04
  467.00      6.97650E-04
  469.00      6.73820E-04
  471.00      6.83260E-04
  473.00      6.83310E-04
  475.00      6.78240E-04
  477.00      6.73290E-04
  479.00      6.68360E-04
  481.00      6.63200E-04
  483.00      6.55470E-04
  485.00      6.23690E-04
  487.00      5.83500E-04
  489.00      6.39770E-04
  491.00      6.38520E-04
  493.00      6.26180E-04
  495.00      6.30550E-04
  497.00      6.26350E-04
  499.00      6.21930E-04
  501.00      6.13440E-04
  503.00      6.13130E-04
  505.00      6.07470E-04
  507.00      6.04680E-04
  509.00      6.00480E-04
  511.00      5.96330E-04
  513.00      5.92220E-04
  515.00      5.88140E-04
  517.00      5.84080E-04
  519.00      5.80120E-04
  521.00      5.76170E-04
  523.00      5.72270E-04
  525.00      5.68360E-04
  527.00      5.64490E-04
  529.00      5.60770E-04
  531.00      5.57020E-04
  533.00      5.53300E-04
  535.00      5.49620E-04
  537.00      5.45970E-04
  539.00      5.42360E-04
  541.00      5.30520E-04
  543.00      5.35240E-04
  545.00      5.31750E-04
  547.00      5.28280E-04
  549.00      5.24850E-04
  551.00      5.21410E-04
  553.00      5.18070E-04
  555.00      5.14740E-04
  557.00      5.11430E-04
  559.00      5.07930E-04
  561.00      5.04920E-04
  563.00      5.01700E-04
  565.00      4.98520E-04
  567.00      4.95370E-04
  569.00      4.88860E-04
  571.00      4.72700E-04
  573.00      4.69920E-04
  575.00      4.67130E-04
  577.00      4.64420E-04
  579.00      4.61730E-04
  581.00      4.59040E-04
  583.00      4.56580E-04
  585.00      4.54420E-04
  587.00      4.44940E-04
  589.00      4.50250E-04
  591.00      4.49210E-04
  593.00      4.47840E-04
  595.00      4.46570E-04
  597.00      4.45410E-04
  599.00      4.44400E-04
  601.00      4.43180E-04
  603.00      4.41660E-04
  605.00      4.40640E-04
  607.00      4.38520E-04
  609.00      4.35920E-04
  611.00      4.33340E-04
  613.00      4.30780E-04
  615.00      4.28250E-04
  617.00      4.25730E-04
  619.00      4.23240E-04
  621.00      4.20780E-04
  623.00      4.18320E-04
  625.00      4.15900E-04
  627.00      4.13500E-04
  629.00      4.11110E-04
  631.00      4.08470E-04
  633.00      4.06400E-04
  635.00      4.04080E-04
  637.00      4.01780E-04
  639.00      3.99480E-04
  641.00      3.96530E-04
  643.00      3.94970E-04
  645.00      3.92750E-04
  647.00      3.90530E-04
  649.00      3.88340E-04
  651.00      3.85800E-04
  653.00      3.81300E-04
  655.00      3.71740E-04
  657.00      3.44850E-04
  659.00      3.75040E-04
  661.00      3.75250E-04
  663.00      3.73520E-04
  665.00      3.71530E-04
  667.00      3.66710E-04
  669.00      3.63480E-04
  671.00      3.65370E-04
  673.00      3.63480E-04
  675.00      3.61530E-04
  677.00      3.59600E-04
  679.00      3.57660E-04
  681.00      3.55740E-04
  683.00      3.53840E-04
  685.00      3.51950E-04
  687.00      3.50070E-04
  689.00      3.46420E-04
  691.00      3.46290E-04
  693.00      3.44540E-04
  695.00      3.42730E-04
  697.00      3.40920E-04
  699.00      3.39140E-04
  701.00      3.37350E-04
  703.00      3.35570E-04
  705.00      3.33830E-04
  707.00      3.29110E-04
  709.00      3.30410E-04
  711.00      3.28700E-04
  713.00      3.27010E-04
  715.00      3.25330E-04
  717.00      3.22350E-04
  719.00      3.21210E-04
  721.00      3.20370E-04
  723.00      3.18720E-04
  725.00      3.17120E-04
  727.00      3.15520E-04
  729.00      3.12520E-04
  731.00      3.12340E-04
  733.00      3.10780E-04
  735.00      3.09220E-04
  737.00      3.07680E-04
  739.00      3.06150E-04
  741.00      3.04620E-04
  743.00      3.03110E-04
  745.00      3.01620E-04
  747.00      3.00140E-04
  749.00      2.98630E-04
  751.00      2.97170E-04
  753.00      2.95740E-04
  755.00      2.94290E-04
  757.00      2.92860E-04
  759.00      2.89210E-04
  761.00      2.89900E-04
  763.00      2.88620E-04
  765.00      2.87220E-04
  767.00      2.85840E-04
  769.00      2.84430E-04
  771.00      2.83100E-04
  773.00      2.81690E-04
  775.00      2.80400E-04
  777.00      2.79070E-04
  779.00      2.77750E-04
  781.00      2.76380E-04
  783.00      2.75120E-04
  785.00      2.73930E-04
  787.00      2.72620E-04
  789.00      2.71340E-04
  791.00      2.70090E-04
  793.00      2.68830E-04
  795.00      2.67580E-04
  797.00      2.66320E-04
  799.00      2.65090E-04
  801.00      2.63870E-04
  803.00      2.62650E-04
  805.00      2.61440E-04
  807.00      2.60240E-04
  809.00      2.58990E-04
  811.00      2.57810E-04
  813.00      2.56680E-04
  815.00      2.55460E-04
  817.00      2.54330E-04
  819.00      2.52620E-04
  821.00      2.47440E-04
  823.00      2.45260E-04
  825.00      2.45110E-04
  827.00      2.44100E-04
  829.00      2.43340E-04
  831.00      2.42340E-04
  833.00      2.41200E-04
  835.00      2.39850E-04
  837.00      2.39070E-04
  839.00      2.38140E-04
  841.00      2.37140E-04
  843.00      2.36100E-04
  845.00      2.34630E-04
  847.00      2.34170E-04
  849.00      2.33120E-04
  851.00      2.32280E-04
  853.00      2.31200E-04
  855.00      2.30320E-04
  857.00      2.29750E-04
  859.00      2.27550E-04
  861.00      2.27520E-04
  863.00      2.27530E-04
  865.00      2.25560E-04
  867.00      2.23480E-04
  869.00      2.25060E-04
  871.00      2.24980E-04
  873.00      2.22450E-04
  875.00      2.17730E-04
  877.00      2.19920E-04
  879.00      2.22130E-04
  881.00      2.21940E-04
  883.00      2.20480E-04
  885.00      2.14370E-04
  887.00      2.09600E-04
  889.00      2.16620E-04
  891.00      2.18030E-04
  893.00      2.17680E-04
  895.00      2.17090E-04
  897.00      2.15710E-04
  899.00      2.11800E-04
  901.00      2.01340E-04
  903.00      2.04660E-04
  905.00      2.10790E-04
  907.00      2.10530E-04
  909.00      2.10930E-04
  911.00      2.10420E-04
  913.00      2.10010E-04
  915.00      2.08870E-04
  917.00      2.07420E-04
  919.00      2.05730E-04
  921.00      1.99840E-04
  923.00      1.88470E-04
  925.00      1.97970E-04
  927.00      2.02170E-04
  929.00      2.02520E-04
  931.00      2.01810E-04
  933.00      2.01390E-04
  935.00      1.97940E-04
  937.00      1.99830E-04
  939.00      1.99210E-04
  941.00      1.98410E-04
  943.00      1.97610E-04
  945.00      1.96820E-04
  947.00      1.95160E-04
  949.00      1.94530E-04
  951.00      1.91780E-04
  953.00      1.85860E-04
  955.00      1.75280E-04
  957.00      1.86630E-04
  959.00      1.89860E-04
  961.00      1.89900E-04
  963.00      1.89270E-04
  965.00      1.89180E-04
  967.00      1.88440E-04
  969.00      1.87650E-04
  971.00      1.86600E-04
  973.00      1.86240E-04
  975.00      1.85520E-04
  977.00      1.84650E-04
  979.00      1.84090E-04
  981.00      1.83380E-04
  983.00      1.82680E-04
  985.00      1.81980E-04
  987.00      1.81280E-04
  989.00      1.80580E-04
  991.00      1.79880E-04
  993.00      1.79210E-04
  995.00      1.78520E-04
  997.00      1.77740E-04
  999.00      1.76600E-04
  1002.5      1.70280E-04
  1007.5      1.67210E-04
  1012.5      1.70480E-04
  1017.5      1.71110E-04
  1022.5      1.69500E-04
  1027.5      1.67960E-04
  1032.5      1.66010E-04
  1037.5      1.64900E-04
  1042.5      1.63250E-04
  1047.5      1.61920E-04
  1052.5      1.60460E-04
  1057.5      1.59020E-04
  1062.5      1.57600E-04
  1067.5      1.56070E-04
  1072.5      1.54820E-04
  1077.5      1.53450E-04
  1082.5      1.51250E-04
  1087.5      1.50210E-04
  1092.5      1.41110E-04
  1097.5      1.45230E-04
  1102.5      1.46320E-04
  1107.5      1.45550E-04
  1112.5      1.44380E-04
  1117.5      1.43170E-04
  1122.5      1.41930E-04
  1127.5      1.40760E-04
  1132.5      1.39570E-04
  1137.5      1.38410E-04
  1142.5      1.37250E-04
  1147.5      1.36110E-04
  1152.5      1.34990E-04
  1157.5      1.33880E-04
  1162.5      1.32040E-04
  1167.5      1.31420E-04
  1172.5      1.30620E-04
  1177.5      1.29560E-04
  1182.5      1.28520E-04
  1187.5      1.27480E-04
  1192.5      1.26460E-04
  1197.5      1.24650E-04
  1202.5      1.24460E-04
  1207.5      1.23470E-04
  1212.5      1.22500E-04
  1217.5      1.21540E-04
  1222.5      1.20590E-04
  1227.5      1.19650E-04
  1232.5      1.18720E-04
  1237.5      1.17800E-04
  1242.5      1.16900E-04
  1247.5      1.16000E-04
  1252.5      1.15000E-04
  1257.5      1.14240E-04
  1262.5      1.13370E-04
  1267.5      1.12510E-04
  1272.5      1.11590E-04
  1277.5      1.09290E-04
  1282.5      1.03730E-04
  1287.5      1.08440E-04
  1292.5      1.08330E-04
  1297.5      1.07190E-04
  1302.5      1.06780E-04
  1307.5      1.06000E-04
  1312.5      1.05230E-04
  1317.5      1.04460E-04
  1322.5      1.03700E-04
  1327.5      1.02950E-04
  1332.5      1.02210E-04
  1337.5      1.01480E-04
  1342.5      1.00720E-04
  1347.5      1.00030E-04
  1352.5      9.93240E-05
  1357.5      9.86220E-05
  1362.5      9.79260E-05
  1367.5      9.72390E-05
  1372.5      9.65570E-05
  1377.5      9.58850E-05
  1382.5      9.52190E-05
  1387.5      9.45590E-05
  1392.5      9.39060E-05
  1397.5      9.32600E-05
