 Castelli and Kurucz 2004-2012 Atmosphere
 T     44000.     G    5.00000 [-1.5a] N(He)/Ntot=0.0784 VTURB=2.0  L/H=1.25 OD
 Wavelength  Eddington Hnu
   (nm)    (ergs/s/cm2/Hz/sr)
  9.0900      2.96770E-21
  9.3500      9.02200E-21
  9.6100      2.58570E-20
  9.7700      4.83290E-20
  9.9600      9.88630E-20
  10.200      2.35620E-19
  10.380      4.41440E-19
  10.560      8.11220E-19
  10.770      1.61060E-18
  11.040      3.75250E-18
  11.400      1.09370E-17
  11.780      3.17290E-17
  12.130      8.01680E-17
  12.480      1.93060E-16
  12.710      3.35770E-16
  12.840      4.55430E-16
  13.050      7.36500E-16
  13.240      1.12430E-15
  13.390      1.55840E-15
  13.660      2.76000E-15
  13.980      5.30670E-15
  14.330      1.05160E-14
  14.720      2.16920E-14
  15.100      4.29330E-14
  15.520      8.78060E-14
  15.880      1.57990E-13
  16.200      2.61710E-13
  16.600      4.80110E-13
  17.030      8.94280E-13
  17.340      1.37750E-12
  17.680      2.18430E-12
  18.020      3.40560E-12
  18.170      4.10580E-12
  18.610      7.11770E-12
  19.100      1.27270E-11
  19.390      1.77460E-11
  19.840      2.91730E-11
  20.180      4.19120E-11
  20.500      5.83730E-11
  21.050      1.00920E-10
  21.620      1.73050E-10
  21.980      2.40330E-10
  22.300      3.18780E-10
  22.680      4.40450E-10
  23.000      5.16310E-08
  23.400      2.30260E-07
  24.000      9.50670E-07
  24.650      1.05380E-05
  25.240      3.67150E-05
  25.680      3.11280E-05
  26.000      7.63920E-05
  26.400      1.40820E-04
  26.850      1.87100E-04
  27.350      2.31770E-04
  27.850      2.21360E-04
  28.400      3.15240E-04
  29.000      3.66100E-04
  29.600      3.01310E-04
  30.100      9.15750E-05
  30.800      1.86960E-04
  31.800      2.23210E-04
  32.800      2.73150E-04
  33.800      2.39350E-04
  34.800      2.54700E-04
  35.700      3.99390E-04
  36.600      5.21220E-04
  37.500      5.83300E-04
  38.500      5.72110E-04
  39.500      6.91160E-04
  40.500      7.84940E-04
  41.400      8.13440E-04
  42.200      8.03240E-04
  43.000      7.98520E-04
  44.100      8.79570E-04
  45.100      9.21680E-04
  46.000      8.97020E-04
  47.000      9.24390E-04
  48.000      9.76380E-04
  49.000      9.32720E-04
  50.000      1.03570E-03
  50.600      1.04510E-03
  51.200      1.41400E-03
  52.000      1.39960E-03
  53.000      1.41060E-03
  54.000      1.33670E-03
  55.000      1.30380E-03
  56.000      1.51400E-03
  57.000      1.58200E-03
  58.000      1.57370E-03
  59.000      1.63050E-03
  60.000      1.58870E-03
  61.000      1.55660E-03
  62.000      1.70490E-03
  63.000      1.70110E-03
  64.000      1.77210E-03
  65.000      1.75350E-03
  65.800      1.69900E-03
  66.500      1.80070E-03
  67.500      1.85720E-03
  68.500      1.80100E-03
  69.500      1.89560E-03
  70.500      1.81300E-03
  71.600      1.94570E-03
  72.600      1.98080E-03
  73.500      2.00250E-03
  74.500      1.99330E-03
  75.500      1.99580E-03
  76.500      1.98630E-03
  77.500      2.03930E-03
  78.500      2.02210E-03
  79.500      2.06470E-03
  80.500      2.08530E-03
  81.500      2.11330E-03
  82.500      2.14070E-03
  83.500      2.05090E-03
  84.500      2.15940E-03
  85.500      2.14880E-03
  86.500      2.19570E-03
  87.500      2.21710E-03
  88.500      2.21980E-03
  89.500      2.22990E-03
  90.500      2.21850E-03
  91.500      1.75750E-03
  92.500      2.85280E-03
  93.500      3.70880E-03
  94.500      4.70540E-03
  95.500      5.23680E-03
  96.500      6.10130E-03
  97.500      4.70500E-03
  98.500      6.03320E-03
  99.500      5.60150E-03
  100.50      5.97630E-03
  101.50      5.97070E-03
  102.50      4.69680E-03
  103.50      5.91560E-03
  104.50      5.99740E-03
  105.50      5.96740E-03
  106.50      5.78060E-03
  107.50      5.80650E-03
  108.50      5.45150E-03
  109.50      5.77490E-03
  110.50      5.68520E-03
  111.50      5.63010E-03
  112.50      5.49160E-03
  113.50      5.57970E-03
  114.50      5.54000E-03
  115.50      5.43580E-03
  116.50      5.37480E-03
  117.50      5.05000E-03
  118.50      5.28460E-03
  119.50      5.23110E-03
  120.50      5.17290E-03
  121.50      4.13350E-03
  122.50      5.08780E-03
  123.50      5.05410E-03
  124.50      5.00760E-03
  125.50      5.04520E-03
  126.50      5.00840E-03
  127.50      4.97640E-03
  128.50      4.94100E-03
  129.50      4.88960E-03
  130.50      4.84450E-03
  131.50      4.81700E-03
  132.50      4.76550E-03
  133.50      4.74000E-03
  134.50      4.70590E-03
  135.50      4.64790E-03
  136.50      4.58440E-03
  137.50      4.51190E-03
  138.50      4.51530E-03
  139.50      4.42810E-03
  140.50      4.34900E-03
  141.50      4.42620E-03
  142.50      4.36160E-03
  143.50      4.36030E-03
  144.20      4.30640E-03
  144.70      4.29570E-03
  145.50      4.25790E-03
  146.50      4.23340E-03
  147.50      4.21100E-03
  148.50      4.20590E-03
  149.50      4.16350E-03
  150.50      4.14290E-03
  151.20      4.12860E-03
  151.70      4.09690E-03
  152.50      4.07420E-03
  153.50      3.99940E-03
  154.50      3.83000E-03
  155.50      3.83050E-03
  156.50      3.89430E-03
  157.50      3.89200E-03
  158.50      3.85940E-03
  159.50      3.83560E-03
  160.50      3.77330E-03
  161.50      3.74140E-03
  162.50      3.69790E-03
  163.50      3.61800E-03
  164.50      3.46670E-03
  165.50      3.66620E-03
  166.50      3.64200E-03
  167.20      3.59370E-03
  167.70      3.62800E-03
  168.50      3.60480E-03
  169.50      3.58130E-03
  170.50      3.54820E-03
  171.50      3.47620E-03
  172.50      3.46790E-03
  173.50      3.48410E-03
  174.50      3.45350E-03
  175.50      3.42300E-03
  176.50      3.40460E-03
  177.50      3.38380E-03
  178.50      3.36370E-03
  179.50      3.33430E-03
  180.50      3.31290E-03
  181.50      3.28990E-03
  182.50      3.26520E-03
  183.50      3.24520E-03
  184.50      3.22140E-03
  185.50      3.19680E-03
  186.50      3.17410E-03
  187.50      3.15030E-03
  188.50      3.12800E-03
  189.50      3.11230E-03
  190.50      3.09110E-03
  191.50      3.06850E-03
  192.50      3.03150E-03
  193.50      3.02760E-03
  194.50      3.00740E-03
  195.50      2.98400E-03
  196.70      2.96150E-03
  197.60      2.94280E-03
  198.40      2.92780E-03
  199.50      2.90560E-03
  200.50      2.88680E-03
  201.50      2.86730E-03
  202.50      2.84780E-03
  203.50      2.82860E-03
  204.50      2.80770E-03
  205.50      2.14850E-03
  206.50      2.07210E-03
  207.40      2.10590E-03
  207.80      2.14890E-03
  208.50      2.26520E-03
  209.50      2.51860E-03
  210.50      2.67970E-03
  211.50      2.69070E-03
  212.50      2.67130E-03
  213.50      2.65110E-03
  214.50      2.63880E-03
  215.50      2.66230E-03
  216.50      2.56980E-03
  217.50      2.65180E-03
  218.50      2.54020E-03
  219.50      2.61880E-03
  220.50      2.60850E-03
  221.50      2.48500E-03
  222.50      2.57500E-03
  223.50      2.56240E-03
  224.50      2.54050E-03
  225.50      2.42530E-03
  226.50      2.51190E-03
  227.50      2.49780E-03
  228.50      2.47790E-03
  229.50      2.44700E-03
  230.50      2.35330E-03
  231.50      2.42810E-03
  232.50      2.41930E-03
  233.50      2.40460E-03
  234.50      2.38930E-03
  235.50      2.37440E-03
  236.50      2.35960E-03
  237.50      2.34300E-03
  238.50      2.23660E-03
  239.50      2.30600E-03
  240.50      2.30010E-03
  241.50      2.28480E-03
  242.50      2.27380E-03
  243.50      2.25900E-03
  244.50      2.24580E-03
  245.50      2.22870E-03
  246.50      2.21870E-03
  247.50      2.20580E-03
  248.50      2.19200E-03
  249.50      2.11590E-03
  250.50      2.15270E-03
  251.30      1.99480E-03
  251.80      2.12880E-03
  252.50      2.13650E-03
  253.50      2.12780E-03
  254.50      2.11510E-03
  255.50      2.10240E-03
  256.50      2.09040E-03
  257.50      2.07820E-03
  258.50      2.06610E-03
  259.50      2.04910E-03
  260.50      2.04250E-03
  261.50      2.02890E-03
  262.50      2.01920E-03
  263.50      2.00770E-03
  264.50      1.99570E-03
  265.50      1.98470E-03
  266.50      1.97280E-03
  267.50      1.95840E-03
  268.50      1.95000E-03
  269.50      1.93830E-03
  270.50      1.92910E-03
  271.50      1.91800E-03
  272.50      1.90450E-03
  273.50      1.83200E-03
  274.50      1.88600E-03
  275.50      1.87540E-03
  276.50      1.86350E-03
  277.50      1.85450E-03
  278.50      1.84360E-03
  279.50      1.83200E-03
  280.50      1.82380E-03
  281.50      1.81400E-03
  282.50      1.80210E-03
  283.50      1.79340E-03
  284.50      1.78480E-03
  285.50      1.77510E-03
  286.50      1.76540E-03
  287.50      1.75590E-03
  288.50      1.74650E-03
  289.50      1.73690E-03
  291.00      1.72290E-03
  293.00      1.70480E-03
  295.00      1.68530E-03
  297.00      1.66820E-03
  299.00      1.64900E-03
  301.00      1.63290E-03
  303.00      1.61380E-03
  305.00      1.59790E-03
  307.00      1.58260E-03
  309.00      1.56720E-03
  311.00      1.55120E-03
  313.00      1.53500E-03
  315.00      1.52060E-03
  317.00      1.50510E-03
  319.00      1.48750E-03
  321.00      1.45040E-03
  323.00      1.46150E-03
  325.00      1.44710E-03
  327.00      1.42920E-03
  329.00      1.41850E-03
  331.00      1.40480E-03
  333.00      1.39140E-03
  335.00      1.37660E-03
  337.00      1.36500E-03
  339.00      1.35200E-03
  341.00      1.33900E-03
  343.00      1.32740E-03
  345.00      1.31330E-03
  347.00      1.30270E-03
  349.00      1.29060E-03
  351.00      1.27870E-03
  353.00      1.26630E-03
  355.00      1.25440E-03
  357.00      1.24400E-03
  359.00      1.23140E-03
  361.00      1.22090E-03
  363.00      1.20880E-03
  364.00      1.18170E-03
  365.00      1.08370E-03
  367.00      1.07560E-03
  369.00      1.06860E-03
  371.00      1.06560E-03
  373.00      1.07060E-03
  375.00      1.08130E-03
  377.00      1.08990E-03
  379.00      1.10810E-03
  381.00      1.12730E-03
  383.00      1.07690E-03
  385.00      1.12560E-03
  387.00      1.13300E-03
  389.00      1.03670E-03
  391.00      1.11880E-03
  393.00      1.10710E-03
  395.00      1.10220E-03
  397.00      9.98520E-04
  399.00      1.08200E-03
  401.00      1.07970E-03
  403.00      1.04920E-03
  405.00      1.06620E-03
  407.00      1.05460E-03
  409.00      1.01510E-03
  411.00      9.59660E-04
  413.00      1.02620E-03
  415.00      1.02100E-03
  417.00      1.01440E-03
  419.00      9.99680E-04
  421.00      9.81680E-04
  423.00      9.89910E-04
  425.00      9.81840E-04
  427.00      9.73880E-04
  429.00      9.66040E-04
  431.00      9.55710E-04
  433.00      9.14320E-04
  435.00      8.80050E-04
  437.00      9.32270E-04
  439.00      9.24410E-04
  441.00      9.20700E-04
  443.00      9.13450E-04
  445.00      9.06520E-04
  447.00      8.90500E-04
  449.00      8.92430E-04
  451.00      8.85500E-04
  453.00      8.76550E-04
  455.00      8.54520E-04
  457.00      8.65420E-04
  459.00      8.58830E-04
  461.00      8.52260E-04
  463.00      8.45230E-04
  465.00      8.37150E-04
  467.00      8.31910E-04
  469.00      7.97960E-04
  471.00      8.18760E-04
  473.00      8.14870E-04
  475.00      8.08860E-04
  477.00      8.02900E-04
  479.00      7.97010E-04
  481.00      7.91140E-04
  483.00      7.83440E-04
  485.00      7.56650E-04
  487.00      7.19300E-04
  489.00      7.65230E-04
  491.00      7.62860E-04
  493.00      7.53490E-04
  495.00      7.52110E-04
  497.00      7.46830E-04
  499.00      7.41550E-04
  501.00      7.34430E-04
  503.00      7.31110E-04
  505.00      7.25590E-04
  507.00      7.20960E-04
  509.00      7.15960E-04
  511.00      7.11000E-04
  513.00      7.06090E-04
  515.00      7.01230E-04
  517.00      6.96420E-04
  519.00      6.91670E-04
  521.00      6.86960E-04
  523.00      6.82300E-04
  525.00      6.77670E-04
  527.00      6.73010E-04
  529.00      6.68590E-04
  531.00      6.64120E-04
  533.00      6.59680E-04
  535.00      6.55300E-04
  537.00      6.50960E-04
  539.00      6.46650E-04
  541.00      6.29020E-04
  543.00      6.37880E-04
  545.00      6.34000E-04
  547.00      6.29870E-04
  549.00      6.25770E-04
  551.00      6.21660E-04
  553.00      6.17700E-04
  555.00      6.13720E-04
  557.00      6.09780E-04
  559.00      6.05530E-04
  561.00      6.02020E-04
  563.00      5.98190E-04
  565.00      5.94400E-04
  567.00      5.90640E-04
  569.00      5.80120E-04
  571.00      5.47410E-04
  573.00      5.44240E-04
  575.00      5.41100E-04
  577.00      5.38030E-04
  579.00      5.35090E-04
  581.00      5.32200E-04
  583.00      5.30160E-04
  585.00      5.28490E-04
  587.00      5.23780E-04
  589.00      5.26140E-04
  591.00      5.25630E-04
  593.00      5.25350E-04
  595.00      5.25430E-04
  597.00      5.25700E-04
  599.00      5.26520E-04
  601.00      5.26090E-04
  603.00      5.25500E-04
  605.00      5.25020E-04
  607.00      5.21970E-04
  609.00      5.19310E-04
  611.00      5.16630E-04
  613.00      5.13910E-04
  615.00      5.11380E-04
  617.00      5.07030E-04
  619.00      5.05320E-04
  621.00      5.02470E-04
  623.00      4.98020E-04
  625.00      4.96190E-04
  627.00      4.93780E-04
  629.00      4.90930E-04
  631.00      4.85800E-04
  633.00      4.85010E-04
  635.00      4.82550E-04
  637.00      4.79800E-04
  639.00      4.76750E-04
  641.00      4.71320E-04
  643.00      4.71680E-04
  645.00      4.69030E-04
  647.00      4.66390E-04
  649.00      4.63780E-04
  651.00      4.60590E-04
  653.00      4.53800E-04
  655.00      4.48130E-04
  657.00      4.22290E-04
  659.00      4.49190E-04
  661.00      4.48550E-04
  663.00      4.46090E-04
  665.00      4.43660E-04
  667.00      4.39120E-04
  669.00      4.32820E-04
  671.00      4.36350E-04
  673.00      4.34080E-04
  675.00      4.31730E-04
  677.00      4.29410E-04
  679.00      4.27100E-04
  681.00      4.24810E-04
  683.00      4.22540E-04
  685.00      4.20280E-04
  687.00      4.18030E-04
  689.00      4.10230E-04
  691.00      4.13210E-04
  693.00      4.11440E-04
  695.00      4.09270E-04
  697.00      4.07120E-04
  699.00      4.04990E-04
  701.00      4.02870E-04
  703.00      4.00750E-04
  705.00      3.98670E-04
  707.00      3.94980E-04
  709.00      3.94580E-04
  711.00      3.92540E-04
  713.00      3.90520E-04
  715.00      3.88510E-04
  717.00      3.82670E-04
  719.00      3.82070E-04
  721.00      3.82590E-04
  723.00      3.80650E-04
  725.00      3.78720E-04
  727.00      3.76810E-04
  729.00      3.74320E-04
  731.00      3.73010E-04
  733.00      3.71150E-04
  735.00      3.69300E-04
  737.00      3.67450E-04
  739.00      3.65630E-04
  741.00      3.63800E-04
  743.00      3.62010E-04
  745.00      3.60200E-04
  747.00      3.58450E-04
  749.00      3.56660E-04
  751.00      3.54930E-04
  753.00      3.53200E-04
  755.00      3.51470E-04
  757.00      3.49760E-04
  759.00      3.42330E-04
  761.00      3.45900E-04
  763.00      3.44700E-04
  765.00      3.43040E-04
  767.00      3.41390E-04
  769.00      3.39730E-04
  771.00      3.38120E-04
  773.00      3.36470E-04
  775.00      3.34910E-04
  777.00      3.33320E-04
  779.00      3.31740E-04
  781.00      3.30160E-04
  783.00      3.28610E-04
  785.00      3.27070E-04
  787.00      3.25550E-04
  789.00      3.24020E-04
  791.00      3.22510E-04
  793.00      3.21010E-04
  795.00      3.19510E-04
  797.00      3.18010E-04
  799.00      3.16550E-04
  801.00      3.15090E-04
  803.00      3.13640E-04
  805.00      3.12200E-04
  807.00      3.10760E-04
  809.00      3.09340E-04
  811.00      3.07920E-04
  813.00      3.06520E-04
  815.00      3.05130E-04
  817.00      3.03720E-04
  819.00      3.01150E-04
  821.00      2.89890E-04
  823.00      2.86810E-04
  825.00      2.86930E-04
  827.00      2.86160E-04
  829.00      2.85000E-04
  831.00      2.83800E-04
  833.00      2.82570E-04
  835.00      2.81340E-04
  837.00      2.80210E-04
  839.00      2.79080E-04
  841.00      2.77980E-04
  843.00      2.76890E-04
  845.00      2.75730E-04
  847.00      2.74800E-04
  849.00      2.73900E-04
  851.00      2.72980E-04
  853.00      2.72110E-04
  855.00      2.71120E-04
  857.00      2.70500E-04
  859.00      2.69260E-04
  861.00      2.68630E-04
  863.00      2.68350E-04
  865.00      2.67190E-04
  867.00      2.65550E-04
  869.00      2.66190E-04
  871.00      2.65860E-04
  873.00      2.64540E-04
  875.00      2.61240E-04
  877.00      2.62650E-04
  879.00      2.63480E-04
  881.00      2.63150E-04
  883.00      2.62230E-04
  885.00      2.58260E-04
  887.00      2.54130E-04
  889.00      2.58650E-04
  891.00      2.59190E-04
  893.00      2.58600E-04
  895.00      2.57890E-04
  897.00      2.56520E-04
  899.00      2.53640E-04
  901.00      2.45350E-04
  903.00      2.47520E-04
  905.00      2.51440E-04
  907.00      2.51150E-04
  909.00      2.50700E-04
  911.00      2.49600E-04
  913.00      2.49150E-04
  915.00      2.48170E-04
  917.00      2.46690E-04
  919.00      2.44940E-04
  921.00      2.40770E-04
  923.00      2.30860E-04
  925.00      2.38300E-04
  927.00      2.40830E-04
  929.00      2.40720E-04
  931.00      2.40020E-04
  933.00      2.38730E-04
  935.00      2.32840E-04
  937.00      2.36390E-04
  939.00      2.36280E-04
  941.00      2.35430E-04
  943.00      2.34490E-04
  945.00      2.33560E-04
  947.00      2.32450E-04
  949.00      2.31320E-04
  951.00      2.29170E-04
  953.00      2.24610E-04
  955.00      2.14850E-04
  957.00      2.24210E-04
  959.00      2.26120E-04
  961.00      2.25960E-04
  963.00      2.25250E-04
  965.00      2.24520E-04
  967.00      2.23640E-04
  969.00      2.22770E-04
  971.00      2.21780E-04
  973.00      2.21050E-04
  975.00      2.19890E-04
  977.00      2.18280E-04
  979.00      2.18500E-04
  981.00      2.17660E-04
  983.00      2.16820E-04
  985.00      2.16000E-04
  987.00      2.15170E-04
  989.00      2.14350E-04
  991.00      2.13530E-04
  993.00      2.12720E-04
  995.00      2.11910E-04
  997.00      2.11110E-04
  999.00      2.10080E-04
  1002.5      2.04770E-04
  1007.5      2.01350E-04
  1012.5      2.01680E-04
  1017.5      2.03140E-04
  1022.5      2.01260E-04
  1027.5      1.99410E-04
  1032.5      1.97420E-04
  1037.5      1.95790E-04
  1042.5      1.93140E-04
  1047.5      1.92270E-04
  1052.5      1.90540E-04
  1057.5      1.88840E-04
  1062.5      1.87160E-04
  1067.5      1.85470E-04
  1072.5      1.83860E-04
  1077.5      1.82240E-04
  1082.5      1.80150E-04
  1087.5      1.78800E-04
  1092.5      1.70810E-04
  1097.5      1.73950E-04
  1102.5      1.74340E-04
  1107.5      1.72980E-04
  1112.5      1.71510E-04
  1117.5      1.70140E-04
  1122.5      1.68690E-04
  1127.5      1.67270E-04
  1132.5      1.65870E-04
  1137.5      1.64490E-04
  1142.5      1.63120E-04
  1147.5      1.61770E-04
  1152.5      1.60430E-04
  1157.5      1.59110E-04
  1162.5      1.56110E-04
  1167.5      1.55370E-04
  1172.5      1.55250E-04
  1177.5      1.54000E-04
  1182.5      1.52760E-04
  1187.5      1.51540E-04
  1192.5      1.50330E-04
  1197.5      1.48860E-04
  1202.5      1.47950E-04
  1207.5      1.46780E-04
  1212.5      1.45630E-04
  1217.5      1.44490E-04
  1222.5      1.43360E-04
  1227.5      1.42250E-04
  1232.5      1.41140E-04
  1237.5      1.40060E-04
  1242.5      1.38980E-04
  1247.5      1.37920E-04
  1252.5      1.36830E-04
  1257.5      1.35820E-04
  1262.5      1.34800E-04
  1267.5      1.33780E-04
  1272.5      1.32770E-04
  1277.5      1.30810E-04
  1282.5      1.25400E-04
  1287.5      1.29390E-04
  1292.5      1.28860E-04
  1297.5      1.27820E-04
  1302.5      1.26970E-04
  1307.5      1.26040E-04
  1312.5      1.25130E-04
  1317.5      1.24220E-04
  1322.5      1.23320E-04
  1327.5      1.22430E-04
  1332.5      1.21550E-04
  1337.5      1.20670E-04
  1342.5      1.19800E-04
  1347.5      1.18960E-04
  1352.5      1.18120E-04
  1357.5      1.17280E-04
  1362.5      1.16460E-04
  1367.5      1.15640E-04
  1372.5      1.14830E-04
  1377.5      1.14030E-04
  1382.5      1.13240E-04
  1387.5      1.12450E-04
  1392.5      1.11680E-04
  1397.5      1.10910E-04
