 Castelli and Kurucz 2004-2012 Atmosphere
 T     36000.     G    4.00000 [-1.5a] N(He)/Ntot=0.0784 VTURB=2.0  L/H=1.25 OD
 Wavelength  Eddington Hnu
   (nm)    (ergs/s/cm2/Hz/sr)
  9.0900      7.66440E-28
  9.3500      3.57060E-27
  9.6100      1.54160E-26
  9.7700      3.66590E-26
  9.9600      9.91140E-26
  10.200      3.31580E-25
  10.380      7.93770E-25
  10.560      1.84930E-24
  10.770      4.79590E-24
  11.040      1.55250E-23
  11.400      6.84770E-23
  11.780      2.99200E-22
  12.130      1.07680E-21
  12.480      3.61690E-21
  12.710      7.74600E-21
  12.840      1.17760E-20
  13.050      2.27760E-20
  13.240      4.06650E-20
  13.390      6.35590E-20
  13.660      1.38790E-19
  13.980      3.37630E-19
  14.330      8.54480E-19
  14.720      2.28560E-18
  15.100      5.70830E-18
  15.520      1.49170E-17
  15.880      3.27200E-17
  16.200      6.39980E-17
  16.600      1.43220E-16
  17.030      3.27160E-16
  17.340      5.79590E-16
  17.680      1.06220E-15
  18.020      1.90540E-15
  18.170      2.44930E-15
  18.610      5.01590E-15
  19.100      1.07440E-14
  19.390      1.65840E-14
  19.840      3.17680E-14
  20.180      5.09710E-14
  20.500      7.84810E-14
  21.050      1.60360E-13
  21.620      3.24130E-13
  21.980      4.96800E-13
  22.300      7.17990E-13
  22.680      1.09730E-12
  23.000      7.79160E-10
  23.400      3.88660E-09
  24.000      9.02570E-09
  24.650      2.63760E-08
  25.240      7.75350E-08
  25.680      5.72010E-08
  26.000      2.68810E-07
  26.400      1.05570E-06
  26.850      2.04140E-06
  27.350      2.80500E-06
  27.850      2.42960E-06
  28.400      5.15510E-06
  29.000      6.02030E-06
  29.600      3.17830E-06
  30.100      4.26640E-07
  30.800      2.35730E-06
  31.800      6.94420E-06
  32.800      9.94490E-06
  33.800      1.08200E-05
  34.800      1.30550E-05
  35.700      2.01330E-05
  36.600      2.81630E-05
  37.500      3.14230E-05
  38.500      3.28590E-05
  39.500      4.03210E-05
  40.500      4.64700E-05
  41.400      4.99150E-05
  42.200      5.04160E-05
  43.000      5.09950E-05
  44.100      5.81540E-05
  45.100      6.30710E-05
  46.000      6.39250E-05
  47.000      6.81560E-05
  48.000      7.50680E-05
  49.000      7.50410E-05
  50.000      8.74220E-05
  50.600      1.58090E-04
  51.200      3.54560E-04
  52.000      3.45930E-04
  53.000      3.38510E-04
  54.000      3.24220E-04
  55.000      3.31220E-04
  56.000      4.06680E-04
  57.000      4.32110E-04
  58.000      4.26350E-04
  59.000      4.52330E-04
  60.000      4.27070E-04
  61.000      4.46280E-04
  62.000      5.10960E-04
  63.000      5.16290E-04
  64.000      5.41560E-04
  65.000      5.43360E-04
  65.800      5.19470E-04
  66.500      5.61830E-04
  67.500      5.98380E-04
  68.500      5.73550E-04
  69.500      6.19890E-04
  70.500      5.81160E-04
  71.600      6.59610E-04
  72.600      6.74170E-04
  73.500      6.93070E-04
  74.500      6.86830E-04
  75.500      6.95280E-04
  76.500      7.02440E-04
  77.500      7.25960E-04
  78.500      7.31450E-04
  79.500      7.54650E-04
  80.500      7.61550E-04
  81.500      7.81140E-04
  82.500      8.02640E-04
  83.500      7.52440E-04
  84.500      8.21050E-04
  85.500      8.26410E-04
  86.500      8.51530E-04
  87.500      8.64560E-04
  88.500      8.74420E-04
  89.500      8.85180E-04
  90.500      8.86730E-04
  91.500      8.34780E-04
  92.500      1.72660E-03
  93.500      2.28600E-03
  94.500      2.72050E-03
  95.500      2.94020E-03
  96.500      3.22070E-03
  97.500      2.57510E-03
  98.500      3.12510E-03
  99.500      2.99520E-03
  100.50      3.08030E-03
  101.50      3.15330E-03
  102.50      2.72560E-03
  103.50      3.14460E-03
  104.50      3.20380E-03
  105.50      3.19620E-03
  106.50      3.11500E-03
  107.50      3.12850E-03
  108.50      3.03820E-03
  109.50      3.15240E-03
  110.50      3.11200E-03
  111.50      3.08980E-03
  112.50      2.99110E-03
  113.50      3.09270E-03
  114.50      3.07840E-03
  115.50      3.03030E-03
  116.50      3.02960E-03
  117.50      2.76140E-03
  118.50      2.95820E-03
  119.50      2.95790E-03
  120.50      2.93090E-03
  121.50      2.51690E-03
  122.50      2.92520E-03
  123.50      2.93180E-03
  124.50      2.90070E-03
  125.50      2.92750E-03
  126.50      2.92450E-03
  127.50      2.91810E-03
  128.50      2.91040E-03
  129.50      2.86740E-03
  130.50      2.86100E-03
  131.50      2.86790E-03
  132.50      2.84490E-03
  133.50      2.83230E-03
  134.50      2.82830E-03
  135.50      2.80020E-03
  136.50      2.77330E-03
  137.50      2.74730E-03
  138.50      2.74820E-03
  139.50      2.66460E-03
  140.50      2.63270E-03
  141.50      2.70800E-03
  142.50      2.65540E-03
  143.50      2.67680E-03
  144.20      2.66030E-03
  144.70      2.65430E-03
  145.50      2.63040E-03
  146.50      2.62590E-03
  147.50      2.61490E-03
  148.50      2.61790E-03
  149.50      2.59080E-03
  150.50      2.58970E-03
  151.20      2.58900E-03
  151.70      2.56850E-03
  152.50      2.55090E-03
  153.50      2.48280E-03
  154.50      2.37420E-03
  155.50      2.38050E-03
  156.50      2.42640E-03
  157.50      2.45090E-03
  158.50      2.44650E-03
  159.50      2.43550E-03
  160.50      2.37590E-03
  161.50      2.35790E-03
  162.50      2.33880E-03
  163.50      2.32300E-03
  164.50      2.24190E-03
  165.50      2.35160E-03
  166.50      2.33230E-03
  167.20      2.29560E-03
  167.70      2.35420E-03
  168.50      2.33570E-03
  169.50      2.32550E-03
  170.50      2.30380E-03
  171.50      2.26090E-03
  172.50      2.25470E-03
  173.50      2.28600E-03
  174.50      2.26800E-03
  175.50      2.24700E-03
  176.50      2.24580E-03
  177.50      2.23850E-03
  178.50      2.22850E-03
  179.50      2.20810E-03
  180.50      2.20130E-03
  181.50      2.18880E-03
  182.50      2.17380E-03
  183.50      2.16960E-03
  184.50      2.15390E-03
  185.50      2.13890E-03
  186.50      2.12570E-03
  187.50      2.11270E-03
  188.50      2.10280E-03
  189.50      2.09780E-03
  190.50      2.08880E-03
  191.50      2.07570E-03
  192.50      2.04760E-03
  193.50      2.05430E-03
  194.50      2.04380E-03
  195.50      2.02690E-03
  196.70      2.01790E-03
  197.60      2.00850E-03
  198.40      1.99980E-03
  199.50      1.98640E-03
  200.50      1.97780E-03
  201.50      1.96690E-03
  202.50      1.95580E-03
  203.50      1.94480E-03
  204.50      1.93250E-03
  205.50      1.54340E-03
  206.50      1.51080E-03
  207.40      1.56230E-03
  207.80      1.60710E-03
  208.50      1.73840E-03
  209.50      1.86920E-03
  210.50      1.87110E-03
  211.50      1.87030E-03
  212.50      1.85690E-03
  213.50      1.84920E-03
  214.50      1.84170E-03
  215.50      1.85700E-03
  216.50      1.80770E-03
  217.50      1.84310E-03
  218.50      1.79530E-03
  219.50      1.82350E-03
  220.50      1.81390E-03
  221.50      1.76590E-03
  222.50      1.79380E-03
  223.50      1.78440E-03
  224.50      1.77430E-03
  225.50      1.72920E-03
  226.50      1.75520E-03
  227.50      1.74600E-03
  228.50      1.73330E-03
  229.50      1.70560E-03
  230.50      1.68370E-03
  231.50      1.70670E-03
  232.50      1.69890E-03
  233.50      1.69000E-03
  234.50      1.68060E-03
  235.50      1.67160E-03
  236.50      1.66260E-03
  237.50      1.65300E-03
  238.50      1.60740E-03
  239.50      1.62940E-03
  240.50      1.62650E-03
  241.50      1.61700E-03
  242.50      1.61000E-03
  243.50      1.60080E-03
  244.50      1.59260E-03
  245.50      1.58210E-03
  246.50      1.57590E-03
  247.50      1.56790E-03
  248.50      1.55890E-03
  249.50      1.46560E-03
  250.50      1.53940E-03
  251.30      1.46560E-03
  251.80      1.51860E-03
  252.50      1.52580E-03
  253.50      1.51920E-03
  254.50      1.51120E-03
  255.50      1.50310E-03
  256.50      1.49570E-03
  257.50      1.48800E-03
  258.50      1.48040E-03
  259.50      1.47000E-03
  260.50      1.46600E-03
  261.50      1.45760E-03
  262.50      1.45110E-03
  263.50      1.44370E-03
  264.50      1.43590E-03
  265.50      1.42880E-03
  266.50      1.42080E-03
  267.50      1.41140E-03
  268.50      1.40690E-03
  269.50      1.39860E-03
  270.50      1.39350E-03
  271.50      1.38620E-03
  272.50      1.37720E-03
  273.50      1.34510E-03
  274.50      1.36580E-03
  275.50      1.35870E-03
  276.50      1.34960E-03
  277.50      1.34530E-03
  278.50      1.33810E-03
  279.50      1.32930E-03
  280.50      1.32490E-03
  281.50      1.31870E-03
  282.50      1.30940E-03
  283.50      1.30500E-03
  284.50      1.29970E-03
  285.50      1.29330E-03
  286.50      1.28680E-03
  287.50      1.28060E-03
  288.50      1.27440E-03
  289.50      1.26810E-03
  291.00      1.25870E-03
  293.00      1.24680E-03
  295.00      1.23270E-03
  297.00      1.22250E-03
  299.00      1.20940E-03
  301.00      1.19880E-03
  303.00      1.18560E-03
  305.00      1.17520E-03
  307.00      1.16550E-03
  309.00      1.15430E-03
  311.00      1.14370E-03
  313.00      1.13310E-03
  315.00      1.12320E-03
  317.00      1.11270E-03
  319.00      1.09990E-03
  321.00      1.08070E-03
  323.00      1.08310E-03
  325.00      1.07330E-03
  327.00      1.06100E-03
  329.00      1.05360E-03
  331.00      1.04430E-03
  333.00      1.03510E-03
  335.00      1.02450E-03
  337.00      1.01690E-03
  339.00      1.00820E-03
  341.00      9.99220E-04
  343.00      9.89960E-04
  345.00      9.80010E-04
  347.00      9.73810E-04
  349.00      9.65150E-04
  351.00      9.56960E-04
  353.00      9.48360E-04
  355.00      9.40030E-04
  357.00      9.33550E-04
  359.00      9.23740E-04
  361.00      9.16680E-04
  363.00      9.07850E-04
  364.00      8.93960E-04
  365.00      8.37160E-04
  367.00      8.31550E-04
  369.00      8.27490E-04
  371.00      8.25860E-04
  373.00      8.26700E-04
  375.00      8.41530E-04
  377.00      8.45900E-04
  379.00      8.57000E-04
  381.00      8.70500E-04
  383.00      8.28290E-04
  385.00      8.69610E-04
  387.00      8.68790E-04
  389.00      8.07930E-04
  391.00      8.59380E-04
  393.00      8.46890E-04
  395.00      8.46130E-04
  397.00      7.79810E-04
  399.00      8.32620E-04
  401.00      8.26410E-04
  403.00      8.06940E-04
  405.00      8.15530E-04
  407.00      8.08090E-04
  409.00      7.88830E-04
  411.00      7.47130E-04
  413.00      7.87930E-04
  415.00      7.81860E-04
  417.00      7.77780E-04
  419.00      7.70500E-04
  421.00      7.59180E-04
  423.00      7.60320E-04
  425.00      7.54360E-04
  427.00      7.48570E-04
  429.00      7.42950E-04
  431.00      7.36860E-04
  433.00      7.15930E-04
  435.00      6.87500E-04
  437.00      7.20490E-04
  439.00      7.11510E-04
  441.00      7.09910E-04
  443.00      7.04610E-04
  445.00      6.99770E-04
  447.00      6.87080E-04
  449.00      6.89470E-04
  451.00      6.84400E-04
  453.00      6.79160E-04
  455.00      6.67580E-04
  457.00      6.69790E-04
  459.00      6.64800E-04
  461.00      6.60050E-04
  463.00      6.54760E-04
  465.00      6.47190E-04
  467.00      6.45580E-04
  469.00      6.25350E-04
  471.00      6.34360E-04
  473.00      6.32650E-04
  475.00      6.28200E-04
  477.00      6.23810E-04
  479.00      6.19470E-04
  481.00      6.15130E-04
  483.00      6.10830E-04
  485.00      5.97120E-04
  487.00      5.66520E-04
  489.00      5.97920E-04
  491.00      5.94230E-04
  493.00      5.86300E-04
  495.00      5.86110E-04
  497.00      5.82270E-04
  499.00      5.78340E-04
  501.00      5.72140E-04
  503.00      5.70550E-04
  505.00      5.66030E-04
  507.00      5.63010E-04
  509.00      5.59270E-04
  511.00      5.55570E-04
  513.00      5.51890E-04
  515.00      5.48260E-04
  517.00      5.44650E-04
  519.00      5.41090E-04
  521.00      5.37570E-04
  523.00      5.34070E-04
  525.00      5.30580E-04
  527.00      5.27090E-04
  529.00      5.23780E-04
  531.00      5.20410E-04
  533.00      5.17080E-04
  535.00      5.13780E-04
  537.00      5.10500E-04
  539.00      5.07260E-04
  541.00      4.98360E-04
  543.00      5.00860E-04
  545.00      4.97720E-04
  547.00      4.94590E-04
  549.00      4.91500E-04
  551.00      4.88390E-04
  553.00      4.85400E-04
  555.00      4.82390E-04
  557.00      4.79400E-04
  559.00      4.76140E-04
  561.00      4.73530E-04
  563.00      4.70630E-04
  565.00      4.67750E-04
  567.00      4.64900E-04
  569.00      4.58220E-04
  571.00      4.40020E-04
  573.00      4.37520E-04
  575.00      4.35040E-04
  577.00      4.32660E-04
  579.00      4.30470E-04
  581.00      4.28640E-04
  583.00      4.27300E-04
  585.00      4.26300E-04
  587.00      4.20780E-04
  589.00      4.24510E-04
  591.00      4.23940E-04
  593.00      4.23520E-04
  595.00      4.23360E-04
  597.00      4.22930E-04
  599.00      4.22220E-04
  601.00      4.20720E-04
  603.00      4.18070E-04
  605.00      4.15900E-04
  607.00      4.13230E-04
  609.00      4.11130E-04
  611.00      4.08480E-04
  613.00      4.06150E-04
  615.00      4.04130E-04
  617.00      4.01060E-04
  619.00      3.99560E-04
  621.00      3.97310E-04
  623.00      3.94100E-04
  625.00      3.92770E-04
  627.00      3.90650E-04
  629.00      3.88460E-04
  631.00      3.84980E-04
  633.00      3.84140E-04
  635.00      3.82020E-04
  637.00      3.79910E-04
  639.00      3.77800E-04
  641.00      3.74120E-04
  643.00      3.73670E-04
  645.00      3.71620E-04
  647.00      3.69590E-04
  649.00      3.67580E-04
  651.00      3.65570E-04
  653.00      3.61340E-04
  655.00      3.58270E-04
  657.00      3.37000E-04
  659.00      3.57370E-04
  661.00      3.55840E-04
  663.00      3.53940E-04
  665.00      3.52090E-04
  667.00      3.48590E-04
  669.00      3.44720E-04
  671.00      3.46410E-04
  673.00      3.44660E-04
  675.00      3.42850E-04
  677.00      3.41070E-04
  679.00      3.39280E-04
  681.00      3.37510E-04
  683.00      3.35750E-04
  685.00      3.34000E-04
  687.00      3.32270E-04
  689.00      3.28270E-04
  691.00      3.28820E-04
  693.00      3.27150E-04
  695.00      3.25470E-04
  697.00      3.23810E-04
  699.00      3.22150E-04
  701.00      3.20490E-04
  703.00      3.18850E-04
  705.00      3.17240E-04
  707.00      3.13470E-04
  709.00      3.14070E-04
  711.00      3.12480E-04
  713.00      3.10910E-04
  715.00      3.09360E-04
  717.00      3.06180E-04
  719.00      3.05590E-04
  721.00      3.04750E-04
  723.00      3.03240E-04
  725.00      3.01740E-04
  727.00      3.00250E-04
  729.00      2.97800E-04
  731.00      2.97280E-04
  733.00      2.95850E-04
  735.00      2.94400E-04
  737.00      2.92960E-04
  739.00      2.91540E-04
  741.00      2.90120E-04
  743.00      2.88720E-04
  745.00      2.87310E-04
  747.00      2.85940E-04
  749.00      2.84540E-04
  751.00      2.83180E-04
  753.00      2.81850E-04
  755.00      2.80500E-04
  757.00      2.79160E-04
  759.00      2.75620E-04
  761.00      2.76490E-04
  763.00      2.75210E-04
  765.00      2.73910E-04
  767.00      2.72620E-04
  769.00      2.71310E-04
  771.00      2.70070E-04
  773.00      2.68750E-04
  775.00      2.67550E-04
  777.00      2.66310E-04
  779.00      2.65070E-04
  781.00      2.63810E-04
  783.00      2.62620E-04
  785.00      2.61460E-04
  787.00      2.60260E-04
  789.00      2.59050E-04
  791.00      2.57880E-04
  793.00      2.56700E-04
  795.00      2.55530E-04
  797.00      2.54340E-04
  799.00      2.53210E-04
  801.00      2.52060E-04
  803.00      2.50920E-04
  805.00      2.49790E-04
  807.00      2.48660E-04
  809.00      2.47500E-04
  811.00      2.46390E-04
  813.00      2.45330E-04
  815.00      2.44130E-04
  817.00      2.43130E-04
  819.00      2.41410E-04
  821.00      2.35130E-04
  823.00      2.33170E-04
  825.00      2.33110E-04
  827.00      2.32060E-04
  829.00      2.31270E-04
  831.00      2.30310E-04
  833.00      2.29300E-04
  835.00      2.28130E-04
  837.00      2.27360E-04
  839.00      2.26510E-04
  841.00      2.25670E-04
  843.00      2.24810E-04
  845.00      2.23700E-04
  847.00      2.23150E-04
  849.00      2.22390E-04
  851.00      2.21460E-04
  853.00      2.20970E-04
  855.00      2.19450E-04
  857.00      2.20120E-04
  859.00      2.17580E-04
  861.00      2.17160E-04
  863.00      2.18530E-04
  865.00      2.16720E-04
  867.00      2.12330E-04
  869.00      2.16660E-04
  871.00      2.16750E-04
  873.00      2.14840E-04
  875.00      2.07000E-04
  877.00      2.12510E-04
  879.00      2.14380E-04
  881.00      2.13760E-04
  883.00      2.12810E-04
  885.00      2.07860E-04
  887.00      2.00780E-04
  889.00      2.09530E-04
  891.00      2.09770E-04
  893.00      2.08890E-04
  895.00      2.08320E-04
  897.00      2.07400E-04
  899.00      2.05030E-04
  901.00      1.94910E-04
  903.00      1.99260E-04
  905.00      2.03480E-04
  907.00      2.02600E-04
  909.00      2.02300E-04
  911.00      2.01470E-04
  913.00      2.00860E-04
  915.00      2.00050E-04
  917.00      1.99090E-04
  919.00      1.98200E-04
  921.00      1.94760E-04
  923.00      1.83750E-04
  925.00      1.93330E-04
  927.00      1.94960E-04
  929.00      1.94500E-04
  931.00      1.93510E-04
  933.00      1.92950E-04
  935.00      1.89910E-04
  937.00      1.91030E-04
  939.00      1.90680E-04
  941.00      1.89930E-04
  943.00      1.89190E-04
  945.00      1.88440E-04
  947.00      1.87390E-04
  949.00      1.86970E-04
  951.00      1.85260E-04
  953.00      1.82090E-04
  955.00      1.72100E-04
  957.00      1.82240E-04
  959.00      1.83140E-04
  961.00      1.82530E-04
  963.00      1.81690E-04
  965.00      1.81250E-04
  967.00      1.80560E-04
  969.00      1.79830E-04
  971.00      1.78890E-04
  973.00      1.78480E-04
  975.00      1.77770E-04
  977.00      1.76590E-04
  979.00      1.76460E-04
  981.00      1.75790E-04
  983.00      1.75120E-04
  985.00      1.74460E-04
  987.00      1.73810E-04
  989.00      1.73150E-04
  991.00      1.72500E-04
  993.00      1.71850E-04
  995.00      1.71210E-04
  997.00      1.70570E-04
  999.00      1.69930E-04
  1002.5      1.65990E-04
  1007.5      1.63170E-04
  1012.5      1.64010E-04
  1017.5      1.64210E-04
  1022.5      1.62700E-04
  1027.5      1.61240E-04
  1032.5      1.59520E-04
  1037.5      1.58350E-04
  1042.5      1.56580E-04
  1047.5      1.55530E-04
  1052.5      1.54150E-04
  1057.5      1.52790E-04
  1062.5      1.51440E-04
  1067.5      1.50040E-04
  1072.5      1.48810E-04
  1077.5      1.47510E-04
  1082.5      1.45530E-04
  1087.5      1.44950E-04
  1092.5      1.38480E-04
  1097.5      1.41510E-04
  1102.5      1.41070E-04
  1107.5      1.40090E-04
  1112.5      1.38920E-04
  1117.5      1.37780E-04
  1122.5      1.36610E-04
  1127.5      1.35490E-04
  1132.5      1.34360E-04
  1137.5      1.33250E-04
  1142.5      1.32160E-04
  1147.5      1.31080E-04
  1152.5      1.30010E-04
  1157.5      1.28950E-04
  1162.5      1.27230E-04
  1167.5      1.26480E-04
  1172.5      1.25850E-04
  1177.5      1.24850E-04
  1182.5      1.23850E-04
  1187.5      1.22870E-04
  1192.5      1.21900E-04
  1197.5      1.20510E-04
  1202.5      1.19990E-04
  1207.5      1.19050E-04
  1212.5      1.18120E-04
  1217.5      1.17200E-04
  1222.5      1.16300E-04
  1227.5      1.15400E-04
  1232.5      1.14520E-04
  1237.5      1.13640E-04
  1242.5      1.12780E-04
  1247.5      1.11920E-04
  1252.5      1.11000E-04
  1257.5      1.10240E-04
  1262.5      1.09410E-04
  1267.5      1.08600E-04
  1272.5      1.07790E-04
  1277.5      1.06270E-04
  1282.5      1.02230E-04
  1287.5      1.05270E-04
  1292.5      1.04640E-04
  1297.5      1.03650E-04
  1302.5      1.03120E-04
  1307.5      1.02370E-04
  1312.5      1.01630E-04
  1317.5      1.00900E-04
  1322.5      1.00170E-04
  1327.5      9.94580E-05
  1332.5      9.87490E-05
  1337.5      9.80470E-05
  1342.5      9.73270E-05
  1347.5      9.66660E-05
  1352.5      9.59860E-05
  1357.5      9.53140E-05
  1362.5      9.46480E-05
  1367.5      9.39900E-05
  1372.5      9.33370E-05
  1377.5      9.26930E-05
  1382.5      9.20550E-05
  1387.5      9.14230E-05
  1392.5      9.07970E-05
  1397.5      9.01790E-05
