 Castelli and Kurucz 2004-2012 Atmosphere
 T     32000.     G    5.00000 [-1.5a] N(He)/Ntot=0.0784 VTURB=2.0  L/H=1.25 OD
 Wavelength  Eddington Hnu
   (nm)    (ergs/s/cm2/Hz/sr)
  9.0900      1.23590E-33
  9.3500      8.18830E-33
  9.6100      4.92720E-32
  9.7700      1.42240E-31
  9.9600      4.80760E-31
  10.200      2.10860E-30
  10.380      6.13750E-30
  10.560      1.72750E-29
  10.770      5.54990E-29
  11.040      2.34320E-28
  11.400      1.44970E-27
  11.780      8.89510E-27
  12.130      4.30690E-26
  12.480      1.91670E-25
  12.710      4.90080E-25
  12.840      8.21390E-25
  13.050      1.85260E-24
  13.240      3.78660E-24
  13.390      6.56690E-24
  13.660      1.71960E-23
  13.980      5.13810E-23
  14.330      1.61110E-22
  14.720      5.40850E-22
  15.100      1.65950E-21
  15.520      5.38150E-21
  15.880      1.40560E-20
  16.200      3.18790E-20
  16.600      8.49320E-20
  17.030      2.31470E-19
  17.340      4.62750E-19
  17.680      9.62230E-19
  18.020      1.94720E-18
  18.170      2.63550E-18
  18.610      6.23590E-18
  19.100      1.55490E-17
  19.390      2.61350E-17
  19.840      5.68170E-17
  20.180      9.99030E-17
  20.500      1.67110E-16
  21.050      3.90710E-16
  21.620      9.01340E-16
  21.980      1.49600E-15
  22.300      2.31630E-15
  22.680      3.83260E-15
  23.000      9.71030E-13
  23.400      3.79540E-12
  24.000      7.29790E-12
  24.650      1.35730E-11
  25.240      2.30670E-11
  25.680      2.77980E-11
  26.000      4.39340E-11
  26.400      5.75020E-11
  26.850      8.37150E-11
  27.350      1.21290E-10
  27.850      1.68790E-10
  28.400      2.69530E-10
  29.000      3.96350E-10
  29.600      5.66570E-10
  30.100      7.17710E-10
  30.800      1.03290E-09
  31.800      2.13490E-09
  32.800      3.46850E-09
  33.800      5.81950E-09
  34.800      9.19670E-09
  35.700      1.43680E-08
  36.600      2.16590E-08
  37.500      2.96620E-08
  38.500      4.37230E-08
  39.500      6.21500E-08
  40.500      8.53450E-08
  41.400      1.14310E-07
  42.200      1.41720E-07
  43.000      1.77650E-07
  44.100      2.39090E-07
  45.100      3.11590E-07
  46.000      3.83200E-07
  47.000      4.88710E-07
  48.000      6.09740E-07
  49.000      7.51740E-07
  50.000      9.36000E-07
  50.600      3.97910E-06
  51.200      1.80490E-05
  52.000      1.84440E-05
  53.000      2.02170E-05
  54.000      1.90880E-05
  55.000      2.27270E-05
  56.000      2.49700E-05
  57.000      2.68780E-05
  58.000      2.61270E-05
  59.000      2.95920E-05
  60.000      3.04960E-05
  61.000      3.27310E-05
  62.000      3.54060E-05
  63.000      3.74790E-05
  64.000      3.82070E-05
  65.000      4.11830E-05
  65.800      4.23900E-05
  66.500      4.41980E-05
  67.500      4.59270E-05
  68.500      4.64960E-05
  69.500      5.20910E-05
  70.500      5.24170E-05
  71.600      5.76330E-05
  72.600      5.96620E-05
  73.500      6.28260E-05
  74.500      6.59320E-05
  75.500      6.86440E-05
  76.500      7.17790E-05
  77.500      7.52930E-05
  78.500      7.94810E-05
  79.500      8.21180E-05
  80.500      8.52640E-05
  81.500      8.84310E-05
  82.500      9.29530E-05
  83.500      9.12680E-05
  84.500      9.95110E-05
  85.500      1.02950E-04
  86.500      1.07370E-04
  87.500      1.11410E-04
  88.500      1.15690E-04
  89.500      1.19860E-04
  90.500      1.22610E-04
  91.500      1.31190E-04
  92.500      4.34740E-04
  93.500      8.32840E-04
  94.500      1.65160E-03
  95.500      2.02940E-03
  96.500      2.69340E-03
  97.500      1.35490E-03
  98.500      2.86060E-03
  99.500      2.66000E-03
  100.50      2.85980E-03
  101.50      2.75620E-03
  102.50      1.39070E-03
  103.50      2.65770E-03
  104.50      2.98470E-03
  105.50      2.96610E-03
  106.50      2.77210E-03
  107.50      2.84460E-03
  108.50      2.62520E-03
  109.50      2.87090E-03
  110.50      2.79660E-03
  111.50      2.77700E-03
  112.50      2.58740E-03
  113.50      2.75930E-03
  114.50      2.65010E-03
  115.50      2.67460E-03
  116.50      2.67100E-03
  117.50      2.30480E-03
  118.50      2.57910E-03
  119.50      2.52520E-03
  120.50      2.33650E-03
  121.50      1.27610E-03
  122.50      2.35140E-03
  123.50      2.51480E-03
  124.50      2.48190E-03
  125.50      2.50230E-03
  126.50      2.49430E-03
  127.50      2.48640E-03
  128.50      2.47060E-03
  129.50      2.33380E-03
  130.50      2.37220E-03
  131.50      2.41130E-03
  132.50      2.36330E-03
  133.50      2.32680E-03
  134.50      2.32940E-03
  135.50      2.33450E-03
  136.50      2.28430E-03
  137.50      2.28060E-03
  138.50      2.26360E-03
  139.50      2.08310E-03
  140.50      2.10420E-03
  141.50      2.19380E-03
  142.50      2.15180E-03
  143.50      2.16490E-03
  144.20      2.16990E-03
  144.70      2.15690E-03
  145.50      2.13470E-03
  146.50      2.11800E-03
  147.50      2.09860E-03
  148.50      2.09130E-03
  149.50      2.06810E-03
  150.50      2.02670E-03
  151.20      2.03170E-03
  151.70      2.02340E-03
  152.50      2.00330E-03
  153.50      1.92650E-03
  154.50      1.88170E-03
  155.50      1.86540E-03
  156.50      1.89180E-03
  157.50      1.90410E-03
  158.50      1.90240E-03
  159.50      1.89450E-03
  160.50      1.84120E-03
  161.50      1.81530E-03
  162.50      1.81640E-03
  163.50      1.80430E-03
  164.50      1.74350E-03
  165.50      1.81230E-03
  166.50      1.79660E-03
  167.20      1.77460E-03
  167.70      1.81160E-03
  168.50      1.79280E-03
  169.50      1.77470E-03
  170.50      1.75400E-03
  171.50      1.72700E-03
  172.50      1.70750E-03
  173.50      1.72860E-03
  174.50      1.71340E-03
  175.50      1.69950E-03
  176.50      1.68160E-03
  177.50      1.67260E-03
  178.50      1.66540E-03
  179.50      1.65960E-03
  180.50      1.65410E-03
  181.50      1.63600E-03
  182.50      1.62530E-03
  183.50      1.61790E-03
  184.50      1.58140E-03
  185.50      1.56310E-03
  186.50      1.56360E-03
  187.50      1.56420E-03
  188.50      1.53150E-03
  189.50      1.50690E-03
  190.50      1.52580E-03
  191.50      1.49580E-03
  192.50      1.47400E-03
  193.50      1.48740E-03
  194.50      1.49220E-03
  195.50      1.45000E-03
  196.70      1.46660E-03
  197.60      1.47210E-03
  198.40      1.44730E-03
  199.50      1.42170E-03
  200.50      1.43770E-03
  201.50      1.43460E-03
  202.50      1.42910E-03
  203.50      1.41140E-03
  204.50      1.40220E-03
  205.50      1.27420E-03
  206.50      1.25180E-03
  207.40      1.26550E-03
  207.80      1.25180E-03
  208.50      1.27030E-03
  209.50      1.29390E-03
  210.50      1.34150E-03
  211.50      1.34920E-03
  212.50      1.34150E-03
  213.50      1.33390E-03
  214.50      1.32400E-03
  215.50      1.32050E-03
  216.50      1.30480E-03
  217.50      1.30660E-03
  218.50      1.28980E-03
  219.50      1.29200E-03
  220.50      1.28450E-03
  221.50      1.26480E-03
  222.50      1.26820E-03
  223.50      1.26010E-03
  224.50      1.25300E-03
  225.50      1.23310E-03
  226.50      1.23800E-03
  227.50      1.23070E-03
  228.50      1.22100E-03
  229.50      1.19370E-03
  230.50      1.19570E-03
  231.50      1.19990E-03
  232.50      1.19340E-03
  233.50      1.18580E-03
  234.50      1.17980E-03
  235.50      1.17280E-03
  236.50      1.16590E-03
  237.50      1.15840E-03
  238.50      1.13980E-03
  239.50      1.14310E-03
  240.50      1.13850E-03
  241.50      1.13140E-03
  242.50      1.12530E-03
  243.50      1.11740E-03
  244.50      1.11190E-03
  245.50      1.10550E-03
  246.50      1.09970E-03
  247.50      1.09320E-03
  248.50      1.08700E-03
  249.50      1.02930E-03
  250.50      1.07270E-03
  251.30      1.04530E-03
  251.80      1.05980E-03
  252.50      1.06280E-03
  253.50      1.05710E-03
  254.50      1.04660E-03
  255.50      1.04320E-03
  256.50      1.03890E-03
  257.50      1.03360E-03
  258.50      1.02810E-03
  259.50      1.02240E-03
  260.50      1.02120E-03
  261.50      1.01540E-03
  262.50      1.01000E-03
  263.50      1.00420E-03
  264.50      9.98290E-04
  265.50      9.92160E-04
  266.50      9.84650E-04
  267.50      9.78000E-04
  268.50      9.77570E-04
  269.50      9.65670E-04
  270.50      9.66450E-04
  271.50      9.61530E-04
  272.50      9.49470E-04
  273.50      9.44390E-04
  274.50      9.46350E-04
  275.50      9.41550E-04
  276.50      9.29080E-04
  277.50      9.32120E-04
  278.50      9.26880E-04
  279.50      9.14730E-04
  280.50      9.15400E-04
  281.50      9.12900E-04
  282.50      8.99440E-04
  283.50      8.96720E-04
  284.50      8.98970E-04
  285.50      8.93880E-04
  286.50      8.89300E-04
  287.50      8.84870E-04
  288.50      8.80660E-04
  289.50      8.76140E-04
  291.00      8.69060E-04
  293.00      8.60750E-04
  295.00      8.45480E-04
  297.00      8.43710E-04
  299.00      8.35210E-04
  301.00      8.26450E-04
  303.00      8.18620E-04
  305.00      8.11140E-04
  307.00      8.03800E-04
  309.00      7.93520E-04
  311.00      7.88260E-04
  313.00      7.80730E-04
  315.00      7.73310E-04
  317.00      7.66230E-04
  319.00      7.52670E-04
  321.00      7.50090E-04
  323.00      7.44750E-04
  325.00      7.38080E-04
  327.00      7.31720E-04
  329.00      7.24330E-04
  331.00      7.18800E-04
  333.00      7.12040E-04
  335.00      7.04620E-04
  337.00      6.99430E-04
  339.00      6.93550E-04
  341.00      6.87450E-04
  343.00      6.78940E-04
  345.00      6.70730E-04
  347.00      6.66540E-04
  349.00      6.60780E-04
  351.00      6.55750E-04
  353.00      6.50680E-04
  355.00      6.45340E-04
  357.00      6.43780E-04
  359.00      6.33090E-04
  361.00      6.30830E-04
  363.00      6.22680E-04
  364.00      6.24950E-04
  365.00      6.14890E-04
  367.00      6.12310E-04
  369.00      6.07810E-04
  371.00      5.95010E-04
  373.00      5.85030E-04
  375.00      5.80420E-04
  377.00      5.67370E-04
  379.00      5.85710E-04
  381.00      6.09400E-04
  383.00      5.45810E-04
  385.00      6.31610E-04
  387.00      6.46470E-04
  389.00      5.26530E-04
  391.00      6.45960E-04
  393.00      6.48440E-04
  395.00      6.36700E-04
  397.00      5.07610E-04
  399.00      6.22070E-04
  401.00      6.28720E-04
  403.00      5.97040E-04
  405.00      6.26280E-04
  407.00      6.14310E-04
  409.00      5.65090E-04
  411.00      5.04730E-04
  413.00      5.93810E-04
  415.00      5.95410E-04
  417.00      5.97180E-04
  419.00      5.92380E-04
  421.00      5.88180E-04
  423.00      5.84100E-04
  425.00      5.78360E-04
  427.00      5.72270E-04
  429.00      5.67350E-04
  431.00      5.58300E-04
  433.00      5.06240E-04
  435.00      4.69220E-04
  437.00      5.43790E-04
  439.00      5.30500E-04
  441.00      5.41250E-04
  443.00      5.37600E-04
  445.00      5.34660E-04
  447.00      5.05220E-04
  449.00      5.25880E-04
  451.00      5.23210E-04
  453.00      5.19300E-04
  455.00      5.13990E-04
  457.00      5.10940E-04
  459.00      5.06740E-04
  461.00      5.03260E-04
  463.00      4.99590E-04
  465.00      4.92110E-04
  467.00      4.91750E-04
  469.00      4.85350E-04
  471.00      4.78070E-04
  473.00      4.81900E-04
  475.00      4.78220E-04
  477.00      4.75100E-04
  479.00      4.71570E-04
  481.00      4.66590E-04
  483.00      4.59520E-04
  485.00      4.24160E-04
  487.00      3.85640E-04
  489.00      4.47760E-04
  491.00      4.48990E-04
  493.00      4.35690E-04
  495.00      4.44730E-04
  497.00      4.42320E-04
  499.00      4.39210E-04
  501.00      4.30600E-04
  503.00      4.33040E-04
  505.00      4.27820E-04
  507.00      4.27190E-04
  509.00      4.24210E-04
  511.00      4.21320E-04
  513.00      4.18450E-04
  515.00      4.15570E-04
  517.00      4.12720E-04
  519.00      4.10010E-04
  521.00      4.07260E-04
  523.00      4.04560E-04
  525.00      4.01850E-04
  527.00      3.99170E-04
  529.00      3.96540E-04
  531.00      3.93920E-04
  533.00      3.91330E-04
  535.00      3.88750E-04
  537.00      3.86220E-04
  539.00      3.83670E-04
  541.00      3.80510E-04
  543.00      3.78740E-04
  545.00      3.76280E-04
  547.00      3.73860E-04
  549.00      3.71480E-04
  551.00      3.69110E-04
  553.00      3.66750E-04
  555.00      3.64430E-04
  557.00      3.62110E-04
  559.00      3.59810E-04
  561.00      3.57560E-04
  563.00      3.55320E-04
  565.00      3.53090E-04
  567.00      3.50840E-04
  569.00      3.48380E-04
  571.00      3.46400E-04
  573.00      3.44350E-04
  575.00      3.42030E-04
  577.00      3.40170E-04
  579.00      3.38090E-04
  581.00      3.36030E-04
  583.00      3.33930E-04
  585.00      3.31850E-04
  587.00      3.19140E-04
  589.00      3.26690E-04
  591.00      3.25940E-04
  593.00      3.24000E-04
  595.00      3.22060E-04
  597.00      3.20220E-04
  599.00      3.18290E-04
  601.00      3.16420E-04
  603.00      3.14550E-04
  605.00      3.12720E-04
  607.00      3.10890E-04
  609.00      3.09070E-04
  611.00      3.07270E-04
  613.00      3.05490E-04
  615.00      3.03690E-04
  617.00      3.01960E-04
  619.00      3.00230E-04
  621.00      2.98510E-04
  623.00      2.96800E-04
  625.00      2.95100E-04
  627.00      2.93420E-04
  629.00      2.91760E-04
  631.00      2.90100E-04
  633.00      2.88470E-04
  635.00      2.86830E-04
  637.00      2.85240E-04
  639.00      2.83640E-04
  641.00      2.82050E-04
  643.00      2.80490E-04
  645.00      2.78930E-04
  647.00      2.77350E-04
  649.00      2.75800E-04
  651.00      2.73840E-04
  653.00      2.70930E-04
  655.00      2.58920E-04
  657.00      2.33060E-04
  659.00      2.64550E-04
  661.00      2.65990E-04
  663.00      2.65430E-04
  665.00      2.64120E-04
  667.00      2.59770E-04
  669.00      2.58420E-04
  671.00      2.59910E-04
  673.00      2.58480E-04
  675.00      2.57170E-04
  677.00      2.55800E-04
  679.00      2.54390E-04
  681.00      2.53100E-04
  683.00      2.51750E-04
  685.00      2.50440E-04
  687.00      2.49130E-04
  689.00      2.47790E-04
  691.00      2.46470E-04
  693.00      2.45250E-04
  695.00      2.43980E-04
  697.00      2.42720E-04
  699.00      2.41460E-04
  701.00      2.40220E-04
  703.00      2.38980E-04
  705.00      2.37760E-04
  707.00      2.32970E-04
  709.00      2.35340E-04
  711.00      2.34140E-04
  713.00      2.32960E-04
  715.00      2.31780E-04
  717.00      2.30590E-04
  719.00      2.29450E-04
  721.00      2.28300E-04
  723.00      2.26930E-04
  725.00      2.25990E-04
  727.00      2.24900E-04
  729.00      2.22030E-04
  731.00      2.22660E-04
  733.00      2.21570E-04
  735.00      2.20480E-04
  737.00      2.19400E-04
  739.00      2.18320E-04
  741.00      2.17250E-04
  743.00      2.16190E-04
  745.00      2.15160E-04
  747.00      2.14050E-04
  749.00      2.13080E-04
  751.00      2.11990E-04
  753.00      2.11020E-04
  755.00      2.10010E-04
  757.00      2.09000E-04
  759.00      2.08000E-04
  761.00      2.06980E-04
  763.00      2.06020E-04
  765.00      2.05040E-04
  767.00      2.04070E-04
  769.00      2.03100E-04
  771.00      2.02140E-04
  773.00      2.01190E-04
  775.00      2.00250E-04
  777.00      1.99300E-04
  779.00      1.98380E-04
  781.00      1.97370E-04
  783.00      1.96530E-04
  785.00      1.95770E-04
  787.00      1.94820E-04
  789.00      1.93870E-04
  791.00      1.93070E-04
  793.00      1.92180E-04
  795.00      1.91290E-04
  797.00      1.90290E-04
  799.00      1.89530E-04
  801.00      1.88680E-04
  803.00      1.87720E-04
  805.00      1.86860E-04
  807.00      1.86010E-04
  809.00      1.84880E-04
  811.00      1.84110E-04
  813.00      1.83460E-04
  815.00      1.82500E-04
  817.00      1.81850E-04
  819.00      1.80760E-04
  821.00      1.79590E-04
  823.00      1.79060E-04
  825.00      1.78360E-04
  827.00      1.76950E-04
  829.00      1.76760E-04
  831.00      1.76060E-04
  833.00      1.75190E-04
  835.00      1.73820E-04
  837.00      1.73500E-04
  839.00      1.72950E-04
  841.00      1.72200E-04
  843.00      1.71390E-04
  845.00      1.69720E-04
  847.00      1.69930E-04
  849.00      1.68900E-04
  851.00      1.68410E-04
  853.00      1.67300E-04
  855.00      1.66570E-04
  857.00      1.66460E-04
  859.00      1.63310E-04
  861.00      1.64010E-04
  863.00      1.64870E-04
  865.00      1.62150E-04
  867.00      1.59270E-04
  869.00      1.62660E-04
  871.00      1.63190E-04
  873.00      1.59650E-04
  875.00      1.52930E-04
  877.00      1.56880E-04
  879.00      1.60850E-04
  881.00      1.61010E-04
  883.00      1.59270E-04
  885.00      1.51370E-04
  887.00      1.45510E-04
  889.00      1.55450E-04
  891.00      1.57890E-04
  893.00      1.57920E-04
  895.00      1.57600E-04
  897.00      1.56260E-04
  899.00      1.51710E-04
  901.00      1.39310E-04
  903.00      1.43830E-04
  905.00      1.51940E-04
  907.00      1.51990E-04
  909.00      1.53080E-04
  911.00      1.53090E-04
  913.00      1.52560E-04
  915.00      1.51810E-04
  917.00      1.50490E-04
  919.00      1.48860E-04
  921.00      1.42030E-04
  923.00      1.29170E-04
  925.00      1.40690E-04
  927.00      1.46170E-04
  929.00      1.47100E-04
  931.00      1.46430E-04
  933.00      1.46660E-04
  935.00      1.46050E-04
  937.00      1.45720E-04
  939.00      1.45150E-04
  941.00      1.44560E-04
  943.00      1.43980E-04
  945.00      1.43200E-04
  947.00      1.41540E-04
  949.00      1.41320E-04
  951.00      1.38260E-04
  953.00      1.31590E-04
  955.00      1.20060E-04
  957.00      1.33270E-04
  959.00      1.37470E-04
  961.00      1.37870E-04
  963.00      1.37340E-04
  965.00      1.37810E-04
  967.00      1.37360E-04
  969.00      1.36720E-04
  971.00      1.35900E-04
  973.00      1.35770E-04
  975.00      1.35250E-04
  977.00      1.34730E-04
  979.00      1.34220E-04
  981.00      1.33690E-04
  983.00      1.33190E-04
  985.00      1.32680E-04
  987.00      1.32180E-04
  989.00      1.31660E-04
  991.00      1.31090E-04
  993.00      1.30680E-04
  995.00      1.30080E-04
  997.00      1.29290E-04
  999.00      1.28430E-04
  1002.5      1.21480E-04
  1007.5      1.18800E-04
  1012.5      1.25010E-04
  1017.5      1.24810E-04
  1022.5      1.23620E-04
  1027.5      1.22540E-04
  1032.5      1.20890E-04
  1037.5      1.20320E-04
  1042.5      1.19230E-04
  1047.5      1.18160E-04
  1052.5      1.17100E-04
  1057.5      1.16060E-04
  1062.5      1.15030E-04
  1067.5      1.13810E-04
  1072.5      1.13010E-04
  1077.5      1.12020E-04
  1082.5      1.09900E-04
  1087.5      1.09290E-04
  1092.5      9.94620E-05
  1097.5      1.04550E-04
  1102.5      1.06360E-04
  1107.5      1.06180E-04
  1112.5      1.05440E-04
  1117.5      1.04550E-04
  1122.5      1.03620E-04
  1127.5      1.02800E-04
  1132.5      1.01930E-04
  1137.5      1.01090E-04
  1142.5      1.00250E-04
  1147.5      9.94270E-05
  1152.5      9.86110E-05
  1157.5      9.78020E-05
  1162.5      9.69940E-05
  1167.5      9.62080E-05
  1172.5      9.54410E-05
  1177.5      9.46720E-05
  1182.5      9.39120E-05
  1187.5      9.31620E-05
  1192.5      9.24200E-05
  1197.5      9.05460E-05
  1202.5      9.09640E-05
  1207.5      9.02490E-05
  1212.5      8.95420E-05
  1217.5      8.88430E-05
  1222.5      8.81520E-05
  1227.5      8.74700E-05
  1232.5      8.67950E-05
  1237.5      8.61280E-05
  1242.5      8.54690E-05
  1247.5      8.48130E-05
  1252.5      8.39900E-05
  1257.5      8.35310E-05
  1262.5      8.29030E-05
  1267.5      8.22800E-05
  1272.5      8.14370E-05
  1277.5      7.91060E-05
  1282.5      7.32510E-05
  1287.5      7.88570E-05
  1292.5      7.90950E-05
  1297.5      7.80390E-05
  1302.5      7.81050E-05
  1307.5      7.75410E-05
  1312.5      7.69780E-05
  1317.5      7.64200E-05
  1322.5      7.58680E-05
  1327.5      7.53230E-05
  1332.5      7.47830E-05
  1337.5      7.42470E-05
  1342.5      7.36620E-05
  1347.5      7.31970E-05
  1352.5      7.26790E-05
  1357.5      7.21680E-05
  1362.5      7.16560E-05
  1367.5      7.11610E-05
  1372.5      7.06610E-05
  1377.5      7.01750E-05
  1382.5      6.96890E-05
  1387.5      6.92090E-05
  1392.5      6.87320E-05
  1397.5      6.82620E-05
