 Castelli and Kurucz 2004-2012 Atmosphere
 T     45000.     G    5.00000 [-1.5a] N(He)/Ntot=0.0784 VTURB=2.0  L/H=1.25 OD
 Wavelength  Eddington Hnu
   (nm)    (ergs/s/cm2/Hz/sr)
  9.0900      1.19480E-20
  9.3500      3.50160E-20
  9.6100      9.67860E-20
  9.7700      1.77160E-19
  9.9600      3.53500E-19
  10.200      8.17060E-19
  10.380      1.49700E-18
  10.560      2.69020E-18
  10.770      5.20810E-18
  11.040      1.17720E-17
  11.400      3.30230E-17
  11.780      9.22070E-17
  12.130      2.25360E-16
  12.480      5.25710E-16
  12.710      8.96600E-16
  12.840      1.20320E-15
  13.050      1.91210E-15
  13.240      2.87490E-15
  13.390      3.93930E-15
  13.660      6.83460E-15
  13.980      1.28400E-14
  14.330      2.48250E-14
  14.720      4.98240E-14
  15.100      9.63310E-14
  15.520      1.91900E-13
  15.880      3.37960E-13
  16.200      5.49930E-13
  16.600      9.86540E-13
  17.030      1.79400E-12
  17.340      2.71800E-12
  17.680      4.23910E-12
  18.020      6.50060E-12
  18.170      7.76990E-12
  18.610      1.32150E-11
  19.100      2.31130E-11
  19.390      3.18530E-11
  19.840      5.14050E-11
  20.180      7.28920E-11
  20.500      1.00330E-10
  21.050      1.70120E-10
  21.620      2.86270E-10
  21.980      3.93180E-10
  22.300      5.16450E-10
  22.680      7.05440E-10
  23.000      7.60030E-08
  23.400      3.54780E-07
  24.000      1.82970E-06
  24.650      1.94920E-05
  25.240      6.17100E-05
  25.680      5.26420E-05
  26.000      1.18290E-04
  26.400      2.06160E-04
  26.850      2.61720E-04
  27.350      3.19640E-04
  27.850      3.05700E-04
  28.400      4.20950E-04
  29.000      4.86630E-04
  29.600      4.10840E-04
  30.100      1.40640E-04
  30.800      2.57070E-04
  31.800      2.89800E-04
  32.800      3.49540E-04
  33.800      3.02860E-04
  34.800      3.18800E-04
  35.700      5.00700E-04
  36.600      6.51620E-04
  37.500      7.28990E-04
  38.500      7.10500E-04
  39.500      8.59980E-04
  40.500      9.79150E-04
  41.400      1.01330E-03
  42.200      1.00050E-03
  43.000      9.96090E-04
  44.100      1.09820E-03
  45.100      1.14860E-03
  46.000      1.11630E-03
  47.000      1.15080E-03
  48.000      1.21400E-03
  49.000      1.15930E-03
  50.000      1.28510E-03
  50.600      1.26160E-03
  51.200      1.61490E-03
  52.000      1.59980E-03
  53.000      1.61380E-03
  54.000      1.52850E-03
  55.000      1.47860E-03
  56.000      1.71330E-03
  57.000      1.79030E-03
  58.000      1.78350E-03
  59.000      1.84310E-03
  60.000      1.79760E-03
  61.000      1.74930E-03
  62.000      1.91170E-03
  63.000      1.90210E-03
  64.000      1.98350E-03
  65.000      1.95950E-03
  65.800      1.89860E-03
  66.500      2.01210E-03
  67.500      2.06810E-03
  68.500      2.00450E-03
  69.500      2.10780E-03
  70.500      2.01540E-03
  71.600      2.15570E-03
  72.600      2.19350E-03
  73.500      2.21410E-03
  74.500      2.20320E-03
  75.500      2.20230E-03
  76.500      2.18720E-03
  77.500      2.24650E-03
  78.500      2.22150E-03
  79.500      2.26820E-03
  80.500      2.29130E-03
  81.500      2.31850E-03
  82.500      2.34530E-03
  83.500      2.25010E-03
  84.500      2.36220E-03
  85.500      2.34680E-03
  86.500      2.39700E-03
  87.500      2.41890E-03
  88.500      2.41880E-03
  89.500      2.42850E-03
  90.500      2.41380E-03
  91.500      1.89650E-03
  92.500      3.05280E-03
  93.500      3.93850E-03
  94.500      4.94480E-03
  95.500      5.49680E-03
  96.500      6.36100E-03
  97.500      4.95670E-03
  98.500      6.27700E-03
  99.500      5.83400E-03
  100.50      6.22140E-03
  101.50      6.20720E-03
  102.50      4.93610E-03
  103.50      6.15690E-03
  104.50      6.23280E-03
  105.50      6.20130E-03
  106.50      6.00630E-03
  107.50      6.03900E-03
  108.50      5.67220E-03
  109.50      6.00060E-03
  110.50      5.90740E-03
  111.50      5.85050E-03
  112.50      5.71480E-03
  113.50      5.79760E-03
  114.50      5.75660E-03
  115.50      5.64990E-03
  116.50      5.58080E-03
  117.50      5.26680E-03
  118.50      5.49780E-03
  119.50      5.43580E-03
  120.50      5.38190E-03
  121.50      4.33190E-03
  122.50      5.29140E-03
  123.50      5.24270E-03
  124.50      5.19560E-03
  125.50      5.23590E-03
  126.50      5.19660E-03
  127.50      5.16130E-03
  128.50      5.12330E-03
  129.50      5.07350E-03
  130.50      5.02300E-03
  131.50      4.99230E-03
  132.50      4.93820E-03
  133.50      4.91220E-03
  134.50      4.87590E-03
  135.50      4.81440E-03
  136.50      4.74540E-03
  137.50      4.66660E-03
  138.50      4.67520E-03
  139.50      4.58960E-03
  140.50      4.50450E-03
  141.50      4.58390E-03
  142.50      4.52000E-03
  143.50      4.51610E-03
  144.20      4.45680E-03
  144.70      4.44640E-03
  145.50      4.40760E-03
  146.50      4.38120E-03
  147.50      4.35980E-03
  148.50      4.35460E-03
  149.50      4.31100E-03
  150.50      4.28870E-03
  151.20      4.27350E-03
  151.70      4.24040E-03
  152.50      4.21880E-03
  153.50      4.14540E-03
  154.50      3.97170E-03
  155.50      3.96960E-03
  156.50      4.03730E-03
  157.50      4.03190E-03
  158.50      3.99490E-03
  159.50      3.97050E-03
  160.50      3.90990E-03
  161.50      3.87790E-03
  162.50      3.83190E-03
  163.50      3.74830E-03
  164.50      3.59040E-03
  165.50      3.79490E-03
  166.50      3.77030E-03
  167.20      3.72120E-03
  167.70      3.75160E-03
  168.50      3.72830E-03
  169.50      3.70380E-03
  170.50      3.66970E-03
  171.50      3.59530E-03
  172.50      3.58710E-03
  173.50      3.60110E-03
  174.50      3.56950E-03
  175.50      3.53870E-03
  176.50      3.51830E-03
  177.50      3.49650E-03
  178.50      3.47490E-03
  179.50      3.44490E-03
  180.50      3.42210E-03
  181.50      3.39820E-03
  182.50      3.37270E-03
  183.50      3.35110E-03
  184.50      3.32660E-03
  185.50      3.30120E-03
  186.50      3.27780E-03
  187.50      3.25300E-03
  188.50      3.22960E-03
  189.50      3.21260E-03
  190.50      3.19040E-03
  191.50      3.16690E-03
  192.50      3.13000E-03
  193.50      3.12450E-03
  194.50      3.10320E-03
  195.50      3.07950E-03
  196.70      3.05570E-03
  197.60      3.03580E-03
  198.40      3.02040E-03
  199.50      2.99720E-03
  200.50      2.97760E-03
  201.50      2.95730E-03
  202.50      2.93720E-03
  203.50      2.91720E-03
  204.50      2.89520E-03
  205.50      2.21720E-03
  206.50      2.13860E-03
  207.40      2.17290E-03
  207.80      2.21660E-03
  208.50      2.33580E-03
  209.50      2.59780E-03
  210.50      2.76230E-03
  211.50      2.77320E-03
  212.50      2.75350E-03
  213.50      2.73210E-03
  214.50      2.71930E-03
  215.50      2.74390E-03
  216.50      2.64810E-03
  217.50      2.73280E-03
  218.50      2.61740E-03
  219.50      2.69860E-03
  220.50      2.68780E-03
  221.50      2.56030E-03
  222.50      2.65310E-03
  223.50      2.64000E-03
  224.50      2.61740E-03
  225.50      2.49860E-03
  226.50      2.58770E-03
  227.50      2.57310E-03
  228.50      2.55270E-03
  229.50      2.52160E-03
  230.50      2.42390E-03
  231.50      2.50090E-03
  232.50      2.49180E-03
  233.50      2.47650E-03
  234.50      2.46060E-03
  235.50      2.44520E-03
  236.50      2.42970E-03
  237.50      2.41270E-03
  238.50      2.30330E-03
  239.50      2.37470E-03
  240.50      2.36810E-03
  241.50      2.35220E-03
  242.50      2.34100E-03
  243.50      2.32570E-03
  244.50      2.31200E-03
  245.50      2.29420E-03
  246.50      2.28390E-03
  247.50      2.27060E-03
  248.50      2.25630E-03
  249.50      2.18210E-03
  250.50      2.21570E-03
  251.30      2.05290E-03
  251.80      2.19180E-03
  252.50      2.19850E-03
  253.50      2.18970E-03
  254.50      2.17680E-03
  255.50      2.16350E-03
  256.50      2.15110E-03
  257.50      2.13850E-03
  258.50      2.12600E-03
  259.50      2.10810E-03
  260.50      2.10150E-03
  261.50      2.08720E-03
  262.50      2.07730E-03
  263.50      2.06540E-03
  264.50      2.05300E-03
  265.50      2.04170E-03
  266.50      2.02940E-03
  267.50      2.01470E-03
  268.50      2.00580E-03
  269.50      1.99390E-03
  270.50      1.98410E-03
  271.50      1.97270E-03
  272.50      1.95900E-03
  273.50      1.88380E-03
  274.50      1.93960E-03
  275.50      1.92860E-03
  276.50      1.91670E-03
  277.50      1.90700E-03
  278.50      1.89570E-03
  279.50      1.88400E-03
  280.50      1.87530E-03
  281.50      1.86510E-03
  282.50      1.85320E-03
  283.50      1.84410E-03
  284.50      1.83500E-03
  285.50      1.82500E-03
  286.50      1.81500E-03
  287.50      1.80510E-03
  288.50      1.79540E-03
  289.50      1.78550E-03
  291.00      1.77100E-03
  293.00      1.75230E-03
  295.00      1.73250E-03
  297.00      1.71460E-03
  299.00      1.69480E-03
  301.00      1.67820E-03
  303.00      1.65850E-03
  305.00      1.64200E-03
  307.00      1.62590E-03
  309.00      1.61040E-03
  311.00      1.59380E-03
  313.00      1.57710E-03
  315.00      1.56220E-03
  317.00      1.54610E-03
  319.00      1.52840E-03
  321.00      1.48960E-03
  323.00      1.50110E-03
  325.00      1.48630E-03
  327.00      1.46790E-03
  329.00      1.45680E-03
  331.00      1.44270E-03
  333.00      1.42880E-03
  335.00      1.41360E-03
  337.00      1.40160E-03
  339.00      1.38810E-03
  341.00      1.37470E-03
  343.00      1.36260E-03
  345.00      1.34830E-03
  347.00      1.33720E-03
  349.00      1.32480E-03
  351.00      1.31250E-03
  353.00      1.29990E-03
  355.00      1.28770E-03
  357.00      1.27670E-03
  359.00      1.26400E-03
  361.00      1.25310E-03
  363.00      1.24070E-03
  364.00      1.21220E-03
  365.00      1.11000E-03
  367.00      1.10160E-03
  369.00      1.09450E-03
  371.00      1.09170E-03
  373.00      1.09690E-03
  375.00      1.10820E-03
  377.00      1.11810E-03
  379.00      1.13680E-03
  381.00      1.15580E-03
  383.00      1.10600E-03
  385.00      1.15310E-03
  387.00      1.16030E-03
  389.00      1.06430E-03
  391.00      1.14540E-03
  393.00      1.13300E-03
  395.00      1.12840E-03
  397.00      1.02510E-03
  399.00      1.10770E-03
  401.00      1.10520E-03
  403.00      1.07460E-03
  405.00      1.09090E-03
  407.00      1.07940E-03
  409.00      1.03980E-03
  411.00      9.84310E-04
  413.00      1.05050E-03
  415.00      1.04500E-03
  417.00      1.03780E-03
  419.00      1.02260E-03
  421.00      1.00410E-03
  423.00      1.01260E-03
  425.00      1.00440E-03
  427.00      9.96230E-04
  429.00      9.88180E-04
  431.00      9.77730E-04
  433.00      9.36460E-04
  435.00      9.02140E-04
  437.00      9.53730E-04
  439.00      9.46160E-04
  441.00      9.41720E-04
  443.00      9.34310E-04
  445.00      9.27150E-04
  447.00      9.11970E-04
  449.00      9.12730E-04
  451.00      9.05620E-04
  453.00      8.96420E-04
  455.00      8.73780E-04
  457.00      8.85030E-04
  459.00      8.78290E-04
  461.00      8.71580E-04
  463.00      8.64390E-04
  465.00      8.56320E-04
  467.00      8.50700E-04
  469.00      8.15850E-04
  471.00      8.37550E-04
  473.00      8.33220E-04
  475.00      8.27060E-04
  477.00      8.20950E-04
  479.00      8.14920E-04
  481.00      8.08900E-04
  483.00      8.01260E-04
  485.00      7.74500E-04
  487.00      7.36990E-04
  489.00      7.82530E-04
  491.00      7.79950E-04
  493.00      7.71030E-04
  495.00      7.68940E-04
  497.00      7.63510E-04
  499.00      7.58110E-04
  501.00      7.51100E-04
  503.00      7.47410E-04
  505.00      7.41850E-04
  507.00      7.37020E-04
  509.00      7.31890E-04
  511.00      7.26810E-04
  513.00      7.21780E-04
  515.00      7.16810E-04
  517.00      7.11890E-04
  519.00      7.07010E-04
  521.00      7.02190E-04
  523.00      6.97420E-04
  525.00      6.92680E-04
  527.00      6.87910E-04
  529.00      6.83390E-04
  531.00      6.78800E-04
  533.00      6.74260E-04
  535.00      6.69770E-04
  537.00      6.65320E-04
  539.00      6.60910E-04
  541.00      6.42760E-04
  543.00      6.51930E-04
  545.00      6.47970E-04
  547.00      6.43730E-04
  549.00      6.39540E-04
  551.00      6.35330E-04
  553.00      6.31280E-04
  555.00      6.27200E-04
  557.00      6.23160E-04
  559.00      6.18830E-04
  561.00      6.15220E-04
  563.00      6.11300E-04
  565.00      6.07420E-04
  567.00      6.03570E-04
  569.00      5.92680E-04
  571.00      5.58660E-04
  573.00      5.55420E-04
  575.00      5.52220E-04
  577.00      5.49080E-04
  579.00      5.46090E-04
  581.00      5.43140E-04
  583.00      5.41120E-04
  585.00      5.39400E-04
  587.00      5.35010E-04
  589.00      5.37060E-04
  591.00      5.36550E-04
  593.00      5.36290E-04
  595.00      5.36430E-04
  597.00      5.36780E-04
  599.00      5.37740E-04
  601.00      5.37330E-04
  603.00      5.36870E-04
  605.00      5.36400E-04
  607.00      5.33260E-04
  609.00      5.30560E-04
  611.00      5.27740E-04
  613.00      5.24970E-04
  615.00      5.22510E-04
  617.00      5.17880E-04
  619.00      5.16200E-04
  621.00      5.13380E-04
  623.00      5.08640E-04
  625.00      5.06930E-04
  627.00      5.04490E-04
  629.00      5.01580E-04
  631.00      4.96200E-04
  633.00      4.95500E-04
  635.00      4.93000E-04
  637.00      4.90190E-04
  639.00      4.87050E-04
  641.00      4.81350E-04
  643.00      4.81850E-04
  645.00      4.79170E-04
  647.00      4.76470E-04
  649.00      4.73800E-04
  651.00      4.70520E-04
  653.00      4.63460E-04
  655.00      4.58060E-04
  657.00      4.32050E-04
  659.00      4.59040E-04
  661.00      4.58210E-04
  663.00      4.55700E-04
  665.00      4.53210E-04
  667.00      4.48620E-04
  669.00      4.42080E-04
  671.00      4.45740E-04
  673.00      4.43410E-04
  675.00      4.41010E-04
  677.00      4.38630E-04
  679.00      4.36270E-04
  681.00      4.33930E-04
  683.00      4.31600E-04
  685.00      4.29290E-04
  687.00      4.26990E-04
  689.00      4.18800E-04
  691.00      4.22040E-04
  693.00      4.20250E-04
  695.00      4.18040E-04
  697.00      4.15840E-04
  699.00      4.13660E-04
  701.00      4.11480E-04
  703.00      4.09320E-04
  705.00      4.07190E-04
  707.00      4.03620E-04
  709.00      4.03000E-04
  711.00      4.00920E-04
  713.00      3.98850E-04
  715.00      3.96800E-04
  717.00      3.90710E-04
  719.00      3.90120E-04
  721.00      3.90750E-04
  723.00      3.88760E-04
  725.00      3.86790E-04
  727.00      3.84830E-04
  729.00      3.82390E-04
  731.00      3.80940E-04
  733.00      3.79050E-04
  735.00      3.77150E-04
  737.00      3.75260E-04
  739.00      3.73400E-04
  741.00      3.71530E-04
  743.00      3.69700E-04
  745.00      3.67840E-04
  747.00      3.66060E-04
  749.00      3.64230E-04
  751.00      3.62460E-04
  753.00      3.60690E-04
  755.00      3.58930E-04
  757.00      3.57170E-04
  759.00      3.49440E-04
  761.00      3.53200E-04
  763.00      3.52000E-04
  765.00      3.50300E-04
  767.00      3.48620E-04
  769.00      3.46920E-04
  771.00      3.45280E-04
  773.00      3.43580E-04
  775.00      3.41990E-04
  777.00      3.40360E-04
  779.00      3.38740E-04
  781.00      3.37140E-04
  783.00      3.35550E-04
  785.00      3.33970E-04
  787.00      3.32410E-04
  789.00      3.30850E-04
  791.00      3.29310E-04
  793.00      3.27770E-04
  795.00      3.26240E-04
  797.00      3.24710E-04
  799.00      3.23220E-04
  801.00      3.21720E-04
  803.00      3.20230E-04
  805.00      3.18760E-04
  807.00      3.17300E-04
  809.00      3.15840E-04
  811.00      3.14400E-04
  813.00      3.12960E-04
  815.00      3.11540E-04
  817.00      3.10100E-04
  819.00      3.07450E-04
  821.00      2.95660E-04
  823.00      2.92530E-04
  825.00      2.92640E-04
  827.00      2.91860E-04
  829.00      2.90660E-04
  831.00      2.89440E-04
  833.00      2.88180E-04
  835.00      2.86940E-04
  837.00      2.85780E-04
  839.00      2.84620E-04
  841.00      2.83510E-04
  843.00      2.82400E-04
  845.00      2.81250E-04
  847.00      2.80290E-04
  849.00      2.79380E-04
  851.00      2.78440E-04
  853.00      2.77570E-04
  855.00      2.76560E-04
  857.00      2.75930E-04
  859.00      2.74730E-04
  861.00      2.74050E-04
  863.00      2.73740E-04
  865.00      2.72620E-04
  867.00      2.70990E-04
  869.00      2.71570E-04
  871.00      2.71220E-04
  873.00      2.69970E-04
  875.00      2.66720E-04
  877.00      2.68090E-04
  879.00      2.68830E-04
  881.00      2.68500E-04
  883.00      2.67620E-04
  885.00      2.63750E-04
  887.00      2.59640E-04
  889.00      2.64020E-04
  891.00      2.64510E-04
  893.00      2.63900E-04
  895.00      2.63170E-04
  897.00      2.61790E-04
  899.00      2.58960E-04
  901.00      2.50770E-04
  903.00      2.52860E-04
  905.00      2.56640E-04
  907.00      2.56370E-04
  909.00      2.55870E-04
  911.00      2.54670E-04
  913.00      2.54220E-04
  915.00      2.53220E-04
  917.00      2.51740E-04
  919.00      2.49970E-04
  921.00      2.45910E-04
  923.00      2.36020E-04
  925.00      2.43360E-04
  927.00      2.45790E-04
  929.00      2.45680E-04
  931.00      2.44910E-04
  933.00      2.43560E-04
  935.00      2.37480E-04
  937.00      2.41150E-04
  939.00      2.41070E-04
  941.00      2.40210E-04
  943.00      2.39250E-04
  945.00      2.38290E-04
  947.00      2.37200E-04
  949.00      2.36070E-04
  951.00      2.33930E-04
  953.00      2.29430E-04
  955.00      2.19650E-04
  957.00      2.28930E-04
  959.00      2.30750E-04
  961.00      2.30600E-04
  963.00      2.29840E-04
  965.00      2.29070E-04
  967.00      2.28170E-04
  969.00      2.27280E-04
  971.00      2.26290E-04
  973.00      2.25520E-04
  975.00      2.24320E-04
  977.00      2.22640E-04
  979.00      2.22920E-04
  981.00      2.22060E-04
  983.00      2.21210E-04
  985.00      2.20360E-04
  987.00      2.19520E-04
  989.00      2.18680E-04
  991.00      2.17850E-04
  993.00      2.17020E-04
  995.00      2.16190E-04
  997.00      2.15370E-04
  999.00      2.14370E-04
  1002.5      2.09080E-04
  1007.5      2.05610E-04
  1012.5      2.05720E-04
  1017.5      2.07240E-04
  1022.5      2.05320E-04
  1027.5      2.03430E-04
  1032.5      2.01430E-04
  1037.5      1.99740E-04
  1042.5      1.96980E-04
  1047.5      1.96140E-04
  1052.5      1.94380E-04
  1057.5      1.92640E-04
  1062.5      1.90920E-04
  1067.5      1.89210E-04
  1072.5      1.87560E-04
  1077.5      1.85910E-04
  1082.5      1.83830E-04
  1087.5      1.82400E-04
  1092.5      1.74460E-04
  1097.5      1.77530E-04
  1102.5      1.77850E-04
  1107.5      1.76450E-04
  1112.5      1.74950E-04
  1117.5      1.73550E-04
  1122.5      1.72080E-04
  1127.5      1.70630E-04
  1132.5      1.69200E-04
  1137.5      1.67790E-04
  1142.5      1.66390E-04
  1147.5      1.65010E-04
  1152.5      1.63650E-04
  1157.5      1.62300E-04
  1162.5      1.59200E-04
  1167.5      1.58440E-04
  1172.5      1.58360E-04
  1177.5      1.57080E-04
  1182.5      1.55820E-04
  1187.5      1.54570E-04
  1192.5      1.53330E-04
  1197.5      1.51890E-04
  1202.5      1.50900E-04
  1207.5      1.49710E-04
  1212.5      1.48530E-04
  1217.5      1.47370E-04
  1222.5      1.46220E-04
  1227.5      1.45080E-04
  1232.5      1.43960E-04
  1237.5      1.42850E-04
  1242.5      1.41750E-04
  1247.5      1.40660E-04
  1252.5      1.39560E-04
  1257.5      1.38530E-04
  1262.5      1.37480E-04
  1267.5      1.36440E-04
  1272.5      1.35410E-04
  1277.5      1.33500E-04
  1282.5      1.28020E-04
  1287.5      1.31980E-04
  1292.5      1.31420E-04
  1297.5      1.30380E-04
  1302.5      1.29500E-04
  1307.5      1.28550E-04
  1312.5      1.27610E-04
  1317.5      1.26680E-04
  1322.5      1.25760E-04
  1327.5      1.24850E-04
  1332.5      1.23960E-04
  1337.5      1.23070E-04
  1342.5      1.22180E-04
  1347.5      1.21320E-04
  1352.5      1.20460E-04
  1357.5      1.19600E-04
  1362.5      1.18760E-04
  1367.5      1.17930E-04
  1372.5      1.17100E-04
  1377.5      1.16290E-04
  1382.5      1.15480E-04
  1387.5      1.14680E-04
  1392.5      1.13890E-04
  1397.5      1.13100E-04
