 Castelli and Kurucz 2004-2012 Atmosphere
 T     32000.     G    4.50000 [-1.5a] N(He)/Ntot=0.0784 VTURB=2.0  L/H=1.25 OD
 Wavelength  Eddington Hnu
   (nm)    (ergs/s/cm2/Hz/sr)
  9.0900      1.10750E-33
  9.3500      7.30520E-33
  9.6100      4.39060E-32
  9.7700      1.26820E-31
  9.9600      4.29270E-31
  10.200      1.88730E-30
  10.380      5.50530E-30
  10.560      1.55270E-29
  10.770      4.99930E-29
  11.040      2.11550E-28
  11.400      1.31100E-27
  11.780      8.04240E-27
  12.130      3.88630E-26
  12.480      1.72590E-25
  12.710      4.40230E-25
  12.840      7.36710E-25
  13.050      1.65730E-24
  13.240      3.37880E-24
  13.390      5.84690E-24
  13.660      1.52490E-23
  13.980      4.53490E-23
  14.330      1.41470E-22
  14.720      4.72220E-22
  15.100      1.44160E-21
  15.520      4.65120E-21
  15.880      1.21040E-20
  16.200      2.73750E-20
  16.600      7.27320E-20
  17.030      1.97730E-19
  17.340      3.94880E-19
  17.680      8.20770E-19
  18.020      1.66110E-18
  18.170      2.24900E-18
  18.610      5.32680E-18
  19.100      1.33110E-17
  19.390      2.24090E-17
  19.840      4.88740E-17
  20.180      8.61890E-17
  20.500      1.44620E-16
  21.050      3.39970E-16
  21.620      7.89510E-16
  21.980      1.31670E-15
  22.300      2.04680E-15
  22.680      3.40080E-15
  23.000      1.64130E-12
  23.400      6.65320E-12
  24.000      1.30500E-11
  24.650      2.46930E-11
  25.240      4.20170E-11
  25.680      4.74780E-11
  26.000      8.13740E-11
  26.400      1.07360E-10
  26.850      1.56590E-10
  27.350      2.24780E-10
  27.850      3.06150E-10
  28.400      5.17150E-10
  29.000      7.53220E-10
  29.600      1.04660E-09
  30.100      1.23360E-09
  30.800      1.87700E-09
  31.800      4.11360E-09
  32.800      6.50010E-09
  33.800      1.08040E-08
  34.800      1.67970E-08
  35.700      2.56510E-08
  36.600      3.84690E-08
  37.500      5.18000E-08
  38.500      7.54780E-08
  39.500      1.05840E-07
  40.500      1.43040E-07
  41.400      1.89520E-07
  42.200      2.31940E-07
  43.000      2.87230E-07
  44.100      3.81930E-07
  45.100      4.91260E-07
  46.000      5.97080E-07
  47.000      7.53990E-07
  48.000      9.31690E-07
  49.000      1.13310E-06
  50.000      1.40540E-06
  50.600      6.50420E-06
  51.200      2.72100E-05
  52.000      2.70890E-05
  53.000      2.82780E-05
  54.000      2.67170E-05
  55.000      3.11910E-05
  56.000      3.49670E-05
  57.000      3.73390E-05
  58.000      3.61180E-05
  59.000      4.04470E-05
  60.000      4.07970E-05
  61.000      4.39640E-05
  62.000      4.81620E-05
  63.000      5.04850E-05
  64.000      5.13880E-05
  65.000      5.48280E-05
  65.800      5.56070E-05
  66.500      5.82460E-05
  67.500      6.09260E-05
  68.500      6.08390E-05
  69.500      6.80960E-05
  70.500      6.75530E-05
  71.600      7.50660E-05
  72.600      7.73230E-05
  73.500      8.12040E-05
  74.500      8.44790E-05
  75.500      8.74760E-05
  76.500      9.11740E-05
  77.500      9.53550E-05
  78.500      1.00470E-04
  79.500      1.03590E-04
  80.500      1.06860E-04
  81.500      1.10670E-04
  82.500      1.16170E-04
  83.500      1.12820E-04
  84.500      1.23560E-04
  85.500      1.27600E-04
  86.500      1.32830E-04
  87.500      1.37270E-04
  88.500      1.42190E-04
  89.500      1.47040E-04
  90.500      1.49940E-04
  91.500      1.68720E-04
  92.500      6.33200E-04
  93.500      1.10920E-03
  94.500      1.86710E-03
  95.500      2.14650E-03
  96.500      2.65800E-03
  97.500      1.52190E-03
  98.500      2.65550E-03
  99.500      2.49180E-03
  100.50      2.62640E-03
  101.50      2.60780E-03
  102.50      1.65890E-03
  103.50      2.55890E-03
  104.50      2.76960E-03
  105.50      2.75260E-03
  106.50      2.58890E-03
  107.50      2.64920E-03
  108.50      2.48870E-03
  109.50      2.68120E-03
  110.50      2.61760E-03
  111.50      2.60290E-03
  112.50      2.43070E-03
  113.50      2.59470E-03
  114.50      2.51250E-03
  115.50      2.52170E-03
  116.50      2.52370E-03
  117.50      2.17710E-03
  118.50      2.43880E-03
  119.50      2.40910E-03
  120.50      2.29350E-03
  121.50      1.50910E-03
  122.50      2.32530E-03
  123.50      2.41210E-03
  124.50      2.37510E-03
  125.50      2.39640E-03
  126.50      2.39550E-03
  127.50      2.38880E-03
  128.50      2.37840E-03
  129.50      2.26260E-03
  130.50      2.29510E-03
  131.50      2.33140E-03
  132.50      2.29110E-03
  133.50      2.25850E-03
  134.50      2.26600E-03
  135.50      2.26540E-03
  136.50      2.22590E-03
  137.50      2.21940E-03
  138.50      2.20560E-03
  139.50      2.03060E-03
  140.50      2.04850E-03
  141.50      2.14510E-03
  142.50      2.09730E-03
  143.50      2.11980E-03
  144.20      2.12420E-03
  144.70      2.11250E-03
  145.50      2.08970E-03
  146.50      2.07800E-03
  147.50      2.06160E-03
  148.50      2.05850E-03
  149.50      2.03450E-03
  150.50      2.00520E-03
  151.20      2.01030E-03
  151.70      2.00000E-03
  152.50      1.97980E-03
  153.50      1.90080E-03
  154.50      1.85020E-03
  155.50      1.83720E-03
  156.50      1.86470E-03
  157.50      1.88430E-03
  158.50      1.88620E-03
  159.50      1.87880E-03
  160.50      1.82130E-03
  161.50      1.79660E-03
  162.50      1.79710E-03
  163.50      1.78960E-03
  164.50      1.73070E-03
  165.50      1.80380E-03
  166.50      1.78590E-03
  167.20      1.76030E-03
  167.70      1.81020E-03
  168.50      1.79050E-03
  169.50      1.77450E-03
  170.50      1.75440E-03
  171.50      1.72650E-03
  172.50      1.70800E-03
  173.50      1.73550E-03
  174.50      1.72080E-03
  175.50      1.70550E-03
  176.50      1.69360E-03
  177.50      1.68580E-03
  178.50      1.67950E-03
  179.50      1.67050E-03
  180.50      1.66670E-03
  181.50      1.65040E-03
  182.50      1.63910E-03
  183.50      1.63520E-03
  184.50      1.60240E-03
  185.50      1.58510E-03
  186.50      1.58390E-03
  187.50      1.58240E-03
  188.50      1.55500E-03
  189.50      1.53460E-03
  190.50      1.55080E-03
  191.50      1.52310E-03
  192.50      1.49970E-03
  193.50      1.51450E-03
  194.50      1.51830E-03
  195.50      1.47890E-03
  196.70      1.49390E-03
  197.60      1.49760E-03
  198.40      1.47570E-03
  199.50      1.45140E-03
  200.50      1.46610E-03
  201.50      1.46230E-03
  202.50      1.45600E-03
  203.50      1.44030E-03
  204.50      1.43120E-03
  205.50      1.26380E-03
  206.50      1.23710E-03
  207.40      1.25490E-03
  207.80      1.25160E-03
  208.50      1.28810E-03
  209.50      1.34350E-03
  210.50      1.37890E-03
  211.50      1.38050E-03
  212.50      1.36990E-03
  213.50      1.36350E-03
  214.50      1.35470E-03
  215.50      1.35460E-03
  216.50      1.33270E-03
  217.50      1.34170E-03
  218.50      1.31920E-03
  219.50      1.32710E-03
  220.50      1.31950E-03
  221.50      1.29500E-03
  222.50      1.30340E-03
  223.50      1.29540E-03
  224.50      1.28800E-03
  225.50      1.26400E-03
  226.50      1.27300E-03
  227.50      1.26570E-03
  228.50      1.25540E-03
  229.50      1.22560E-03
  230.50      1.22730E-03
  231.50      1.23470E-03
  232.50      1.22830E-03
  233.50      1.22080E-03
  234.50      1.21460E-03
  235.50      1.20750E-03
  236.50      1.20060E-03
  237.50      1.19310E-03
  238.50      1.17080E-03
  239.50      1.17680E-03
  240.50      1.17300E-03
  241.50      1.16570E-03
  242.50      1.15960E-03
  243.50      1.15180E-03
  244.50      1.14620E-03
  245.50      1.13940E-03
  246.50      1.13370E-03
  247.50      1.12710E-03
  248.50      1.12070E-03
  249.50      1.04710E-03
  250.50      1.10580E-03
  251.30      1.07320E-03
  251.80      1.09110E-03
  252.50      1.09630E-03
  253.50      1.09060E-03
  254.50      1.08050E-03
  255.50      1.07670E-03
  256.50      1.07210E-03
  257.50      1.06670E-03
  258.50      1.06100E-03
  259.50      1.05500E-03
  260.50      1.05350E-03
  261.50      1.04760E-03
  262.50      1.04200E-03
  263.50      1.03600E-03
  264.50      1.02990E-03
  265.50      1.02360E-03
  266.50      1.01620E-03
  267.50      1.00970E-03
  268.50      1.00900E-03
  269.50      9.97910E-04
  270.50      9.97900E-04
  271.50      9.92680E-04
  272.50      9.81490E-04
  273.50      9.73080E-04
  274.50      9.77300E-04
  275.50      9.72310E-04
  276.50      9.60660E-04
  277.50      9.62660E-04
  278.50      9.57270E-04
  279.50      9.45530E-04
  280.50      9.45830E-04
  281.50      9.42930E-04
  282.50      9.30620E-04
  283.50      9.28350E-04
  284.50      9.28720E-04
  285.50      9.23520E-04
  286.50      9.18780E-04
  287.50      9.14220E-04
  288.50      9.09910E-04
  289.50      9.05250E-04
  291.00      8.97960E-04
  293.00      8.89520E-04
  295.00      8.75090E-04
  297.00      8.71890E-04
  299.00      8.62980E-04
  301.00      8.54160E-04
  303.00      8.45840E-04
  305.00      8.38230E-04
  307.00      8.30880E-04
  309.00      8.20290E-04
  311.00      8.14790E-04
  313.00      8.07060E-04
  315.00      7.99230E-04
  317.00      7.92010E-04
  319.00      7.79360E-04
  321.00      7.74580E-04
  323.00      7.70020E-04
  325.00      7.63220E-04
  327.00      7.56370E-04
  329.00      7.49020E-04
  331.00      7.43180E-04
  333.00      7.36080E-04
  335.00      7.28530E-04
  337.00      7.23100E-04
  339.00      7.17140E-04
  341.00      7.10820E-04
  343.00      7.02260E-04
  345.00      6.93940E-04
  347.00      6.89500E-04
  349.00      6.83470E-04
  351.00      6.78520E-04
  353.00      6.73870E-04
  355.00      6.67860E-04
  357.00      6.65460E-04
  359.00      6.55580E-04
  361.00      6.52240E-04
  363.00      6.44630E-04
  364.00      6.45440E-04
  365.00      6.32430E-04
  367.00      6.29550E-04
  369.00      6.24310E-04
  371.00      6.11450E-04
  373.00      5.98050E-04
  375.00      6.02750E-04
  377.00      5.96380E-04
  379.00      6.19570E-04
  381.00      6.43150E-04
  383.00      5.80980E-04
  385.00      6.61090E-04
  387.00      6.68880E-04
  389.00      5.64380E-04
  391.00      6.66940E-04
  393.00      6.63120E-04
  395.00      6.56130E-04
  397.00      5.44070E-04
  399.00      6.43520E-04
  401.00      6.43420E-04
  403.00      6.17820E-04
  405.00      6.39160E-04
  407.00      6.28310E-04
  409.00      5.91990E-04
  411.00      5.35200E-04
  413.00      6.09440E-04
  415.00      6.08530E-04
  417.00      6.08350E-04
  419.00      6.03160E-04
  421.00      5.98220E-04
  423.00      5.94890E-04
  425.00      5.89210E-04
  427.00      5.83450E-04
  429.00      5.79340E-04
  431.00      5.71750E-04
  433.00      5.32130E-04
  435.00      4.95780E-04
  437.00      5.58020E-04
  439.00      5.45580E-04
  441.00      5.52360E-04
  443.00      5.48360E-04
  445.00      5.45290E-04
  447.00      5.22340E-04
  449.00      5.36800E-04
  451.00      5.33370E-04
  453.00      5.29470E-04
  455.00      5.23400E-04
  457.00      5.21130E-04
  459.00      5.16810E-04
  461.00      5.13270E-04
  463.00      5.09390E-04
  465.00      5.01370E-04
  467.00      5.01590E-04
  469.00      4.93910E-04
  471.00      4.88820E-04
  473.00      4.91670E-04
  475.00      4.87960E-04
  477.00      4.84730E-04
  479.00      4.81220E-04
  481.00      4.77270E-04
  483.00      4.71380E-04
  485.00      4.44800E-04
  487.00      4.07500E-04
  489.00      4.60450E-04
  491.00      4.59600E-04
  493.00      4.48280E-04
  495.00      4.54060E-04
  497.00      4.51500E-04
  499.00      4.48360E-04
  501.00      4.40600E-04
  503.00      4.42090E-04
  505.00      4.37210E-04
  507.00      4.36150E-04
  509.00      4.33130E-04
  511.00      4.30200E-04
  513.00      4.27290E-04
  515.00      4.24380E-04
  517.00      4.21480E-04
  519.00      4.18720E-04
  521.00      4.15930E-04
  523.00      4.13180E-04
  525.00      4.10420E-04
  527.00      4.07700E-04
  529.00      4.05030E-04
  531.00      4.02370E-04
  533.00      3.99740E-04
  535.00      3.97120E-04
  537.00      3.94540E-04
  539.00      3.91940E-04
  541.00      3.88300E-04
  543.00      3.86930E-04
  545.00      3.84430E-04
  547.00      3.81970E-04
  549.00      3.79540E-04
  551.00      3.77120E-04
  553.00      3.74730E-04
  555.00      3.72360E-04
  557.00      3.70010E-04
  559.00      3.67650E-04
  561.00      3.65380E-04
  563.00      3.63100E-04
  565.00      3.60830E-04
  567.00      3.58540E-04
  569.00      3.55820E-04
  571.00      3.52700E-04
  573.00      3.50590E-04
  575.00      3.48340E-04
  577.00      3.46380E-04
  579.00      3.44290E-04
  581.00      3.42220E-04
  583.00      3.40150E-04
  585.00      3.38170E-04
  587.00      3.27680E-04
  589.00      3.33780E-04
  591.00      3.32420E-04
  593.00      3.30770E-04
  595.00      3.29160E-04
  597.00      3.27360E-04
  599.00      3.25400E-04
  601.00      3.23500E-04
  603.00      3.21590E-04
  605.00      3.19720E-04
  607.00      3.17860E-04
  609.00      3.16010E-04
  611.00      3.14170E-04
  613.00      3.12350E-04
  615.00      3.10520E-04
  617.00      3.08750E-04
  619.00      3.06990E-04
  621.00      3.05230E-04
  623.00      3.03490E-04
  625.00      3.01760E-04
  627.00      3.00050E-04
  629.00      2.98350E-04
  631.00      2.96660E-04
  633.00      2.95000E-04
  635.00      2.93330E-04
  637.00      2.91700E-04
  639.00      2.90070E-04
  641.00      2.88450E-04
  643.00      2.86850E-04
  645.00      2.85260E-04
  647.00      2.83660E-04
  649.00      2.82100E-04
  651.00      2.80550E-04
  653.00      2.77890E-04
  655.00      2.69110E-04
  657.00      2.44500E-04
  659.00      2.72270E-04
  661.00      2.72690E-04
  663.00      2.71540E-04
  665.00      2.70150E-04
  667.00      2.66330E-04
  669.00      2.64890E-04
  671.00      2.65830E-04
  673.00      2.64380E-04
  675.00      2.63040E-04
  677.00      2.61650E-04
  679.00      2.60210E-04
  681.00      2.58890E-04
  683.00      2.57510E-04
  685.00      2.56170E-04
  687.00      2.54830E-04
  689.00      2.53430E-04
  691.00      2.52120E-04
  693.00      2.50870E-04
  695.00      2.49580E-04
  697.00      2.48290E-04
  699.00      2.47010E-04
  701.00      2.45740E-04
  703.00      2.44470E-04
  705.00      2.43220E-04
  707.00      2.38730E-04
  709.00      2.40760E-04
  711.00      2.39530E-04
  713.00      2.38320E-04
  715.00      2.37120E-04
  717.00      2.35870E-04
  719.00      2.34740E-04
  721.00      2.33570E-04
  723.00      2.32200E-04
  725.00      2.31200E-04
  727.00      2.30090E-04
  729.00      2.27350E-04
  731.00      2.27800E-04
  733.00      2.26690E-04
  735.00      2.25580E-04
  737.00      2.24470E-04
  739.00      2.23370E-04
  741.00      2.22280E-04
  743.00      2.21200E-04
  745.00      2.20140E-04
  747.00      2.19010E-04
  749.00      2.18010E-04
  751.00      2.16900E-04
  753.00      2.15910E-04
  755.00      2.14880E-04
  757.00      2.13850E-04
  759.00      2.12770E-04
  761.00      2.11780E-04
  763.00      2.10800E-04
  765.00      2.09800E-04
  767.00      2.08810E-04
  769.00      2.07820E-04
  771.00      2.06840E-04
  773.00      2.05850E-04
  775.00      2.04900E-04
  777.00      2.03940E-04
  779.00      2.02990E-04
  781.00      2.01960E-04
  783.00      2.01100E-04
  785.00      2.00310E-04
  787.00      1.99340E-04
  789.00      1.98370E-04
  791.00      1.97550E-04
  793.00      1.96640E-04
  795.00      1.95740E-04
  797.00      1.94710E-04
  799.00      1.93940E-04
  801.00      1.93030E-04
  803.00      1.92070E-04
  805.00      1.91200E-04
  807.00      1.90340E-04
  809.00      1.89210E-04
  811.00      1.88380E-04
  813.00      1.87770E-04
  815.00      1.86760E-04
  817.00      1.86130E-04
  819.00      1.85000E-04
  821.00      1.83670E-04
  823.00      1.83100E-04
  825.00      1.82440E-04
  827.00      1.80990E-04
  829.00      1.80780E-04
  831.00      1.80050E-04
  833.00      1.79180E-04
  835.00      1.77760E-04
  837.00      1.77430E-04
  839.00      1.76850E-04
  841.00      1.76090E-04
  843.00      1.75230E-04
  845.00      1.73570E-04
  847.00      1.73700E-04
  849.00      1.72640E-04
  851.00      1.72010E-04
  853.00      1.71060E-04
  855.00      1.69780E-04
  857.00      1.70590E-04
  859.00      1.66710E-04
  861.00      1.67150E-04
  863.00      1.69190E-04
  865.00      1.66090E-04
  867.00      1.61250E-04
  869.00      1.66990E-04
  871.00      1.67750E-04
  873.00      1.64140E-04
  875.00      1.54780E-04
  877.00      1.61150E-04
  879.00      1.65470E-04
  881.00      1.65390E-04
  883.00      1.63940E-04
  885.00      1.56010E-04
  887.00      1.48460E-04
  889.00      1.60310E-04
  891.00      1.62120E-04
  893.00      1.61830E-04
  895.00      1.61480E-04
  897.00      1.60420E-04
  899.00      1.56670E-04
  901.00      1.43420E-04
  903.00      1.48860E-04
  905.00      1.56590E-04
  907.00      1.56060E-04
  909.00      1.56680E-04
  911.00      1.56720E-04
  913.00      1.56200E-04
  915.00      1.55450E-04
  917.00      1.54150E-04
  919.00      1.53040E-04
  921.00      1.47230E-04
  923.00      1.33630E-04
  925.00      1.46080E-04
  927.00      1.50380E-04
  929.00      1.50690E-04
  931.00      1.49920E-04
  933.00      1.49940E-04
  935.00      1.49120E-04
  937.00      1.48810E-04
  939.00      1.48220E-04
  941.00      1.47620E-04
  943.00      1.47040E-04
  945.00      1.46460E-04
  947.00      1.44900E-04
  949.00      1.44790E-04
  951.00      1.42330E-04
  953.00      1.36810E-04
  955.00      1.24830E-04
  957.00      1.38360E-04
  959.00      1.41330E-04
  961.00      1.41210E-04
  963.00      1.40610E-04
  965.00      1.40830E-04
  967.00      1.40280E-04
  969.00      1.39640E-04
  971.00      1.38810E-04
  973.00      1.38660E-04
  975.00      1.38130E-04
  977.00      1.37600E-04
  979.00      1.37070E-04
  981.00      1.36540E-04
  983.00      1.36030E-04
  985.00      1.35510E-04
  987.00      1.34990E-04
  989.00      1.34470E-04
  991.00      1.33900E-04
  993.00      1.33460E-04
  995.00      1.32960E-04
  997.00      1.32410E-04
  999.00      1.31550E-04
  1002.5      1.25730E-04
  1007.5      1.23080E-04
  1012.5      1.27930E-04
  1017.5      1.27490E-04
  1022.5      1.26270E-04
  1027.5      1.25160E-04
  1032.5      1.23580E-04
  1037.5      1.22900E-04
  1042.5      1.21790E-04
  1047.5      1.20700E-04
  1052.5      1.19620E-04
  1057.5      1.18560E-04
  1062.5      1.17510E-04
  1067.5      1.16280E-04
  1072.5      1.15450E-04
  1077.5      1.14440E-04
  1082.5      1.12450E-04
  1087.5      1.12040E-04
  1092.5      1.03300E-04
  1097.5      1.08030E-04
  1102.5      1.08910E-04
  1107.5      1.08560E-04
  1112.5      1.07730E-04
  1117.5      1.06820E-04
  1122.5      1.05870E-04
  1127.5      1.05030E-04
  1132.5      1.04140E-04
  1137.5      1.03280E-04
  1142.5      1.02430E-04
  1147.5      1.01590E-04
  1152.5      1.00750E-04
  1157.5      9.99280E-05
  1162.5      9.90810E-05
  1167.5      9.82980E-05
  1172.5      9.75180E-05
  1177.5      9.67330E-05
  1182.5      9.59570E-05
  1187.5      9.51920E-05
  1192.5      9.44350E-05
  1197.5      9.27940E-05
  1202.5      9.29480E-05
  1207.5      9.22180E-05
  1212.5      9.14960E-05
  1217.5      9.07830E-05
  1222.5      9.00780E-05
  1227.5      8.93810E-05
  1232.5      8.86920E-05
  1237.5      8.80110E-05
  1242.5      8.73380E-05
  1247.5      8.66700E-05
  1252.5      8.58560E-05
  1257.5      8.53620E-05
  1262.5      8.47190E-05
  1267.5      8.40840E-05
  1272.5      8.33990E-05
  1277.5      8.13960E-05
  1282.5      7.61690E-05
  1287.5      8.10120E-05
  1292.5      8.09790E-05
  1297.5      7.99080E-05
  1302.5      7.98220E-05
  1307.5      7.92460E-05
  1312.5      7.86700E-05
  1317.5      7.81010E-05
  1322.5      7.75380E-05
  1327.5      7.69810E-05
  1332.5      7.64290E-05
  1337.5      7.58820E-05
  1342.5      7.52890E-05
  1347.5      7.48100E-05
  1352.5      7.42810E-05
  1357.5      7.37600E-05
  1362.5      7.32370E-05
  1367.5      7.27310E-05
  1372.5      7.22200E-05
  1377.5      7.17240E-05
  1382.5      7.12280E-05
  1387.5      7.07370E-05
  1392.5      7.02500E-05
  1397.5      6.97710E-05
