 Castelli and Kurucz 2004-2012 Atmosphere
 T     49000.     G    5.00000 [-1.5a] N(He)/Ntot=0.0784 VTURB=2.0  L/H=1.25 OD
 Wavelength  Eddington Hnu
   (nm)    (ergs/s/cm2/Hz/sr)
  9.0900      2.04480E-18
  9.3500      5.40290E-18
  9.6100      1.34260E-17
  9.7700      2.31680E-17
  9.9600      4.29390E-17
  10.200      9.05200E-17
  10.380      1.54900E-16
  10.560      2.60180E-16
  10.770      4.66080E-16
  11.040      9.54510E-16
  11.400      2.35620E-15
  11.780      5.77010E-15
  12.130      1.25670E-14
  12.480      2.62040E-14
  12.710      4.16430E-14
  12.840      5.38610E-14
  13.050      8.03350E-14
  13.240      1.14230E-13
  13.390      1.49890E-13
  13.660      2.40710E-13
  13.980      4.14600E-13
  14.330      7.30220E-13
  14.720      1.31580E-12
  15.100      2.33480E-12
  15.520      4.21530E-12
  15.880      6.84530E-12
  16.200      1.04750E-11
  16.600      1.72950E-11
  17.030      2.86400E-11
  17.340      4.07930E-11
  17.680      5.99030E-11
  18.020      8.63980E-11
  18.170      9.97730E-11
  18.610      1.58210E-10
  19.100      2.53990E-10
  19.390      3.35700E-10
  19.840      5.04430E-10
  20.180      6.79840E-10
  20.500      8.93910E-10
  21.050      1.40330E-09
  21.620      2.18840E-09
  21.980      2.87670E-09
  22.300      3.62870E-09
  22.680      4.72020E-09
  23.000      3.12050E-07
  23.400      2.47240E-06
  24.000      2.17030E-05
  24.650      1.19170E-04
  25.240      2.72330E-04
  25.680      2.48250E-04
  26.000      4.25170E-04
  26.400      6.30430E-04
  26.850      7.01410E-04
  27.350      8.24220E-04
  27.850      7.96100E-04
  28.400      9.90100E-04
  29.000      1.12380E-03
  29.600      1.02190E-03
  30.100      5.31300E-04
  30.800      6.83740E-04
  31.800      6.63320E-04
  32.800      7.55640E-04
  33.800      6.45030E-04
  34.800      6.60810E-04
  35.700      1.00960E-03
  36.600      1.28970E-03
  37.500      1.43040E-03
  38.500      1.36110E-03
  39.500      1.64700E-03
  40.500      1.88130E-03
  41.400      1.93670E-03
  42.200      1.91050E-03
  43.000      1.91690E-03
  44.100      2.11430E-03
  45.100      2.19430E-03
  46.000      2.12810E-03
  47.000      2.19720E-03
  48.000      2.30580E-03
  49.000      2.22450E-03
  50.000      2.43490E-03
  50.600      2.30890E-03
  51.200      2.58750E-03
  52.000      2.56750E-03
  53.000      2.59930E-03
  54.000      2.45720E-03
  55.000      2.32130E-03
  56.000      2.66060E-03
  57.000      2.77240E-03
  58.000      2.77990E-03
  59.000      2.84680E-03
  60.000      2.78380E-03
  61.000      2.65420E-03
  62.000      2.87190E-03
  63.000      2.82550E-03
  64.000      2.96060E-03
  65.000      2.91130E-03
  65.800      2.82360E-03
  66.500      2.98780E-03
  67.500      3.03360E-03
  68.500      2.93380E-03
  69.500      3.07640E-03
  70.500      2.94030E-03
  71.600      3.10590E-03
  72.600      3.15440E-03
  73.500      3.16800E-03
  74.500      3.14910E-03
  75.500      3.12800E-03
  76.500      3.08080E-03
  77.500      3.17130E-03
  78.500      3.11320E-03
  79.500      3.17290E-03
  80.500      3.20840E-03
  81.500      3.22800E-03
  82.500      3.24930E-03
  83.500      3.13290E-03
  84.500      3.25560E-03
  85.500      3.21540E-03
  86.500      3.27860E-03
  87.500      3.30120E-03
  88.500      3.28500E-03
  89.500      3.29280E-03
  90.500      3.26230E-03
  91.500      2.50160E-03
  92.500      3.91310E-03
  93.500      4.90480E-03
  94.500      5.94500E-03
  95.500      6.58010E-03
  96.500      7.42440E-03
  97.500      5.99570E-03
  98.500      7.27880E-03
  99.500      6.79130E-03
  100.50      7.21830E-03
  101.50      7.17190E-03
  102.50      5.91800E-03
  103.50      7.13460E-03
  104.50      7.20060E-03
  105.50      7.16080E-03
  106.50      6.93320E-03
  107.50      6.99400E-03
  108.50      6.58300E-03
  109.50      6.92280E-03
  110.50      6.81940E-03
  111.50      6.75480E-03
  112.50      6.63020E-03
  113.50      6.69470E-03
  114.50      6.64560E-03
  115.50      6.53080E-03
  116.50      6.42710E-03
  117.50      6.16540E-03
  118.50      6.37240E-03
  119.50      6.27530E-03
  120.50      6.23140E-03
  121.50      5.14050E-03
  122.50      6.12120E-03
  123.50      6.01690E-03
  124.50      5.96470E-03
  125.50      6.01710E-03
  126.50      5.96620E-03
  127.50      5.91920E-03
  128.50      5.86910E-03
  129.50      5.82310E-03
  130.50      5.75210E-03
  131.50      5.70990E-03
  132.50      5.64430E-03
  133.50      5.61530E-03
  134.50      5.57260E-03
  135.50      5.49300E-03
  136.50      5.40320E-03
  137.50      5.29540E-03
  138.50      5.32650E-03
  139.50      5.24450E-03
  140.50      5.13620E-03
  141.50      5.22660E-03
  142.50      5.16420E-03
  143.50      5.15130E-03
  144.20      5.07010E-03
  144.70      5.06080E-03
  145.50      5.01730E-03
  146.50      4.98310E-03
  147.50      4.96650E-03
  148.50      4.96090E-03
  149.50      4.91160E-03
  150.50      4.88130E-03
  151.20      4.86240E-03
  151.70      4.82350E-03
  152.50      4.80660E-03
  153.50      4.73590E-03
  154.50      4.54980E-03
  155.50      4.53550E-03
  156.50      4.61610E-03
  157.50      4.59910E-03
  158.50      4.54640E-03
  159.50      4.51970E-03
  160.50      4.46330E-03
  161.50      4.43050E-03
  162.50      4.37710E-03
  163.50      4.28220E-03
  164.50      4.09910E-03
  165.50      4.31540E-03
  166.50      4.28830E-03
  167.20      4.23870E-03
  167.70      4.25500E-03
  168.50      4.23090E-03
  169.50      4.20170E-03
  170.50      4.16350E-03
  171.50      4.08080E-03
  172.50      4.06930E-03
  173.50      4.07700E-03
  174.50      4.04220E-03
  175.50      4.00960E-03
  176.50      3.98150E-03
  177.50      3.95440E-03
  178.50      3.92800E-03
  179.50      3.89480E-03
  180.50      3.86640E-03
  181.50      3.83850E-03
  182.50      3.80990E-03
  183.50      3.78250E-03
  184.50      3.75500E-03
  185.50      3.72550E-03
  186.50      3.69910E-03
  187.50      3.67070E-03
  188.50      3.64330E-03
  189.50      3.62080E-03
  190.50      3.59460E-03
  191.50      3.56780E-03
  192.50      3.53040E-03
  193.50      3.51780E-03
  194.50      3.49310E-03
  195.50      3.46670E-03
  196.70      3.43820E-03
  197.60      3.41370E-03
  198.40      3.39710E-03
  199.50      3.36960E-03
  200.50      3.34740E-03
  201.50      3.32390E-03
  202.50      3.30070E-03
  203.50      3.27750E-03
  204.50      3.25110E-03
  205.50      2.50980E-03
  206.50      2.42320E-03
  207.40      2.45950E-03
  207.80      2.50620E-03
  208.50      2.63650E-03
  209.50      2.92150E-03
  210.50      3.09760E-03
  211.50      3.10780E-03
  212.50      3.08590E-03
  213.50      3.06040E-03
  214.50      3.04490E-03
  215.50      3.07090E-03
  216.50      2.96600E-03
  217.50      3.05590E-03
  218.50      2.93010E-03
  219.50      3.01680E-03
  220.50      3.00360E-03
  221.50      2.86500E-03
  222.50      2.96430E-03
  223.50      2.94880E-03
  224.50      2.92420E-03
  225.50      2.79430E-03
  226.50      2.88960E-03
  227.50      2.87240E-03
  228.50      2.85010E-03
  229.50      2.81860E-03
  230.50      2.70850E-03
  231.50      2.79080E-03
  232.50      2.77980E-03
  233.50      2.76230E-03
  234.50      2.74420E-03
  235.50      2.72630E-03
  236.50      2.70890E-03
  237.50      2.69030E-03
  238.50      2.57170E-03
  239.50      2.64900E-03
  240.50      2.63810E-03
  241.50      2.62020E-03
  242.50      2.60790E-03
  243.50      2.59070E-03
  244.50      2.57490E-03
  245.50      2.55410E-03
  246.50      2.54290E-03
  247.50      2.52780E-03
  248.50      2.51160E-03
  249.50      2.44270E-03
  250.50      2.46650E-03
  251.30      2.28890E-03
  251.80      2.44210E-03
  252.50      2.44420E-03
  253.50      2.43590E-03
  254.50      2.42140E-03
  255.50      2.40640E-03
  256.50      2.39230E-03
  257.50      2.37780E-03
  258.50      2.36330E-03
  259.50      2.34270E-03
  260.50      2.33570E-03
  261.50      2.31870E-03
  262.50      2.30810E-03
  263.50      2.29460E-03
  264.50      2.28050E-03
  265.50      2.26770E-03
  266.50      2.25400E-03
  267.50      2.23740E-03
  268.50      2.22730E-03
  269.50      2.21410E-03
  270.50      2.20260E-03
  271.50      2.18970E-03
  272.50      2.17530E-03
  273.50      2.09200E-03
  274.50      2.15210E-03
  275.50      2.13970E-03
  276.50      2.12720E-03
  277.50      2.11520E-03
  278.50      2.10240E-03
  279.50      2.09030E-03
  280.50      2.07960E-03
  281.50      2.06800E-03
  282.50      2.05530E-03
  283.50      2.04480E-03
  284.50      2.03390E-03
  285.50      2.02260E-03
  286.50      2.01140E-03
  287.50      2.00020E-03
  288.50      1.98920E-03
  289.50      1.97800E-03
  291.00      1.96180E-03
  293.00      1.94060E-03
  295.00      1.91910E-03
  297.00      1.89830E-03
  299.00      1.87630E-03
  301.00      1.85730E-03
  303.00      1.83580E-03
  305.00      1.81690E-03
  307.00      1.79740E-03
  309.00      1.78090E-03
  311.00      1.76240E-03
  313.00      1.74350E-03
  315.00      1.72660E-03
  317.00      1.70860E-03
  319.00      1.68990E-03
  321.00      1.64540E-03
  323.00      1.65790E-03
  325.00      1.64120E-03
  327.00      1.62110E-03
  329.00      1.60820E-03
  331.00      1.59230E-03
  333.00      1.57670E-03
  335.00      1.55990E-03
  337.00      1.54610E-03
  339.00      1.53060E-03
  341.00      1.51530E-03
  343.00      1.50210E-03
  345.00      1.48660E-03
  347.00      1.47360E-03
  349.00      1.45970E-03
  351.00      1.44610E-03
  353.00      1.43220E-03
  355.00      1.41870E-03
  357.00      1.40590E-03
  359.00      1.39250E-03
  361.00      1.37980E-03
  363.00      1.36670E-03
  364.00      1.33350E-03
  365.00      1.21850E-03
  367.00      1.20900E-03
  369.00      1.20100E-03
  371.00      1.19860E-03
  373.00      1.20420E-03
  375.00      1.21730E-03
  377.00      1.23030E-03
  379.00      1.24960E-03
  381.00      1.26830E-03
  383.00      1.21930E-03
  385.00      1.26220E-03
  387.00      1.26860E-03
  389.00      1.17240E-03
  391.00      1.25090E-03
  393.00      1.23650E-03
  395.00      1.23210E-03
  397.00      1.12900E-03
  399.00      1.20940E-03
  401.00      1.20600E-03
  403.00      1.17530E-03
  405.00      1.18930E-03
  407.00      1.17740E-03
  409.00      1.13760E-03
  411.00      1.08070E-03
  413.00      1.14600E-03
  415.00      1.13940E-03
  417.00      1.13070E-03
  419.00      1.11420E-03
  421.00      1.09390E-03
  423.00      1.10290E-03
  425.00      1.09390E-03
  427.00      1.08490E-03
  429.00      1.07610E-03
  431.00      1.06540E-03
  433.00      1.02370E-03
  435.00      9.88490E-04
  437.00      1.03890E-03
  439.00      1.03190E-03
  441.00      1.02510E-03
  443.00      1.01700E-03
  445.00      1.00900E-03
  447.00      9.96130E-04
  449.00      9.93200E-04
  451.00      9.85460E-04
  453.00      9.75330E-04
  455.00      9.50870E-04
  457.00      9.62750E-04
  459.00      9.55410E-04
  461.00      9.48030E-04
  463.00      9.40260E-04
  465.00      9.32070E-04
  467.00      9.25210E-04
  469.00      8.87870E-04
  471.00      9.11790E-04
  473.00      9.05910E-04
  475.00      8.99160E-04
  477.00      8.92460E-04
  479.00      8.85840E-04
  481.00      8.79300E-04
  483.00      8.71330E-04
  485.00      8.44620E-04
  487.00      8.05940E-04
  489.00      8.51210E-04
  491.00      8.47620E-04
  493.00      8.39780E-04
  495.00      8.35500E-04
  497.00      8.29520E-04
  499.00      8.23600E-04
  501.00      8.16900E-04
  503.00      8.11930E-04
  505.00      8.06030E-04
  507.00      8.00510E-04
  509.00      7.94900E-04
  511.00      7.89350E-04
  513.00      7.83840E-04
  515.00      7.78400E-04
  517.00      7.73010E-04
  519.00      7.67680E-04
  521.00      7.62400E-04
  523.00      7.57180E-04
  525.00      7.52000E-04
  527.00      7.46810E-04
  529.00      7.41830E-04
  531.00      7.36820E-04
  533.00      7.31850E-04
  535.00      7.26940E-04
  537.00      7.22080E-04
  539.00      7.17250E-04
  541.00      6.97570E-04
  543.00      7.07430E-04
  545.00      7.03100E-04
  547.00      6.98460E-04
  549.00      6.93890E-04
  551.00      6.89290E-04
  553.00      6.84850E-04
  555.00      6.80400E-04
  557.00      6.75980E-04
  559.00      6.71330E-04
  561.00      6.67310E-04
  563.00      6.63030E-04
  565.00      6.58790E-04
  567.00      6.54590E-04
  569.00      6.42560E-04
  571.00      6.04800E-04
  573.00      6.01260E-04
  575.00      5.97760E-04
  577.00      5.94340E-04
  579.00      5.91080E-04
  581.00      5.87770E-04
  583.00      5.85710E-04
  585.00      5.83820E-04
  587.00      5.80330E-04
  589.00      5.81330E-04
  591.00      5.80760E-04
  593.00      5.80510E-04
  595.00      5.80750E-04
  597.00      5.81270E-04
  599.00      5.82560E-04
  601.00      5.82080E-04
  603.00      5.81950E-04
  605.00      5.81170E-04
  607.00      5.77680E-04
  609.00      5.74830E-04
  611.00      5.71810E-04
  613.00      5.68650E-04
  615.00      5.66140E-04
  617.00      5.60930E-04
  619.00      5.59150E-04
  621.00      5.56190E-04
  623.00      5.50840E-04
  625.00      5.49010E-04
  627.00      5.46500E-04
  629.00      5.43310E-04
  631.00      5.37210E-04
  633.00      5.36570E-04
  635.00      5.33970E-04
  637.00      5.30900E-04
  639.00      5.27370E-04
  641.00      5.20970E-04
  643.00      5.21760E-04
  645.00      5.18890E-04
  647.00      5.15950E-04
  649.00      5.13040E-04
  651.00      5.09470E-04
  653.00      5.01610E-04
  655.00      4.96820E-04
  657.00      4.69770E-04
  659.00      4.97320E-04
  661.00      4.96060E-04
  663.00      4.93320E-04
  665.00      4.90600E-04
  667.00      4.86070E-04
  669.00      4.78640E-04
  671.00      4.82480E-04
  673.00      4.79930E-04
  675.00      4.77310E-04
  677.00      4.74720E-04
  679.00      4.72150E-04
  681.00      4.69600E-04
  683.00      4.67070E-04
  685.00      4.64560E-04
  687.00      4.62020E-04
  689.00      4.52750E-04
  691.00      4.56630E-04
  693.00      4.54710E-04
  695.00      4.52300E-04
  697.00      4.49910E-04
  699.00      4.47530E-04
  701.00      4.45170E-04
  703.00      4.42830E-04
  705.00      4.40510E-04
  707.00      4.37340E-04
  709.00      4.35940E-04
  711.00      4.33670E-04
  713.00      4.31420E-04
  715.00      4.29190E-04
  717.00      4.22310E-04
  719.00      4.21770E-04
  721.00      4.22610E-04
  723.00      4.20450E-04
  725.00      4.18310E-04
  727.00      4.16180E-04
  729.00      4.13830E-04
  731.00      4.11960E-04
  733.00      4.09890E-04
  735.00      4.07820E-04
  737.00      4.05770E-04
  739.00      4.03740E-04
  741.00      4.01710E-04
  743.00      3.99720E-04
  745.00      3.97700E-04
  747.00      3.95760E-04
  749.00      3.93790E-04
  751.00      3.91840E-04
  753.00      3.89920E-04
  755.00      3.88000E-04
  757.00      3.86100E-04
  759.00      3.77400E-04
  761.00      3.81680E-04
  763.00      3.80480E-04
  765.00      3.78630E-04
  767.00      3.76800E-04
  769.00      3.74960E-04
  771.00      3.73170E-04
  773.00      3.71340E-04
  775.00      3.69600E-04
  777.00      3.67830E-04
  779.00      3.66070E-04
  781.00      3.64330E-04
  783.00      3.62600E-04
  785.00      3.60870E-04
  787.00      3.59180E-04
  789.00      3.57480E-04
  791.00      3.55810E-04
  793.00      3.54140E-04
  795.00      3.52480E-04
  797.00      3.50820E-04
  799.00      3.49190E-04
  801.00      3.47570E-04
  803.00      3.45950E-04
  805.00      3.44350E-04
  807.00      3.42760E-04
  809.00      3.41180E-04
  811.00      3.39610E-04
  813.00      3.38060E-04
  815.00      3.36510E-04
  817.00      3.34950E-04
  819.00      3.32040E-04
  821.00      3.18680E-04
  823.00      3.15360E-04
  825.00      3.15420E-04
  827.00      3.14570E-04
  829.00      3.13240E-04
  831.00      3.11900E-04
  833.00      3.10550E-04
  835.00      3.09250E-04
  837.00      3.07970E-04
  839.00      3.06710E-04
  841.00      3.05500E-04
  843.00      3.04310E-04
  845.00      3.03110E-04
  847.00      3.02050E-04
  849.00      3.01080E-04
  851.00      3.00060E-04
  853.00      2.99140E-04
  855.00      2.98040E-04
  857.00      2.97350E-04
  859.00      2.96220E-04
  861.00      2.95390E-04
  863.00      2.95000E-04
  865.00      2.93930E-04
  867.00      2.92280E-04
  869.00      2.92710E-04
  871.00      2.92290E-04
  873.00      2.91170E-04
  875.00      2.88020E-04
  877.00      2.89300E-04
  879.00      2.89830E-04
  881.00      2.89490E-04
  883.00      2.88650E-04
  885.00      2.84990E-04
  887.00      2.80850E-04
  889.00      2.84910E-04
  891.00      2.85270E-04
  893.00      2.84620E-04
  895.00      2.83740E-04
  897.00      2.82290E-04
  899.00      2.79570E-04
  901.00      2.71530E-04
  903.00      2.73410E-04
  905.00      2.76870E-04
  907.00      2.76590E-04
  909.00      2.75940E-04
  911.00      2.74480E-04
  913.00      2.73980E-04
  915.00      2.72890E-04
  917.00      2.71460E-04
  919.00      2.69550E-04
  921.00      2.65720E-04
  923.00      2.55710E-04
  925.00      2.62870E-04
  927.00      2.65040E-04
  929.00      2.64880E-04
  931.00      2.64050E-04
  933.00      2.62430E-04
  935.00      2.55770E-04
  937.00      2.59750E-04
  939.00      2.59700E-04
  941.00      2.58810E-04
  943.00      2.57780E-04
  945.00      2.56750E-04
  947.00      2.55670E-04
  949.00      2.54480E-04
  951.00      2.52380E-04
  953.00      2.47960E-04
  955.00      2.37910E-04
  957.00      2.47130E-04
  959.00      2.48750E-04
  961.00      2.48570E-04
  963.00      2.47690E-04
  965.00      2.46770E-04
  967.00      2.45800E-04
  969.00      2.44840E-04
  971.00      2.43860E-04
  973.00      2.42930E-04
  975.00      2.41560E-04
  977.00      2.39680E-04
  979.00      2.40110E-04
  981.00      2.39190E-04
  983.00      2.38270E-04
  985.00      2.37350E-04
  987.00      2.36440E-04
  989.00      2.35540E-04
  991.00      2.34630E-04
  993.00      2.33740E-04
  995.00      2.32850E-04
  997.00      2.31960E-04
  999.00      2.30990E-04
  1002.5      2.25680E-04
  1007.5      2.21960E-04
  1012.5      2.21540E-04
  1017.5      2.23160E-04
  1022.5      2.21100E-04
  1027.5      2.19050E-04
  1032.5      2.16970E-04
  1037.5      2.15060E-04
  1042.5      2.11980E-04
  1047.5      2.11170E-04
  1052.5      2.09270E-04
  1057.5      2.07390E-04
  1062.5      2.05530E-04
  1067.5      2.03700E-04
  1072.5      2.01900E-04
  1077.5      2.00120E-04
  1082.5      1.98080E-04
  1087.5      1.96410E-04
  1092.5      1.88400E-04
  1097.5      1.91330E-04
  1102.5      1.91510E-04
  1107.5      1.89900E-04
  1112.5      1.88280E-04
  1117.5      1.86780E-04
  1122.5      1.85190E-04
  1127.5      1.83620E-04
  1132.5      1.82070E-04
  1137.5      1.80550E-04
  1142.5      1.79040E-04
  1147.5      1.77550E-04
  1152.5      1.76080E-04
  1157.5      1.74620E-04
  1162.5      1.71200E-04
  1167.5      1.70330E-04
  1172.5      1.70370E-04
  1177.5      1.68990E-04
  1182.5      1.67620E-04
  1187.5      1.66270E-04
  1192.5      1.64940E-04
  1197.5      1.63530E-04
  1202.5      1.62320E-04
  1207.5      1.61030E-04
  1212.5      1.59760E-04
  1217.5      1.58500E-04
  1222.5      1.57260E-04
  1227.5      1.56030E-04
  1232.5      1.54820E-04
  1237.5      1.53620E-04
  1242.5      1.52430E-04
  1247.5      1.51260E-04
  1252.5      1.50090E-04
  1257.5      1.48960E-04
  1262.5      1.47830E-04
  1267.5      1.46710E-04
  1272.5      1.45600E-04
  1277.5      1.43790E-04
  1282.5      1.38020E-04
  1287.5      1.41990E-04
  1292.5      1.41300E-04
  1297.5      1.40230E-04
  1302.5      1.39220E-04
  1307.5      1.38190E-04
  1312.5      1.37180E-04
  1317.5      1.36180E-04
  1322.5      1.35190E-04
  1327.5      1.34210E-04
  1332.5      1.33240E-04
  1337.5      1.32290E-04
  1342.5      1.31340E-04
  1347.5      1.30400E-04
  1352.5      1.29470E-04
  1357.5      1.28550E-04
  1362.5      1.27650E-04
  1367.5      1.26750E-04
  1372.5      1.25860E-04
  1377.5      1.24980E-04
  1382.5      1.24110E-04
  1387.5      1.23240E-04
  1392.5      1.22390E-04
  1397.5      1.21550E-04
