 Castelli and Kurucz 2004-2012 Atmosphere
 T     47000.     G    5.00000 [-1.5a] N(He)/Ntot=0.0784 VTURB=2.0  L/H=1.25 OD
 Wavelength  Eddington Hnu
   (nm)    (ergs/s/cm2/Hz/sr)
  9.0900      1.72510E-19
  9.3500      4.75900E-19
  9.6100      1.23730E-18
  9.7700      2.18800E-18
  9.9600      4.18450E-18
  10.200      9.17760E-18
  10.380      1.61770E-17
  10.560      2.79870E-17
  10.770      5.18730E-17
  11.040      1.10950E-16
  11.400      2.90010E-16
  11.780      7.53970E-16
  12.130      1.73110E-15
  12.480      3.80320E-15
  12.710      6.24360E-15
  12.840      8.20800E-15
  13.050      1.26100E-14
  13.240      1.84080E-14
  13.390      2.46500E-14
  13.660      4.10580E-14
  13.980      7.36900E-14
  14.330      1.35720E-13
  14.720      2.57720E-13
  15.100      4.76490E-13
  15.520      9.02320E-13
  15.880      1.52420E-12
  16.200      2.39990E-12
  16.600      4.12760E-12
  17.030      7.16440E-12
  17.340      1.05200E-11
  17.680      1.59130E-11
  18.020      2.36540E-11
  18.170      2.77860E-11
  18.610      4.56130E-11
  19.100      7.64680E-11
  19.390      1.03080E-10
  19.840      1.60530E-10
  20.180      2.21810E-10
  20.500      2.98250E-10
  21.050      4.86360E-10
  21.620      7.87360E-10
  21.980      1.05750E-09
  22.300      1.36120E-09
  22.680      1.81350E-09
  23.000      1.57380E-07
  23.400      8.77470E-07
  24.000      6.77760E-06
  24.650      5.38180E-05
  25.240      1.42690E-04
  25.680      1.25250E-04
  26.000      2.41860E-04
  26.400      3.84670E-04
  26.850      4.53210E-04
  27.350      5.41380E-04
  27.850      5.20030E-04
  28.400      6.76600E-04
  29.000      7.74990E-04
  29.600      6.82610E-04
  30.100      2.92270E-04
  30.800      4.39690E-04
  31.800      4.53140E-04
  32.800      5.31110E-04
  33.800      4.54160E-04
  34.800      4.70270E-04
  35.700      7.32970E-04
  36.600      9.46230E-04
  37.500      1.05540E-03
  38.500      1.01630E-03
  39.500      1.23150E-03
  40.500      1.40600E-03
  41.400      1.45110E-03
  42.200      1.43240E-03
  43.000      1.43130E-03
  44.100      1.57950E-03
  45.100      1.64520E-03
  46.000      1.59670E-03
  47.000      1.64800E-03
  48.000      1.73400E-03
  49.000      1.66170E-03
  50.000      1.83210E-03
  50.600      1.74980E-03
  51.200      2.06540E-03
  52.000      2.04880E-03
  53.000      2.07080E-03
  54.000      1.95900E-03
  55.000      1.86960E-03
  56.000      2.15510E-03
  57.000      2.25020E-03
  58.000      2.24860E-03
  59.000      2.31290E-03
  60.000      2.25900E-03
  61.000      2.17330E-03
  62.000      2.36360E-03
  63.000      2.33830E-03
  64.000      2.44410E-03
  65.000      2.40800E-03
  65.800      2.33360E-03
  66.500      2.47190E-03
  67.500      2.52460E-03
  68.500      2.44400E-03
  69.500      2.56620E-03
  70.500      2.45280E-03
  71.600      2.60670E-03
  72.600      2.64990E-03
  73.500      2.66740E-03
  74.500      2.65290E-03
  75.500      2.64320E-03
  76.500      2.61380E-03
  77.500      2.68740E-03
  78.500      2.64640E-03
  79.500      2.70020E-03
  80.500      2.72890E-03
  81.500      2.75330E-03
  82.500      2.77790E-03
  83.500      2.67220E-03
  84.500      2.79010E-03
  85.500      2.76310E-03
  86.500      2.82000E-03
  87.500      2.84260E-03
  88.500      2.83530E-03
  89.500      2.84420E-03
  90.500      2.82230E-03
  91.500      2.18710E-03
  92.500      3.46950E-03
  93.500      4.41140E-03
  94.500      5.43600E-03
  95.500      6.02960E-03
  96.500      6.88760E-03
  97.500      5.46940E-03
  98.500      6.77290E-03
  99.500      6.30710E-03
  100.50      6.71690E-03
  101.50      6.68610E-03
  102.50      5.42160E-03
  103.50      6.64320E-03
  104.50      6.71260E-03
  105.50      6.67670E-03
  106.50      6.46540E-03
  107.50      6.51070E-03
  108.50      6.12240E-03
  109.50      6.45740E-03
  110.50      6.35890E-03
  111.50      6.29840E-03
  112.50      6.16850E-03
  113.50      6.24180E-03
  114.50      6.19680E-03
  115.50      6.08620E-03
  116.50      5.99980E-03
  117.50      5.71030E-03
  118.50      5.93140E-03
  119.50      5.85200E-03
  120.50      5.80390E-03
  121.50      4.73270E-03
  122.50      5.70320E-03
  123.50      5.62660E-03
  124.50      5.57640E-03
  125.50      5.62290E-03
  126.50      5.57770E-03
  127.50      5.53660E-03
  128.50      5.49290E-03
  129.50      5.44540E-03
  130.50      5.38450E-03
  131.50      5.34770E-03
  132.50      5.28820E-03
  133.50      5.26090E-03
  134.50      5.22140E-03
  135.50      5.15140E-03
  136.50      5.07200E-03
  137.50      4.97950E-03
  138.50      4.99850E-03
  139.50      4.91520E-03
  140.50      4.81820E-03
  141.50      4.90280E-03
  142.50      4.84030E-03
  143.50      4.83130E-03
  144.20      4.76100E-03
  144.70      4.75120E-03
  145.50      4.71020E-03
  146.50      4.68000E-03
  147.50      4.66080E-03
  148.50      4.65540E-03
  149.50      4.60930E-03
  150.50      4.58260E-03
  151.20      4.56560E-03
  151.70      4.52960E-03
  152.50      4.51080E-03
  153.50      4.43930E-03
  154.50      4.25790E-03
  155.50      4.25040E-03
  156.50      4.32520E-03
  157.50      4.31430E-03
  158.50      4.26860E-03
  159.50      4.24310E-03
  160.50      4.18510E-03
  161.50      4.15270E-03
  162.50      4.10290E-03
  163.50      4.01250E-03
  164.50      3.84180E-03
  165.50      4.05340E-03
  166.50      4.02780E-03
  167.20      3.97820E-03
  167.70      4.00140E-03
  168.50      3.97780E-03
  169.50      3.95090E-03
  170.50      3.91490E-03
  171.50      3.83590E-03
  172.50      3.82680E-03
  173.50      3.83720E-03
  174.50      3.80390E-03
  175.50      3.77220E-03
  176.50      3.74800E-03
  177.50      3.72360E-03
  178.50      3.69980E-03
  179.50      3.66820E-03
  180.50      3.64260E-03
  181.50      3.61670E-03
  182.50      3.58970E-03
  183.50      3.56510E-03
  184.50      3.53930E-03
  185.50      3.51170E-03
  186.50      3.48680E-03
  187.50      3.46040E-03
  188.50      3.43470E-03
  189.50      3.41510E-03
  190.50      3.39080E-03
  191.50      3.36560E-03
  192.50      3.32870E-03
  193.50      3.31950E-03
  194.50      3.29650E-03
  195.50      3.27160E-03
  196.70      3.24540E-03
  197.60      3.22330E-03
  198.40      3.20720E-03
  199.50      3.18190E-03
  200.50      3.16100E-03
  201.50      3.13910E-03
  202.50      3.11750E-03
  203.50      3.09590E-03
  204.50      3.07170E-03
  205.50      2.35970E-03
  206.50      2.27680E-03
  207.40      2.31200E-03
  207.80      2.35710E-03
  208.50      2.48240E-03
  209.50      2.75780E-03
  210.50      2.92860E-03
  211.50      2.93920E-03
  212.50      2.91850E-03
  213.50      2.89500E-03
  214.50      2.88100E-03
  215.50      2.90680E-03
  216.50      2.80560E-03
  217.50      2.89410E-03
  218.50      2.77250E-03
  219.50      2.85750E-03
  220.50      2.84550E-03
  221.50      2.71150E-03
  222.50      2.80850E-03
  223.50      2.79420E-03
  224.50      2.77040E-03
  225.50      2.64550E-03
  226.50      2.73820E-03
  227.50      2.72260E-03
  228.50      2.70130E-03
  229.50      2.67020E-03
  230.50      2.56540E-03
  231.50      2.64570E-03
  232.50      2.63570E-03
  233.50      2.61930E-03
  234.50      2.60230E-03
  235.50      2.58560E-03
  236.50      2.56920E-03
  237.50      2.55120E-03
  238.50      2.43680E-03
  239.50      2.51190E-03
  240.50      2.50300E-03
  241.50      2.48610E-03
  242.50      2.47430E-03
  243.50      2.45810E-03
  244.50      2.44340E-03
  245.50      2.42410E-03
  246.50      2.41330E-03
  247.50      2.39910E-03
  248.50      2.38390E-03
  249.50      2.31280E-03
  250.50      2.34100E-03
  251.30      2.16980E-03
  251.80      2.31690E-03
  252.50      2.32130E-03
  253.50      2.31280E-03
  254.50      2.29910E-03
  255.50      2.28490E-03
  256.50      2.27170E-03
  257.50      2.25820E-03
  258.50      2.24470E-03
  259.50      2.22530E-03
  260.50      2.21850E-03
  261.50      2.20290E-03
  262.50      2.19270E-03
  263.50      2.18000E-03
  264.50      2.16670E-03
  265.50      2.15460E-03
  266.50      2.14170E-03
  267.50      2.12600E-03
  268.50      2.11650E-03
  269.50      2.10400E-03
  270.50      2.09330E-03
  271.50      2.08110E-03
  272.50      2.06730E-03
  273.50      1.98740E-03
  274.50      2.04580E-03
  275.50      2.03420E-03
  276.50      2.02200E-03
  277.50      2.01110E-03
  278.50      1.99900E-03
  279.50      1.98710E-03
  280.50      1.97740E-03
  281.50      1.96660E-03
  282.50      1.95430E-03
  283.50      1.94450E-03
  284.50      1.93440E-03
  285.50      1.92380E-03
  286.50      1.91310E-03
  287.50      1.90260E-03
  288.50      1.89230E-03
  289.50      1.88170E-03
  291.00      1.86640E-03
  293.00      1.84640E-03
  295.00      1.82590E-03
  297.00      1.80640E-03
  299.00      1.78550E-03
  301.00      1.76770E-03
  303.00      1.74710E-03
  305.00      1.72950E-03
  307.00      1.71170E-03
  309.00      1.69570E-03
  311.00      1.67810E-03
  313.00      1.66030E-03
  315.00      1.64440E-03
  317.00      1.62740E-03
  319.00      1.60920E-03
  321.00      1.56730E-03
  323.00      1.57950E-03
  325.00      1.56380E-03
  327.00      1.54450E-03
  329.00      1.53250E-03
  331.00      1.51750E-03
  333.00      1.50280E-03
  335.00      1.48680E-03
  337.00      1.47390E-03
  339.00      1.45940E-03
  341.00      1.44510E-03
  343.00      1.43240E-03
  345.00      1.41750E-03
  347.00      1.40550E-03
  349.00      1.39230E-03
  351.00      1.37930E-03
  353.00      1.36600E-03
  355.00      1.35320E-03
  357.00      1.34130E-03
  359.00      1.32830E-03
  361.00      1.31650E-03
  363.00      1.30370E-03
  364.00      1.27260E-03
  365.00      1.16330E-03
  367.00      1.15440E-03
  369.00      1.14680E-03
  371.00      1.14430E-03
  373.00      1.14980E-03
  375.00      1.16220E-03
  377.00      1.17390E-03
  379.00      1.19310E-03
  381.00      1.21200E-03
  383.00      1.16280E-03
  385.00      1.20760E-03
  387.00      1.21440E-03
  389.00      1.11850E-03
  391.00      1.19800E-03
  393.00      1.18460E-03
  395.00      1.18020E-03
  397.00      1.07720E-03
  399.00      1.15850E-03
  401.00      1.15560E-03
  403.00      1.12490E-03
  405.00      1.13990E-03
  407.00      1.12830E-03
  409.00      1.08880E-03
  411.00      1.03260E-03
  413.00      1.09820E-03
  415.00      1.09220E-03
  417.00      1.08420E-03
  419.00      1.06830E-03
  421.00      1.04880E-03
  423.00      1.05780E-03
  425.00      1.04910E-03
  427.00      1.04050E-03
  429.00      1.03210E-03
  431.00      1.02150E-03
  433.00      9.80090E-04
  435.00      9.45410E-04
  437.00      9.96380E-04
  439.00      9.89160E-04
  441.00      9.83350E-04
  443.00      9.75610E-04
  445.00      9.68030E-04
  447.00      9.54180E-04
  449.00      9.52930E-04
  451.00      9.45480E-04
  453.00      9.35810E-04
  455.00      9.12150E-04
  457.00      9.23860E-04
  459.00      9.16810E-04
  461.00      9.09780E-04
  463.00      9.02300E-04
  465.00      8.94200E-04
  467.00      8.87910E-04
  469.00      8.51610E-04
  471.00      8.74760E-04
  473.00      8.69540E-04
  475.00      8.63080E-04
  477.00      8.56680E-04
  479.00      8.50350E-04
  481.00      8.44060E-04
  483.00      8.36200E-04
  485.00      8.09590E-04
  487.00      7.71550E-04
  489.00      8.16860E-04
  491.00      8.13790E-04
  493.00      8.05430E-04
  495.00      8.02210E-04
  497.00      7.96490E-04
  499.00      7.90830E-04
  501.00      7.84040E-04
  503.00      7.79660E-04
  505.00      7.73940E-04
  507.00      7.68750E-04
  509.00      7.63380E-04
  511.00      7.58060E-04
  513.00      7.52790E-04
  515.00      7.47580E-04
  517.00      7.42430E-04
  519.00      7.37330E-04
  521.00      7.32280E-04
  523.00      7.27280E-04
  525.00      7.22320E-04
  527.00      7.17340E-04
  529.00      7.12590E-04
  531.00      7.07800E-04
  533.00      7.03040E-04
  535.00      6.98350E-04
  537.00      6.93690E-04
  539.00      6.89070E-04
  541.00      6.70040E-04
  543.00      6.79660E-04
  545.00      6.75520E-04
  547.00      6.71090E-04
  549.00      6.66700E-04
  551.00      6.62300E-04
  553.00      6.58050E-04
  555.00      6.53790E-04
  557.00      6.49560E-04
  559.00      6.45070E-04
  561.00      6.41250E-04
  563.00      6.37150E-04
  565.00      6.33090E-04
  567.00      6.29070E-04
  569.00      6.17550E-04
  571.00      5.81390E-04
  573.00      5.78010E-04
  575.00      5.74650E-04
  577.00      5.71380E-04
  579.00      5.68270E-04
  581.00      5.65150E-04
  583.00      5.63120E-04
  585.00      5.61320E-04
  587.00      5.57420E-04
  589.00      5.58920E-04
  591.00      5.58390E-04
  593.00      5.58160E-04
  595.00      5.58370E-04
  597.00      5.58840E-04
  599.00      5.60050E-04
  601.00      5.59640E-04
  603.00      5.59360E-04
  605.00      5.58800E-04
  607.00      5.55470E-04
  609.00      5.52700E-04
  611.00      5.49780E-04
  613.00      5.46770E-04
  615.00      5.44350E-04
  617.00      5.39400E-04
  619.00      5.37750E-04
  621.00      5.34810E-04
  623.00      5.29740E-04
  625.00      5.28040E-04
  627.00      5.25520E-04
  629.00      5.22470E-04
  631.00      5.16680E-04
  633.00      5.16100E-04
  635.00      5.13510E-04
  637.00      5.10570E-04
  639.00      5.07270E-04
  641.00      5.01130E-04
  643.00      5.01810E-04
  645.00      4.99060E-04
  647.00      4.96240E-04
  649.00      4.93450E-04
  651.00      4.90020E-04
  653.00      4.82500E-04
  655.00      4.77480E-04
  657.00      4.50990E-04
  659.00      4.78170E-04
  661.00      4.77170E-04
  663.00      4.74540E-04
  665.00      4.71940E-04
  667.00      4.67370E-04
  669.00      4.60320E-04
  671.00      4.64130E-04
  673.00      4.61700E-04
  675.00      4.59190E-04
  677.00      4.56700E-04
  679.00      4.54240E-04
  681.00      4.51790E-04
  683.00      4.49360E-04
  685.00      4.46950E-04
  687.00      4.44550E-04
  689.00      4.35710E-04
  691.00      4.39360E-04
  693.00      4.37510E-04
  695.00      4.35200E-04
  697.00      4.32900E-04
  699.00      4.30620E-04
  701.00      4.28360E-04
  703.00      4.26100E-04
  705.00      4.23880E-04
  707.00      4.20520E-04
  709.00      4.19500E-04
  711.00      4.17330E-04
  713.00      4.15170E-04
  715.00      4.13030E-04
  717.00      4.06460E-04
  719.00      4.05930E-04
  721.00      4.06710E-04
  723.00      4.04640E-04
  725.00      4.02580E-04
  727.00      4.00540E-04
  729.00      3.98160E-04
  731.00      3.96480E-04
  733.00      3.94500E-04
  735.00      3.92520E-04
  737.00      3.90540E-04
  739.00      3.88600E-04
  741.00      3.86650E-04
  743.00      3.84740E-04
  745.00      3.82800E-04
  747.00      3.80930E-04
  749.00      3.79040E-04
  751.00      3.77180E-04
  753.00      3.75330E-04
  755.00      3.73490E-04
  757.00      3.71660E-04
  759.00      3.63360E-04
  761.00      3.67430E-04
  763.00      3.66270E-04
  765.00      3.64500E-04
  767.00      3.62740E-04
  769.00      3.60970E-04
  771.00      3.59250E-04
  773.00      3.57490E-04
  775.00      3.55820E-04
  777.00      3.54120E-04
  779.00      3.52440E-04
  781.00      3.50760E-04
  783.00      3.49100E-04
  785.00      3.47450E-04
  787.00      3.45820E-04
  789.00      3.44190E-04
  791.00      3.42580E-04
  793.00      3.40980E-04
  795.00      3.39390E-04
  797.00      3.37790E-04
  799.00      3.36230E-04
  801.00      3.34670E-04
  803.00      3.33120E-04
  805.00      3.31590E-04
  807.00      3.30060E-04
  809.00      3.28540E-04
  811.00      3.27030E-04
  813.00      3.25540E-04
  815.00      3.24050E-04
  817.00      3.22550E-04
  819.00      3.19770E-04
  821.00      3.07100E-04
  823.00      3.03870E-04
  825.00      3.03970E-04
  827.00      3.03150E-04
  829.00      3.01880E-04
  831.00      3.00600E-04
  833.00      2.99300E-04
  835.00      2.98030E-04
  837.00      2.96810E-04
  839.00      2.95600E-04
  841.00      2.94450E-04
  843.00      2.93300E-04
  845.00      2.92130E-04
  847.00      2.91120E-04
  849.00      2.90190E-04
  851.00      2.89200E-04
  853.00      2.88310E-04
  855.00      2.87260E-04
  857.00      2.86590E-04
  859.00      2.85440E-04
  861.00      2.84680E-04
  863.00      2.84330E-04
  865.00      2.83240E-04
  867.00      2.81620E-04
  869.00      2.82110E-04
  871.00      2.81720E-04
  873.00      2.80550E-04
  875.00      2.77380E-04
  877.00      2.78690E-04
  879.00      2.79310E-04
  881.00      2.78980E-04
  883.00      2.78140E-04
  885.00      2.74410E-04
  887.00      2.70290E-04
  889.00      2.74480E-04
  891.00      2.74900E-04
  893.00      2.74270E-04
  895.00      2.73480E-04
  897.00      2.72060E-04
  899.00      2.69310E-04
  901.00      2.61210E-04
  903.00      2.63180E-04
  905.00      2.66780E-04
  907.00      2.66520E-04
  909.00      2.65930E-04
  911.00      2.64590E-04
  913.00      2.64120E-04
  915.00      2.63070E-04
  917.00      2.61670E-04
  919.00      2.59790E-04
  921.00      2.55870E-04
  923.00      2.45930E-04
  925.00      2.53150E-04
  927.00      2.55440E-04
  929.00      2.55300E-04
  931.00      2.54500E-04
  933.00      2.53010E-04
  935.00      2.46600E-04
  937.00      2.50450E-04
  939.00      2.50380E-04
  941.00      2.49530E-04
  943.00      2.48530E-04
  945.00      2.47540E-04
  947.00      2.46440E-04
  949.00      2.45290E-04
  951.00      2.43190E-04
  953.00      2.38740E-04
  955.00      2.28840E-04
  957.00      2.38070E-04
  959.00      2.39770E-04
  961.00      2.39600E-04
  963.00      2.38770E-04
  965.00      2.37930E-04
  967.00      2.37010E-04
  969.00      2.36080E-04
  971.00      2.35110E-04
  973.00      2.34250E-04
  975.00      2.32930E-04
  977.00      2.31160E-04
  979.00      2.31530E-04
  981.00      2.30650E-04
  983.00      2.29760E-04
  985.00      2.28880E-04
  987.00      2.28000E-04
  989.00      2.27130E-04
  991.00      2.26260E-04
  993.00      2.25400E-04
  995.00      2.24540E-04
  997.00      2.23690E-04
  999.00      2.22700E-04
  1002.5      2.17420E-04
  1007.5      2.13820E-04
  1012.5      2.13630E-04
  1017.5      2.15220E-04
  1022.5      2.13230E-04
  1027.5      2.11260E-04
  1032.5      2.09220E-04
  1037.5      2.07420E-04
  1042.5      2.04490E-04
  1047.5      2.03670E-04
  1052.5      2.01840E-04
  1057.5      2.00030E-04
  1062.5      1.98250E-04
  1067.5      1.96470E-04
  1072.5      1.94750E-04
  1077.5      1.93030E-04
  1082.5      1.90980E-04
  1087.5      1.89410E-04
  1092.5      1.81470E-04
  1097.5      1.84460E-04
  1102.5      1.84710E-04
  1107.5      1.83190E-04
  1112.5      1.81630E-04
  1117.5      1.80180E-04
  1122.5      1.78650E-04
  1127.5      1.77150E-04
  1132.5      1.75660E-04
  1137.5      1.74190E-04
  1142.5      1.72740E-04
  1147.5      1.71300E-04
  1152.5      1.69880E-04
  1157.5      1.68480E-04
  1162.5      1.65210E-04
  1167.5      1.64380E-04
  1172.5      1.64390E-04
  1177.5      1.63060E-04
  1182.5      1.61740E-04
  1187.5      1.60440E-04
  1192.5      1.59160E-04
  1197.5      1.57750E-04
  1202.5      1.56630E-04
  1207.5      1.55390E-04
  1212.5      1.54170E-04
  1217.5      1.52960E-04
  1222.5      1.51760E-04
  1227.5      1.50580E-04
  1232.5      1.49410E-04
  1237.5      1.48250E-04
  1242.5      1.47110E-04
  1247.5      1.45980E-04
  1252.5      1.44850E-04
  1257.5      1.43760E-04
  1262.5      1.42670E-04
  1267.5      1.41590E-04
  1272.5      1.40520E-04
  1277.5      1.38660E-04
  1282.5      1.33060E-04
  1287.5      1.37020E-04
  1292.5      1.36380E-04
  1297.5      1.35330E-04
  1302.5      1.34380E-04
  1307.5      1.33390E-04
  1312.5      1.32410E-04
  1317.5      1.31450E-04
  1322.5      1.30500E-04
  1327.5      1.29550E-04
  1332.5      1.28620E-04
  1337.5      1.27690E-04
  1342.5      1.26780E-04
  1347.5      1.25880E-04
  1352.5      1.24980E-04
  1357.5      1.24100E-04
  1362.5      1.23220E-04
  1367.5      1.22360E-04
  1372.5      1.21500E-04
  1377.5      1.20650E-04
  1382.5      1.19810E-04
  1387.5      1.18980E-04
  1392.5      1.18160E-04
  1397.5      1.17340E-04
