 Castelli and Kurucz 2004-2012 Atmosphere
 T     39000.     G    4.00000 [-1.5a] N(He)/Ntot=0.0784 VTURB=2.0  L/H=1.25 OD
 Wavelength  Eddington Hnu
   (nm)    (ergs/s/cm2/Hz/sr)
  9.0900      4.54760E-25
  9.3500      1.73850E-24
  9.6100      6.21090E-24
  9.7700      1.32110E-23
  9.9600      3.14040E-23
  10.200      8.98420E-23
  10.380      1.92100E-22
  10.560      4.01300E-22
  10.770      9.20420E-22
  11.040      2.56310E-21
  11.400      9.36180E-21
  11.780      3.39920E-20
  12.130      1.04400E-19
  12.480      3.02530E-19
  12.710      5.91360E-19
  12.840      8.55350E-19
  13.050      1.53070E-18
  13.240      2.55500E-18
  13.390      3.79420E-18
  13.660      7.58370E-18
  13.980      1.67260E-17
  14.330      3.82980E-17
  14.720      9.22480E-17
  15.100      2.10240E-16
  15.520      4.99690E-16
  15.880      1.01670E-15
  16.200      1.86870E-15
  16.600      3.88550E-15
  17.030      8.23740E-15
  17.340      1.38730E-14
  17.680      2.41360E-14
  18.020      4.11740E-14
  18.170      5.17140E-14
  18.610      9.98210E-14
  19.100      2.00460E-13
  19.390      2.98260E-13
  19.840      5.40950E-13
  20.180      8.34070E-13
  20.500      1.23850E-12
  21.050      2.38130E-12
  21.620      4.52700E-12
  21.980      6.69000E-12
  22.300      9.36800E-12
  22.680      1.37810E-11
  23.000      7.47650E-09
  23.400      3.41890E-08
  24.000      8.63350E-08
  24.650      7.94410E-07
  25.240      3.20100E-06
  25.680      2.35160E-06
  26.000      8.16600E-06
  26.400      1.96190E-05
  26.850      2.96390E-05
  27.350      3.79900E-05
  27.850      3.38770E-05
  28.400      5.82360E-05
  29.000      7.01330E-05
  29.600      4.65670E-05
  30.100      6.53620E-06
  30.800      2.65160E-05
  31.800      4.62490E-05
  32.800      6.28530E-05
  33.800      5.83640E-05
  34.800      6.58140E-05
  35.700      1.13590E-04
  36.600      1.62280E-04
  37.500      1.87750E-04
  38.500      1.89080E-04
  39.500      2.41910E-04
  40.500      2.88710E-04
  41.400      3.07300E-04
  42.200      3.07790E-04
  43.000      3.06190E-04
  44.100      3.51460E-04
  45.100      3.75990E-04
  46.000      3.68920E-04
  47.000      3.83370E-04
  48.000      4.16180E-04
  49.000      3.88430E-04
  50.000      4.58150E-04
  50.600      4.79170E-04
  51.200      7.16890E-04
  52.000      7.07320E-04
  53.000      6.99450E-04
  54.000      6.64980E-04
  55.000      6.37290E-04
  56.000      7.86290E-04
  57.000      8.46140E-04
  58.000      8.45640E-04
  59.000      8.85680E-04
  60.000      8.46880E-04
  61.000      8.34480E-04
  62.000      9.60520E-04
  63.000      9.57810E-04
  64.000      1.01580E-03
  65.000      1.00810E-03
  65.800      9.66940E-04
  66.500      1.04690E-03
  67.500      1.09530E-03
  68.500      1.05650E-03
  69.500      1.12820E-03
  70.500      1.06170E-03
  71.600      1.17850E-03
  72.600      1.20660E-03
  73.500      1.22750E-03
  74.500      1.22030E-03
  75.500      1.22710E-03
  76.500      1.22200E-03
  77.500      1.26840E-03
  78.500      1.24740E-03
  79.500      1.29690E-03
  80.500      1.31230E-03
  81.500      1.33980E-03
  82.500      1.36500E-03
  83.500      1.29080E-03
  84.500      1.38630E-03
  85.500      1.38250E-03
  86.500      1.42370E-03
  87.500      1.44330E-03
  88.500      1.45010E-03
  89.500      1.46220E-03
  90.500      1.45860E-03
  91.500      1.26490E-03
  92.500      2.29840E-03
  93.500      2.88490E-03
  94.500      3.26420E-03
  95.500      3.51550E-03
  96.500      3.75770E-03
  97.500      3.19120E-03
  98.500      3.65500E-03
  99.500      3.51080E-03
  100.50      3.61930E-03
  101.50      3.67370E-03
  102.50      3.30260E-03
  103.50      3.68390E-03
  104.50      3.71530E-03
  105.50      3.70710E-03
  106.50      3.62620E-03
  107.50      3.64240E-03
  108.50      3.55280E-03
  109.50      3.65580E-03
  110.50      3.61860E-03
  111.50      3.59040E-03
  112.50      3.51340E-03
  113.50      3.59130E-03
  114.50      3.57880E-03
  115.50      3.52760E-03
  116.50      3.51590E-03
  117.50      3.28780E-03
  118.50      3.46650E-03
  119.50      3.44990E-03
  120.50      3.44320E-03
  121.50      3.04470E-03
  122.50      3.42120E-03
  123.50      3.38950E-03
  124.50      3.36080E-03
  125.50      3.39260E-03
  126.50      3.38050E-03
  127.50      3.36900E-03
  128.50      3.35600E-03
  129.50      3.33220E-03
  130.50      3.30800E-03
  131.50      3.30080E-03
  132.50      3.27510E-03
  133.50      3.26740E-03
  134.50      3.25650E-03
  135.50      3.21990E-03
  136.50      3.18220E-03
  137.50      3.14450E-03
  138.50      3.15700E-03
  139.50      3.09850E-03
  140.50      3.04630E-03
  141.50      3.11850E-03
  142.50      3.07580E-03
  143.50      3.08570E-03
  144.20      3.05350E-03
  144.70      3.04990E-03
  145.50      3.02620E-03
  146.50      3.01800E-03
  147.50      3.01000E-03
  148.50      3.01400E-03
  149.50      2.98550E-03
  150.50      2.98060E-03
  151.20      2.97890E-03
  151.70      2.95400E-03
  152.50      2.94400E-03
  153.50      2.88850E-03
  154.50      2.76340E-03
  155.50      2.76940E-03
  156.50      2.82740E-03
  157.50      2.84080E-03
  158.50      2.82290E-03
  159.50      2.81070E-03
  160.50      2.76140E-03
  161.50      2.74620E-03
  162.50      2.71730E-03
  163.50      2.69280E-03
  164.50      2.59290E-03
  165.50      2.71400E-03
  166.50      2.69760E-03
  167.20      2.66190E-03
  167.70      2.70200E-03
  168.50      2.68620E-03
  169.50      2.67460E-03
  170.50      2.65200E-03
  171.50      2.60050E-03
  172.50      2.60120E-03
  173.50      2.62160E-03
  174.50      2.60130E-03
  175.50      2.58120E-03
  176.50      2.57370E-03
  177.50      2.56290E-03
  178.50      2.55060E-03
  179.50      2.53050E-03
  180.50      2.51900E-03
  181.50      2.50480E-03
  182.50      2.48910E-03
  183.50      2.47850E-03
  184.50      2.46320E-03
  185.50      2.44720E-03
  186.50      2.43240E-03
  187.50      2.41730E-03
  188.50      2.40460E-03
  189.50      2.39600E-03
  190.50      2.38280E-03
  191.50      2.36850E-03
  192.50      2.34370E-03
  193.50      2.34250E-03
  194.50      2.32940E-03
  195.50      2.31370E-03
  196.70      2.29960E-03
  197.60      2.28730E-03
  198.40      2.27800E-03
  199.50      2.26320E-03
  200.50      2.25130E-03
  201.50      2.23840E-03
  202.50      2.22560E-03
  203.50      2.21300E-03
  204.50      2.19780E-03
  205.50      1.74440E-03
  206.50      1.71180E-03
  207.40      1.77280E-03
  207.80      1.83040E-03
  208.50      1.98920E-03
  209.50      2.12910E-03
  210.50      2.12650E-03
  211.50      2.12480E-03
  212.50      2.11110E-03
  213.50      2.10010E-03
  214.50      2.09130E-03
  215.50      2.10890E-03
  216.50      2.05360E-03
  217.50      2.09170E-03
  218.50      2.03840E-03
  219.50      2.06900E-03
  220.50      2.05780E-03
  221.50      2.00450E-03
  222.50      2.03490E-03
  223.50      2.02400E-03
  224.50      2.01270E-03
  225.50      1.96250E-03
  226.50      1.99050E-03
  227.50      1.98000E-03
  228.50      1.96680E-03
  229.50      1.94250E-03
  230.50      1.91010E-03
  231.50      1.93510E-03
  232.50      1.92610E-03
  233.50      1.91580E-03
  234.50      1.90510E-03
  235.50      1.89480E-03
  236.50      1.88450E-03
  237.50      1.87370E-03
  238.50      1.82380E-03
  239.50      1.84800E-03
  240.50      1.84270E-03
  241.50      1.83170E-03
  242.50      1.82420E-03
  243.50      1.81380E-03
  244.50      1.80440E-03
  245.50      1.79200E-03
  246.50      1.78520E-03
  247.50      1.77610E-03
  248.50      1.76610E-03
  249.50      1.69130E-03
  250.50      1.74480E-03
  251.30      1.66050E-03
  251.80      1.72450E-03
  252.50      1.72680E-03
  253.50      1.72030E-03
  254.50      1.71140E-03
  255.50      1.70220E-03
  256.50      1.69350E-03
  257.50      1.68460E-03
  258.50      1.67590E-03
  259.50      1.66310E-03
  260.50      1.65870E-03
  261.50      1.64860E-03
  262.50      1.64170E-03
  263.50      1.63340E-03
  264.50      1.62450E-03
  265.50      1.61650E-03
  266.50      1.60780E-03
  267.50      1.59720E-03
  268.50      1.59120E-03
  269.50      1.58280E-03
  270.50      1.57580E-03
  271.50      1.56760E-03
  272.50      1.55900E-03
  273.50      1.52060E-03
  274.50      1.54410E-03
  275.50      1.53620E-03
  276.50      1.52770E-03
  277.50      1.52060E-03
  278.50      1.51240E-03
  279.50      1.50400E-03
  280.50      1.49780E-03
  281.50      1.49040E-03
  282.50      1.48170E-03
  283.50      1.47550E-03
  284.50      1.46870E-03
  285.50      1.46140E-03
  286.50      1.45420E-03
  287.50      1.44700E-03
  288.50      1.44000E-03
  289.50      1.43280E-03
  291.00      1.42220E-03
  293.00      1.40860E-03
  295.00      1.39410E-03
  297.00      1.38090E-03
  299.00      1.36610E-03
  301.00      1.35400E-03
  303.00      1.33920E-03
  305.00      1.32710E-03
  307.00      1.31540E-03
  309.00      1.30380E-03
  311.00      1.29140E-03
  313.00      1.27900E-03
  315.00      1.26810E-03
  317.00      1.25610E-03
  319.00      1.24330E-03
  321.00      1.21880E-03
  323.00      1.22220E-03
  325.00      1.21110E-03
  327.00      1.19690E-03
  329.00      1.18880E-03
  331.00      1.17800E-03
  333.00      1.16760E-03
  335.00      1.15590E-03
  337.00      1.14690E-03
  339.00      1.13670E-03
  341.00      1.12640E-03
  343.00      1.11720E-03
  345.00      1.10630E-03
  347.00      1.09780E-03
  349.00      1.08810E-03
  351.00      1.07870E-03
  353.00      1.06910E-03
  355.00      1.05980E-03
  357.00      1.05140E-03
  359.00      1.04160E-03
  361.00      1.03310E-03
  363.00      1.02360E-03
  364.00      1.00340E-03
  365.00      9.31010E-04
  367.00      9.24520E-04
  369.00      9.21560E-04
  371.00      9.23790E-04
  373.00      9.29740E-04
  375.00      9.46360E-04
  377.00      9.52930E-04
  379.00      9.59310E-04
  381.00      9.68540E-04
  383.00      9.33970E-04
  385.00      9.62750E-04
  387.00      9.61500E-04
  389.00      9.09200E-04
  391.00      9.49480E-04
  393.00      9.35100E-04
  395.00      9.34610E-04
  397.00      8.78360E-04
  399.00      9.19650E-04
  401.00      9.12990E-04
  403.00      8.94040E-04
  405.00      8.99570E-04
  407.00      8.92160E-04
  409.00      8.75260E-04
  411.00      8.37940E-04
  413.00      8.70810E-04
  415.00      8.63990E-04
  417.00      8.58170E-04
  419.00      8.50060E-04
  421.00      8.37160E-04
  423.00      8.38650E-04
  425.00      8.32200E-04
  427.00      8.25870E-04
  429.00      8.19650E-04
  431.00      8.13280E-04
  433.00      7.94410E-04
  435.00      7.69410E-04
  437.00      7.95080E-04
  439.00      7.87520E-04
  441.00      7.83270E-04
  443.00      7.77480E-04
  445.00      7.71870E-04
  447.00      7.61680E-04
  449.00      7.60550E-04
  451.00      7.54960E-04
  453.00      7.49190E-04
  455.00      7.36120E-04
  457.00      7.38730E-04
  459.00      7.33400E-04
  461.00      7.28110E-04
  463.00      7.22500E-04
  465.00      7.15840E-04
  467.00      7.12200E-04
  469.00      6.89030E-04
  471.00      7.01390E-04
  473.00      6.97740E-04
  475.00      6.92840E-04
  477.00      6.87990E-04
  479.00      6.83200E-04
  481.00      6.78440E-04
  483.00      6.73710E-04
  485.00      6.61870E-04
  487.00      6.34060E-04
  489.00      6.59810E-04
  491.00      6.55420E-04
  493.00      6.48850E-04
  495.00      6.46520E-04
  497.00      6.42170E-04
  499.00      6.37850E-04
  501.00      6.32330E-04
  503.00      6.29290E-04
  505.00      6.24810E-04
  507.00      6.20930E-04
  509.00      6.16820E-04
  511.00      6.12740E-04
  513.00      6.08690E-04
  515.00      6.04690E-04
  517.00      6.00730E-04
  519.00      5.96800E-04
  521.00      5.92910E-04
  523.00      5.89060E-04
  525.00      5.85230E-04
  527.00      5.81380E-04
  529.00      5.77730E-04
  531.00      5.74020E-04
  533.00      5.70340E-04
  535.00      5.66710E-04
  537.00      5.63100E-04
  539.00      5.59530E-04
  541.00      5.49310E-04
  543.00      5.52480E-04
  545.00      5.49020E-04
  547.00      5.45570E-04
  549.00      5.42170E-04
  551.00      5.38740E-04
  553.00      5.35440E-04
  555.00      5.32130E-04
  557.00      5.28830E-04
  559.00      5.25250E-04
  561.00      5.22360E-04
  563.00      5.19170E-04
  565.00      5.16000E-04
  567.00      5.12860E-04
  569.00      5.04720E-04
  571.00      4.80520E-04
  573.00      4.77800E-04
  575.00      4.75130E-04
  577.00      4.72610E-04
  579.00      4.70460E-04
  581.00      4.68740E-04
  583.00      4.67730E-04
  585.00      4.66900E-04
  587.00      4.63300E-04
  589.00      4.65790E-04
  591.00      4.65630E-04
  593.00      4.65830E-04
  595.00      4.66460E-04
  597.00      4.66390E-04
  599.00      4.65890E-04
  601.00      4.63810E-04
  603.00      4.61200E-04
  605.00      4.58930E-04
  607.00      4.55700E-04
  609.00      4.53790E-04
  611.00      4.50690E-04
  613.00      4.48130E-04
  615.00      4.46150E-04
  617.00      4.42240E-04
  619.00      4.41110E-04
  621.00      4.38630E-04
  623.00      4.34490E-04
  625.00      4.33530E-04
  627.00      4.31290E-04
  629.00      4.28880E-04
  631.00      4.24300E-04
  633.00      4.24120E-04
  635.00      4.21780E-04
  637.00      4.19450E-04
  639.00      4.17130E-04
  641.00      4.12230E-04
  643.00      4.12580E-04
  645.00      4.10330E-04
  647.00      4.08090E-04
  649.00      4.05880E-04
  651.00      4.03650E-04
  653.00      3.98280E-04
  655.00      3.96730E-04
  657.00      3.76760E-04
  659.00      3.94890E-04
  661.00      3.92940E-04
  663.00      3.90850E-04
  665.00      3.88780E-04
  667.00      3.85590E-04
  669.00      3.80440E-04
  671.00      3.82570E-04
  673.00      3.80620E-04
  675.00      3.78620E-04
  677.00      3.76640E-04
  679.00      3.74680E-04
  681.00      3.72720E-04
  683.00      3.70790E-04
  685.00      3.68860E-04
  687.00      3.66950E-04
  689.00      3.61710E-04
  691.00      3.63170E-04
  693.00      3.61320E-04
  695.00      3.59470E-04
  697.00      3.57630E-04
  699.00      3.55810E-04
  701.00      3.53990E-04
  703.00      3.52180E-04
  705.00      3.50400E-04
  707.00      3.47290E-04
  709.00      3.46900E-04
  711.00      3.45150E-04
  713.00      3.43420E-04
  715.00      3.41710E-04
  717.00      3.37740E-04
  719.00      3.37280E-04
  721.00      3.36630E-04
  723.00      3.34970E-04
  725.00      3.33310E-04
  727.00      3.31670E-04
  729.00      3.29560E-04
  731.00      3.28400E-04
  733.00      3.26820E-04
  735.00      3.25220E-04
  737.00      3.23630E-04
  739.00      3.22070E-04
  741.00      3.20500E-04
  743.00      3.18960E-04
  745.00      3.17400E-04
  747.00      3.15890E-04
  749.00      3.14360E-04
  751.00      3.12860E-04
  753.00      3.11380E-04
  755.00      3.09890E-04
  757.00      3.08420E-04
  759.00      3.03870E-04
  761.00      3.05450E-04
  763.00      3.04060E-04
  765.00      3.02630E-04
  767.00      3.01210E-04
  769.00      2.99770E-04
  771.00      2.98390E-04
  773.00      2.96960E-04
  775.00      2.95620E-04
  777.00      2.94250E-04
  779.00      2.92880E-04
  781.00      2.91520E-04
  783.00      2.90180E-04
  785.00      2.88850E-04
  787.00      2.87540E-04
  789.00      2.86220E-04
  791.00      2.84910E-04
  793.00      2.83610E-04
  795.00      2.82320E-04
  797.00      2.81020E-04
  799.00      2.79770E-04
  801.00      2.78500E-04
  803.00      2.77240E-04
  805.00      2.76000E-04
  807.00      2.74760E-04
  809.00      2.73520E-04
  811.00      2.72300E-04
  813.00      2.71090E-04
  815.00      2.69880E-04
  817.00      2.68660E-04
  819.00      2.66590E-04
  821.00      2.57800E-04
  823.00      2.55520E-04
  825.00      2.55490E-04
  827.00      2.54520E-04
  829.00      2.53510E-04
  831.00      2.52460E-04
  833.00      2.51390E-04
  835.00      2.50320E-04
  837.00      2.49400E-04
  839.00      2.48470E-04
  841.00      2.47630E-04
  843.00      2.46800E-04
  845.00      2.45900E-04
  847.00      2.45150E-04
  849.00      2.44450E-04
  851.00      2.43550E-04
  853.00      2.43050E-04
  855.00      2.41790E-04
  857.00      2.41920E-04
  859.00      2.40300E-04
  861.00      2.39640E-04
  863.00      2.40250E-04
  865.00      2.39060E-04
  867.00      2.35890E-04
  869.00      2.38540E-04
  871.00      2.38420E-04
  873.00      2.37250E-04
  875.00      2.31240E-04
  877.00      2.35260E-04
  879.00      2.36080E-04
  881.00      2.35360E-04
  883.00      2.34480E-04
  885.00      2.30790E-04
  887.00      2.24710E-04
  889.00      2.31140E-04
  891.00      2.31140E-04
  893.00      2.29920E-04
  895.00      2.29320E-04
  897.00      2.28410E-04
  899.00      2.26460E-04
  901.00      2.18110E-04
  903.00      2.21380E-04
  905.00      2.24320E-04
  907.00      2.23480E-04
  909.00      2.22800E-04
  911.00      2.21540E-04
  913.00      2.21100E-04
  915.00      2.20210E-04
  917.00      2.19270E-04
  919.00      2.18360E-04
  921.00      2.15730E-04
  923.00      2.06310E-04
  925.00      2.13860E-04
  927.00      2.14840E-04
  929.00      2.14130E-04
  931.00      2.13210E-04
  933.00      2.12420E-04
  935.00      2.08550E-04
  937.00      2.09900E-04
  939.00      2.09930E-04
  941.00      2.09110E-04
  943.00      2.08300E-04
  945.00      2.07480E-04
  947.00      2.06560E-04
  949.00      2.05870E-04
  951.00      2.04590E-04
  953.00      2.01980E-04
  955.00      1.93230E-04
  957.00      2.01380E-04
  959.00      2.01880E-04
  961.00      2.01100E-04
  963.00      2.00270E-04
  965.00      1.99600E-04
  967.00      1.98830E-04
  969.00      1.98070E-04
  971.00      1.97200E-04
  973.00      1.96560E-04
  975.00      1.95690E-04
  977.00      1.93990E-04
  979.00      1.94340E-04
  981.00      1.93610E-04
  983.00      1.92870E-04
  985.00      1.92150E-04
  987.00      1.91430E-04
  989.00      1.90710E-04
  991.00      1.90000E-04
  993.00      1.89290E-04
  995.00      1.88580E-04
  997.00      1.87880E-04
  999.00      1.87180E-04
  1002.5      1.83910E-04
  1007.5      1.80990E-04
  1012.5      1.80410E-04
  1017.5      1.80900E-04
  1022.5      1.79250E-04
  1027.5      1.77630E-04
  1032.5      1.75890E-04
  1037.5      1.74460E-04
  1042.5      1.72300E-04
  1047.5      1.71370E-04
  1052.5      1.69850E-04
  1057.5      1.68360E-04
  1062.5      1.66880E-04
  1067.5      1.65400E-04
  1072.5      1.63990E-04
  1077.5      1.62570E-04
  1082.5      1.60700E-04
  1087.5      1.59780E-04
  1092.5      1.54190E-04
  1097.5      1.56400E-04
  1102.5      1.55660E-04
  1107.5      1.54420E-04
  1112.5      1.53130E-04
  1117.5      1.51910E-04
  1122.5      1.50640E-04
  1127.5      1.49390E-04
  1132.5      1.48160E-04
  1137.5      1.46940E-04
  1142.5      1.45730E-04
  1147.5      1.44540E-04
  1152.5      1.43370E-04
  1157.5      1.42200E-04
  1162.5      1.40090E-04
  1167.5      1.39300E-04
  1172.5      1.38800E-04
  1177.5      1.37700E-04
  1182.5      1.36600E-04
  1187.5      1.35520E-04
  1192.5      1.34450E-04
  1197.5      1.33190E-04
  1202.5      1.32350E-04
  1207.5      1.31320E-04
  1212.5      1.30300E-04
  1217.5      1.29300E-04
  1222.5      1.28300E-04
  1227.5      1.27320E-04
  1232.5      1.26340E-04
  1237.5      1.25380E-04
  1242.5      1.24430E-04
  1247.5      1.23490E-04
  1252.5      1.22530E-04
  1257.5      1.21640E-04
  1262.5      1.20730E-04
  1267.5      1.19830E-04
  1272.5      1.18940E-04
  1277.5      1.17630E-04
  1282.5      1.13820E-04
  1287.5      1.16250E-04
  1292.5      1.15480E-04
  1297.5      1.14550E-04
  1302.5      1.13810E-04
  1307.5      1.12980E-04
  1312.5      1.12170E-04
  1317.5      1.11360E-04
  1322.5      1.10570E-04
  1327.5      1.09780E-04
  1332.5      1.09000E-04
  1337.5      1.08220E-04
  1342.5      1.07450E-04
  1347.5      1.06700E-04
  1352.5      1.05960E-04
  1357.5      1.05220E-04
  1362.5      1.04480E-04
  1367.5      1.03760E-04
  1372.5      1.03040E-04
  1377.5      1.02330E-04
  1382.5      1.01630E-04
  1387.5      1.00930E-04
  1392.5      1.00240E-04
  1397.5      9.95610E-05
