 TLUSTY Ostars, Lanz & Hubeny 2003
 T 32500. G 4.00000 P00 TLUSTY,
 Frequency   Eddington Hnu
   (Hz)    (ergs/s/cm2/Hz/sr)
 6.67944E+16  4.67904E-57
 6.67573E+16  4.90853E-57
 6.67202E+16  5.23240E-57
 6.66831E+16  5.57765E-57
 6.66461E+16  5.94568E-57
 6.66091E+16  6.33799E-57
 6.65721E+16  6.75618E-57
 6.65351E+16  7.20197E-57
 6.64982E+16  7.67717E-57
 6.64612E+16  8.18373E-57
 6.64243E+16  8.72371E-57
 6.63874E+16  9.29932E-57
 6.63506E+16  9.91291E-57
 6.63137E+16  1.05670E-56
 6.62769E+16  1.12642E-56
 6.62401E+16  1.20075E-56
 6.62033E+16  1.27997E-56
 6.61665E+16  1.36443E-56
 6.61298E+16  1.45446E-56
 6.60930E+16  1.55043E-56
 6.60563E+16  1.65273E-56
 6.60196E+16  1.76178E-56
 6.59830E+16  1.87802E-56
 6.59463E+16  2.00194E-56
 6.59097E+16  2.13403E-56
 6.58731E+16  2.27484E-56
 6.58365E+16  2.42494E-56
 6.57999E+16  2.58494E-56
 6.57634E+16  2.75550E-56
 6.57269E+16  2.93732E-56
 6.56904E+16  3.13113E-56
 6.56539E+16  3.33773E-56
 6.56174E+16  3.55796E-56
 6.55810E+16  3.79272E-56
 6.55445E+16  4.04297E-56
 6.55081E+16  4.30974E-56
 6.54718E+16  4.59411E-56
 6.54354E+16  4.89724E-56
 6.53991E+16  5.22037E-56
 6.53627E+16  5.56482E-56
 6.53264E+16  5.93200E-56
 6.52901E+16  6.32340E-56
 6.52539E+16  6.74064E-56
 6.52176E+16  7.18540E-56
 6.51814E+16  7.65951E-56
 6.51452E+16  8.16490E-56
 6.51090E+16  8.70364E-56
 6.50729E+16  9.27793E-56
 6.50367E+16  9.89010E-56
 6.50006E+16  1.05427E-55
 6.49645E+16  1.12383E-55
 6.49284E+16  1.19798E-55
 6.48924E+16  1.27703E-55
 6.48563E+16  1.36129E-55
 6.48203E+16  1.45111E-55
 6.47843E+16  1.54686E-55
 6.47483E+16  1.64892E-55
 6.47124E+16  1.75772E-55
 6.46764E+16  1.87370E-55
 6.46405E+16  1.99733E-55
 6.46046E+16  2.12912E-55
 6.45687E+16  2.26961E-55
 6.45329E+16  2.41936E-55
 6.44970E+16  2.57900E-55
 6.44612E+16  2.74916E-55
 6.44254E+16  2.93056E-55
 6.43896E+16  3.12393E-55
 6.43539E+16  3.33005E-55
 6.43181E+16  3.54977E-55
 6.42824E+16  3.78238E-55
 6.42467E+16  4.02218E-55
 6.42110E+16  4.27741E-55
 6.41753E+16  4.54883E-55
 6.41397E+16  4.83747E-55
 6.41041E+16  5.14443E-55
 6.40685E+16  5.47087E-55
 6.40329E+16  5.81802E-55
 6.39973E+16  6.18720E-55
 6.39618E+16  6.57981E-55
 6.39263E+16  6.99733E-55
 6.38908E+16  7.44134E-55
 6.38553E+16  7.91353E-55
 6.38198E+16  8.41568E-55
 6.37844E+16  8.94969E-55
 6.37489E+16  9.51759E-55
 6.37135E+16  1.01215E-54
 6.36781E+16  1.07638E-54
 6.36428E+16  1.14468E-54
 6.36074E+16  1.21731E-54
 6.35721E+16  1.29456E-54
 6.35368E+16  1.37670E-54
 6.35015E+16  1.46406E-54
 6.34662E+16  1.55696E-54
 6.34310E+16  1.65576E-54
 6.33958E+16  1.76082E-54
 6.33605E+16  1.87256E-54
 6.33254E+16  1.99138E-54
 6.32902E+16  2.11774E-54
 6.32550E+16  2.25212E-54
 6.32199E+16  2.39503E-54
 6.31848E+16  2.54700E-54
 6.31497E+16  2.70862E-54
 6.31146E+16  2.88050E-54
 6.30796E+16  3.06328E-54
 6.30445E+16  3.25766E-54
 6.30095E+16  3.46437E-54
 6.29745E+16  3.68420E-54
 6.29395E+16  3.91798E-54
 6.29046E+16  4.16659E-54
 6.28697E+16  4.43098E-54
 6.28347E+16  4.71215E-54
 6.27998E+16  5.01115E-54
 6.27650E+16  5.32913E-54
 6.27301E+16  5.66729E-54
 6.26953E+16  6.02691E-54
 6.26604E+16  6.40934E-54
 6.26256E+16  6.81604E-54
 6.25909E+16  7.24855E-54
 6.25561E+16  7.70851E-54
 6.25213E+16  8.19765E-54
 6.24866E+16  8.71782E-54
 6.24519E+16  9.27101E-54
 6.24172E+16  9.85930E-54
 6.23826E+16  1.04849E-53
 6.23479E+16  1.11502E-53
 6.23133E+16  1.18578E-53
 6.22787E+16  1.26102E-53
 6.22441E+16  1.34104E-53
 6.22095E+16  1.42613E-53
 6.21750E+16  1.51663E-53
 6.21404E+16  1.61286E-53
 6.21059E+16  1.71521E-53
 6.20714E+16  1.82404E-53
 6.20370E+16  1.93979E-53
 6.20025E+16  2.06288E-53
 6.19681E+16  2.19377E-53
 6.19337E+16  2.33298E-53
 6.18993E+16  2.48102E-53
 6.18649E+16  2.63845E-53
 6.18305E+16  2.80587E-53
 6.17962E+16  2.98427E-53
 6.17619E+16  3.16821E-53
 6.17276E+16  3.36122E-53
 6.16933E+16  3.56599E-53
 6.16590E+16  3.78324E-53
 6.16248E+16  4.01373E-53
 6.15905E+16  4.25825E-53
 6.15563E+16  4.51768E-53
 6.15221E+16  4.79290E-53
 6.14880E+16  5.08490E-53
 6.14538E+16  5.39468E-53
 6.14197E+16  5.72334E-53
 6.13856E+16  6.07202E-53
 6.13515E+16  6.44194E-53
 6.13174E+16  6.83440E-53
 6.12834E+16  7.25077E-53
 6.12493E+16  7.69250E-53
 6.12153E+16  8.16115E-53
 6.11813E+16  8.65834E-53
 6.11473E+16  9.18583E-53
 6.11134E+16  9.74545E-53
 6.10794E+16  1.03392E-52
 6.10455E+16  1.09691E-52
 6.10116E+16  1.16373E-52
 6.09777E+16  1.23463E-52
 6.09438E+16  1.30985E-52
 6.09100E+16  1.38964E-52
 6.08762E+16  1.47431E-52
 6.08423E+16  1.56412E-52
 6.08086E+16  1.65941E-52
 6.07748E+16  1.76051E-52
 6.07410E+16  1.86776E-52
 6.07073E+16  1.98155E-52
 6.06736E+16  2.10227E-52
 6.06399E+16  2.23035E-52
 6.06062E+16  2.36623E-52
 6.05725E+16  2.51038E-52
 6.05389E+16  2.66332E-52
 6.05053E+16  2.82558E-52
 6.04717E+16  2.99772E-52
 6.04381E+16  3.18035E-52
 6.04045E+16  3.37410E-52
 6.03710E+16  3.57966E-52
 6.03374E+16  3.79774E-52
 6.03039E+16  4.02911E-52
 6.02704E+16  4.27457E-52
 6.02370E+16  4.53499E-52
 6.02035E+16  4.81127E-52
 6.01701E+16  5.10438E-52
 6.01366E+16  5.41535E-52
 6.01032E+16  5.74527E-52
 6.00699E+16  6.09529E-52
 6.00365E+16  6.46663E-52
 6.00032E+16  6.86059E-52
 5.99698E+16  7.27855E-52
 5.99365E+16  7.72198E-52
 5.99032E+16  8.19242E-52
 5.98700E+16  8.69152E-52
 5.98367E+16  9.22103E-52
 5.98035E+16  9.78280E-52
 5.97703E+16  1.03788E-51
 5.97371E+16  1.10111E-51
 5.97039E+16  1.16819E-51
 5.96707E+16  1.23936E-51
 5.96376E+16  1.31486E-51
 5.96045E+16  1.39497E-51
 5.95714E+16  1.47995E-51
 5.95383E+16  1.57012E-51
 5.95052E+16  1.66577E-51
 5.94722E+16  1.76726E-51
 5.94391E+16  1.87492E-51
 5.94061E+16  1.98915E-51
 5.93731E+16  2.11033E-51
 5.93402E+16  2.23889E-51
 5.93072E+16  2.37529E-51
 5.92743E+16  2.51897E-51
 5.92413E+16  2.66603E-51
 5.92084E+16  2.82170E-51
 5.91755E+16  2.98646E-51
 5.91427E+16  3.16085E-51
 5.91098E+16  3.34541E-51
 5.90770E+16  3.54075E-51
 5.90442E+16  3.74750E-51
 5.90114E+16  3.96631E-51
 5.89786E+16  4.19791E-51
 5.89459E+16  4.44303E-51
 5.89131E+16  4.70246E-51
 5.88804E+16  4.97703E-51
 5.88477E+16  5.26765E-51
 5.88150E+16  5.57523E-51
 5.87824E+16  5.90077E-51
 5.87497E+16  6.24532E-51
 5.87171E+16  6.60998E-51
 5.86845E+16  6.99594E-51
 5.86519E+16  7.40444E-51
 5.86193E+16  7.83679E-51
 5.85867E+16  8.29438E-51
 5.85542E+16  8.77869E-51
 5.85217E+16  9.29129E-51
 5.84892E+16  9.83381E-51
 5.84567E+16  1.04080E-50
 5.84242E+16  1.10157E-50
 5.83918E+16  1.16590E-50
 5.83594E+16  1.23397E-50
 5.83269E+16  1.30602E-50
 5.82945E+16  1.38228E-50
 5.82622E+16  1.46300E-50
 5.82298E+16  1.54842E-50
 5.81975E+16  1.63883E-50
 5.81651E+16  1.73453E-50
 5.81328E+16  1.83581E-50
 5.81006E+16  1.94300E-50
 5.80683E+16  2.05645E-50
 5.80360E+16  2.17653E-50
 5.80038E+16  2.30362E-50
 5.79716E+16  2.43813E-50
 5.79394E+16  2.58049E-50
 5.79072E+16  2.73117E-50
 5.78750E+16  2.89064E-50
 5.78429E+16  3.05943E-50
 5.78108E+16  3.23807E-50
 5.77787E+16  3.42714E-50
 5.77466E+16  3.62725E-50
 5.77145E+16  3.83905E-50
 5.76825E+16  4.06321E-50
 5.76504E+16  4.30047E-50
 5.76184E+16  4.55157E-50
 5.75864E+16  4.81734E-50
 5.75544E+16  5.09863E-50
 5.75224E+16  5.39634E-50
 5.74905E+16  5.71144E-50
 5.74586E+16  6.04493E-50
 5.74267E+16  6.39790E-50
 5.73948E+16  6.77147E-50
 5.73629E+16  7.16686E-50
 5.73310E+16  7.58534E-50
 5.72992E+16  8.02825E-50
 5.72674E+16  8.49702E-50
 5.72356E+16  8.99317E-50
 5.72038E+16  9.51828E-50
 5.71720E+16  1.00741E-49
 5.71402E+16  1.06623E-49
 5.71085E+16  1.12849E-49
 5.70768E+16  1.19438E-49
 5.70451E+16  1.26412E-49
 5.70134E+16  1.33793E-49
 5.69817E+16  1.41605E-49
 5.69501E+16  1.49874E-49
 5.69185E+16  1.58625E-49
 5.68869E+16  1.67887E-49
 5.68553E+16  1.77690E-49
 5.68237E+16  1.88066E-49
 5.67921E+16  1.99047E-49
 5.67606E+16  2.10461E-49
 5.67291E+16  2.22191E-49
 5.66975E+16  2.34603E-49
 5.66661E+16  2.47708E-49
 5.66346E+16  2.61545E-49
 5.66031E+16  2.76156E-49
 5.65717E+16  2.91582E-49
 5.65403E+16  3.07871E-49
 5.65089E+16  3.25069E-49
 5.64775E+16  3.43228E-49
 5.64461E+16  3.62401E-49
 5.64148E+16  3.82645E-49
 5.63834E+16  4.04020E-49
 5.63521E+16  4.26590E-49
 5.63208E+16  4.50420E-49
 5.62895E+16  4.75581E-49
 5.62583E+16  5.02147E-49
 5.62270E+16  5.30198E-49
 5.61958E+16  5.59816E-49
 5.61646E+16  5.91088E-49
 5.61334E+16  6.24107E-49
 5.61022E+16  6.58971E-49
 5.60711E+16  6.95782E-49
 5.60399E+16  7.34650E-49
 5.60088E+16  7.75688E-49
 5.59777E+16  8.19020E-49
 5.59466E+16  8.64771E-49
 5.59155E+16  9.13079E-49
 5.58845E+16  9.64085E-49
 5.58534E+16  1.01794E-48
 5.58224E+16  1.07480E-48
 5.57914E+16  1.13484E-48
 5.57604E+16  1.19824E-48
 5.57295E+16  1.26517E-48
 5.56985E+16  1.33585E-48
 5.56676E+16  1.41047E-48
 5.56367E+16  1.48926E-48
 5.56058E+16  1.57246E-48
 5.55749E+16  1.66030E-48
 5.55440E+16  1.75304E-48
 5.55132E+16  1.85097E-48
 5.54823E+16  1.95437E-48
 5.54515E+16  2.06354E-48
 5.54207E+16  2.17882E-48
 5.53899E+16  2.30053E-48
 5.53592E+16  2.42904E-48
 5.53284E+16  2.56473E-48
 5.52977E+16  2.70800E-48
 5.52670E+16  2.85927E-48
 5.52363E+16  3.01900E-48
 5.52056E+16  3.18764E-48
 5.51749E+16  3.36571E-48
 5.51443E+16  3.55372E-48
 5.51137E+16  3.75224E-48
 5.50831E+16  3.96185E-48
 5.50525E+16  4.18316E-48
 5.50219E+16  4.41684E-48
 5.49913E+16  4.66357E-48
 5.49608E+16  4.92409E-48
 5.49303E+16  5.19915E-48
 5.48998E+16  5.48959E-48
 5.48693E+16  5.79624E-48
 5.48388E+16  6.12003E-48
 5.48083E+16  6.46191E-48
 5.47779E+16  6.82288E-48
 5.47475E+16  7.20402E-48
 5.47171E+16  7.60645E-48
 5.46867E+16  8.03135E-48
 5.46563E+16  8.48000E-48
 5.46259E+16  8.95371E-48
 5.45956E+16  9.45387E-48
 5.45653E+16  9.98198E-48
 5.45350E+16  1.05396E-47
 5.45047E+16  1.11284E-47
 5.44744E+16  1.17500E-47
 5.44442E+16  1.24064E-47
 5.44139E+16  1.30994E-47
 5.43837E+16  1.38312E-47
 5.43535E+16  1.46038E-47
 5.43233E+16  1.54196E-47
 5.42931E+16  1.62810E-47
 5.42630E+16  1.71809E-47
 5.42328E+16  1.80967E-47
 5.42027E+16  1.90620E-47
 5.41726E+16  2.00788E-47
 5.41425E+16  2.11499E-47
 5.41125E+16  2.22780E-47
 5.40824E+16  2.34664E-47
 5.40524E+16  2.47181E-47
 5.40224E+16  2.60366E-47
 5.39923E+16  2.74255E-47
 5.39624E+16  2.88884E-47
 5.39324E+16  3.04293E-47
 5.39024E+16  3.20525E-47
 5.38725E+16  3.37622E-47
 5.38426E+16  3.55632E-47
 5.38127E+16  3.74602E-47
 5.37828E+16  3.94584E-47
 5.37529E+16  4.15631E-47
 5.37231E+16  4.37802E-47
 5.36932E+16  4.61155E-47
 5.36634E+16  4.85754E-47
 5.36336E+16  5.11665E-47
 5.36038E+16  5.38958E-47
 5.35740E+16  5.67707E-47
 5.35443E+16  5.97989E-47
 5.35145E+16  6.29887E-47
 5.34848E+16  6.63486E-47
 5.34551E+16  6.98877E-47
 5.34254E+16  7.36157E-47
 5.33958E+16  7.75425E-47
 5.33661E+16  8.16787E-47
 5.33365E+16  8.60356E-47
 5.33068E+16  9.06249E-47
 5.32772E+16  9.54590E-47
 5.32476E+16  1.00551E-46
 5.32181E+16  1.05914E-46
 5.31885E+16  1.11564E-46
 5.31590E+16  1.17515E-46
 5.31294E+16  1.23784E-46
 5.30999E+16  1.30386E-46
 5.30704E+16  1.37341E-46
 5.30410E+16  1.44668E-46
 5.30115E+16  1.52384E-46
 5.29821E+16  1.60513E-46
 5.29526E+16  1.69075E-46
 5.29232E+16  1.78094E-46
 5.28938E+16  1.87593E-46
 5.28645E+16  1.97600E-46
 5.28351E+16  2.08140E-46
 5.28058E+16  2.19243E-46
 5.27764E+16  2.30938E-46
 5.27471E+16  2.43256E-46
 5.27178E+16  2.56232E-46
 5.26885E+16  2.69900E-46
 5.26593E+16  2.84297E-46
 5.26300E+16  2.99461E-46
 5.26008E+16  3.15435E-46
 5.25716E+16  3.32261E-46
 5.25424E+16  3.49984E-46
 5.25132E+16  3.68653E-46
 5.24840E+16  3.88318E-46
 5.24549E+16  4.09031E-46
 5.24258E+16  4.30850E-46
 5.23966E+16  4.53832E-46
 5.23675E+16  4.78040E-46
 5.23385E+16  5.03540E-46
 5.23094E+16  5.30399E-46
 5.22803E+16  5.58692E-46
 5.22513E+16  5.88493E-46
 5.22223E+16  6.19885E-46
 5.21933E+16  6.52950E-46
 5.21643E+16  6.87780E-46
 5.21353E+16  7.24467E-46
 5.21064E+16  7.63112E-46
 5.20774E+16  8.03817E-46
 5.20485E+16  8.46694E-46
 5.20196E+16  8.91858E-46
 5.19907E+16  9.39432E-46
 5.19618E+16  9.89542E-46
 5.19330E+16  1.04233E-45
 5.19041E+16  1.09793E-45
 5.18753E+16  1.15649E-45
 5.18465E+16  1.21818E-45
 5.18177E+16  1.28316E-45
 5.17889E+16  1.35161E-45
 5.17601E+16  1.42304E-45
 5.17314E+16  1.49540E-45
 5.17027E+16  1.57142E-45
 5.16739E+16  1.65131E-45
 5.16452E+16  1.73525E-45
 5.16166E+16  1.82347E-45
 5.15879E+16  1.91617E-45
 5.15592E+16  2.01358E-45
 5.15306E+16  2.11594E-45
 5.15020E+16  2.22351E-45
 5.14734E+16  2.33655E-45
 5.14448E+16  2.45533E-45
 5.14162E+16  2.58015E-45
 5.13877E+16  2.71132E-45
 5.13591E+16  2.84915E-45
 5.13306E+16  2.99400E-45
 5.13021E+16  3.14620E-45
 5.12736E+16  3.30615E-45
 5.12451E+16  3.47422E-45
 5.12167E+16  3.65084E-45
 5.11882E+16  3.83644E-45
 5.11598E+16  4.03147E-45
 5.11314E+16  4.23642E-45
 5.11030E+16  4.45178E-45
 5.10746E+16  4.67810E-45
 5.10462E+16  4.91592E-45
 5.10179E+16  5.16583E-45
 5.09895E+16  5.42844E-45
 5.09612E+16  5.70441E-45
 5.09329E+16  5.99440E-45
 5.09046E+16  6.29914E-45
 5.08764E+16  6.61937E-45
 5.08481E+16  6.95588E-45
 5.08199E+16  7.30949E-45
 5.07916E+16  7.68108E-45
 5.07634E+16  8.07157E-45
 5.07352E+16  8.48190E-45
 5.07071E+16  8.91309E-45
 5.06789E+16  9.36621E-45
 5.06507E+16  9.84236E-45
 5.06226E+16  1.03427E-44
 5.05945E+16  1.08685E-44
 5.05664E+16  1.14210E-44
 5.05383E+16  1.20016E-44
 5.05102E+16  1.26118E-44
 5.04822E+16  1.32529E-44
 5.04542E+16  1.39266E-44
 5.04261E+16  1.46346E-44
 5.03981E+16  1.53786E-44
 5.03701E+16  1.61604E-44
 5.03422E+16  1.69820E-44
 5.03142E+16  1.78453E-44
 5.02863E+16  1.87525E-44
 5.02583E+16  1.97058E-44
 5.02304E+16  2.07076E-44
 5.02025E+16  2.17603E-44
 5.01746E+16  2.28665E-44
 5.01468E+16  2.40290E-44
 5.01189E+16  2.52505E-44
 5.00911E+16  2.65342E-44
 5.00633E+16  2.78831E-44
 5.00354E+16  2.93006E-44
 5.00077E+16  3.07901E-44
 4.99799E+16  3.23554E-44
 4.99521E+16  3.40003E-44
 4.99244E+16  3.57287E-44
 4.98967E+16  3.75451E-44
 4.98689E+16  3.94538E-44
 4.98412E+16  4.14595E-44
 4.98136E+16  4.35671E-44
 4.97859E+16  4.57820E-44
 4.97582E+16  4.81094E-44
 4.97306E+16  5.05551E-44
 4.97030E+16  5.31252E-44
 4.96754E+16  5.58259E-44
 4.96478E+16  5.86639E-44
 4.96202E+16  6.16462E-44
 4.95927E+16  6.47801E-44
 4.95651E+16  6.80733E-44
 4.95376E+16  7.15340E-44
 4.95101E+16  7.51705E-44
 4.94826E+16  7.89920E-44
 4.94551E+16  8.30077E-44
 4.94276E+16  8.72275E-44
 4.94002E+16  9.16619E-44
 4.93727E+16  9.63217E-44
 4.93453E+16  1.01218E-43
 4.93179E+16  1.06364E-43
 4.92905E+16  1.11771E-43
 4.92631E+16  1.17441E-43
 4.92358E+16  1.23157E-43
 4.92084E+16  1.29112E-43
 4.91811E+16  1.35355E-43
 4.91538E+16  1.41899E-43
 4.91265E+16  1.48760E-43
 4.90992E+16  1.55953E-43
 4.90719E+16  1.63494E-43
 4.90447E+16  1.71399E-43
 4.90174E+16  1.79687E-43
 4.89902E+16  1.88375E-43
 4.89630E+16  1.97483E-43
 4.89358E+16  2.07032E-43
 4.89086E+16  2.17043E-43
 4.88815E+16  2.27537E-43
 4.88543E+16  2.38539E-43
 4.88272E+16  2.50073E-43
 4.88001E+16  2.62165E-43
 4.87730E+16  2.74841E-43
 4.87459E+16  2.88130E-43
 4.87188E+16  3.02062E-43
 4.86918E+16  3.16667E-43
 4.86647E+16  3.31978E-43
 4.86377E+16  3.48030E-43
 4.86107E+16  3.64858E-43
 4.85837E+16  3.82500E-43
 4.85567E+16  4.00995E-43
 4.85297E+16  4.20384E-43
 4.85028E+16  4.40710E-43
 4.84758E+16  4.62020E-43
 4.84489E+16  4.84359E-43
 4.84220E+16  5.07779E-43
 4.83951E+16  5.32331E-43
 4.83682E+16  5.58071E-43
 4.83414E+16  5.85055E-43
 4.83145E+16  6.13343E-43
 4.82877E+16  6.43000E-43
 4.82609E+16  6.74090E-43
 4.82341E+16  7.06684E-43
 4.82073E+16  7.40854E-43
 4.81805E+16  7.76676E-43
 4.81537E+16  8.14230E-43
 4.81270E+16  8.53599E-43
 4.81003E+16  8.94873E-43
 4.80735E+16  9.38142E-43
 4.80468E+16  9.83503E-43
 4.80202E+16  1.03106E-42
 4.79935E+16  1.08091E-42
 4.79668E+16  1.13318E-42
 4.79402E+16  1.18797E-42
 4.79136E+16  1.24541E-42
 4.78870E+16  1.30563E-42
 4.78604E+16  1.36876E-42
 4.78338E+16  1.43494E-42
 4.78072E+16  1.50432E-42
 4.77807E+16  1.57706E-42
 4.77541E+16  1.65331E-42
 4.77276E+16  1.73325E-42
 4.77011E+16  1.81706E-42
 4.76746E+16  1.90492E-42
 4.76481E+16  1.99703E-42
 4.76217E+16  2.09359E-42
 4.75952E+16  2.19482E-42
 4.75688E+16  2.30094E-42
 4.75424E+16  2.41220E-42
 4.75159E+16  2.52883E-42
 4.74896E+16  2.65111E-42
 4.74632E+16  2.77929E-42
 4.74368E+16  2.91368E-42
 4.74105E+16  3.05456E-42
 4.73841E+16  3.20225E-42
 4.73578E+16  3.35709E-42
 4.73315E+16  3.51941E-42
 4.73052E+16  3.68958E-42
 4.72790E+16  3.86798E-42
 4.72527E+16  4.05501E-42
 4.72265E+16  4.25108E-42
 4.72002E+16  4.45663E-42
 4.71740E+16  4.67212E-42
 4.71478E+16  4.89802E-42
 4.71216E+16  5.13485E-42
 4.70955E+16  5.38313E-42
 4.70693E+16  5.64342E-42
 4.70432E+16  5.91629E-42
 4.70170E+16  6.20236E-42
 4.69909E+16  6.50225E-42
 4.69648E+16  6.81665E-42
 4.69387E+16  7.14625E-42
 4.69127E+16  7.49179E-42
 4.68866E+16  7.85403E-42
 4.68606E+16  8.23379E-42
 4.68345E+16  8.63192E-42
 4.68085E+16  9.04929E-42
 4.67825E+16  9.48684E-42
 4.67566E+16  9.94370E-42
 4.67306E+16  1.04025E-41
 4.67046E+16  1.08799E-41
 4.66787E+16  1.13792E-41
 4.66528E+16  1.19015E-41
 4.66269E+16  1.24477E-41
 4.66010E+16  1.30190E-41
 4.65751E+16  1.36165E-41
 4.65492E+16  1.42415E-41
 4.65234E+16  1.48951E-41
 4.64975E+16  1.55787E-41
 4.64717E+16  1.62937E-41
 4.64459E+16  1.70416E-41
 4.64201E+16  1.78237E-41
 4.63943E+16  1.86417E-41
 4.63685E+16  1.94973E-41
 4.63428E+16  2.03922E-41
 4.63170E+16  2.13281E-41
 4.62913E+16  2.23070E-41
 4.62656E+16  2.33308E-41
 4.62399E+16  2.44016E-41
 4.62142E+16  2.55215E-41
 4.61886E+16  2.66928E-41
 4.61629E+16  2.79179E-41
 4.61373E+16  2.91992E-41
 4.61116E+16  3.05394E-41
 4.60860E+16  3.19410E-41
 4.60604E+16  3.34070E-41
 4.60349E+16  3.49402E-41
 4.60093E+16  3.65438E-41
 4.59837E+16  3.82210E-41
 4.59582E+16  3.99752E-41
 4.59327E+16  4.18099E-41
 4.59072E+16  4.37288E-41
 4.58817E+16  4.57358E-41
 4.58562E+16  4.78349E-41
 4.58307E+16  5.00303E-41
 4.58053E+16  5.23265E-41
 4.57798E+16  5.47281E-41
 4.57544E+16  5.72399E-41
 4.57290E+16  5.98670E-41
 4.57036E+16  6.26147E-41
 4.56782E+16  6.54884E-41
 4.56528E+16  6.84941E-41
 4.56275E+16  7.16377E-41
 4.56021E+16  7.49256E-41
 4.55768E+16  7.83643E-41
 4.55515E+16  8.19610E-41
 4.55262E+16  8.57226E-41
 4.55009E+16  8.96570E-41
 4.54756E+16  9.37719E-41
 4.54504E+16  9.80756E-41
 4.54251E+16  1.02577E-40
 4.53999E+16  1.07285E-40
 4.53747E+16  1.12209E-40
 4.53495E+16  1.17359E-40
 4.53243E+16  1.22745E-40
 4.52991E+16  1.28378E-40
 4.52740E+16  1.34270E-40
 4.52488E+16  1.40433E-40
 4.52237E+16  1.46878E-40
 4.51986E+16  1.53619E-40
 4.51735E+16  1.60670E-40
 4.51484E+16  1.68044E-40
 4.51233E+16  1.75757E-40
 4.50983E+16  1.83823E-40
 4.50732E+16  1.92260E-40
 4.50482E+16  2.01084E-40
 4.50232E+16  2.10313E-40
 4.49981E+16  2.19965E-40
 4.49732E+16  2.30061E-40
 4.49482E+16  2.40620E-40
 4.49232E+16  2.51663E-40
 4.48983E+16  2.63213E-40
 4.48733E+16  2.75294E-40
 4.48484E+16  2.87929E-40
 4.48235E+16  3.01144E-40
 4.47986E+16  3.14965E-40
 4.47737E+16  3.29420E-40
 4.47489E+16  3.44540E-40
 4.47240E+16  3.60353E-40
 4.46992E+16  3.76891E-40
 4.46743E+16  3.94189E-40
 4.46495E+16  4.12281E-40
 4.46247E+16  4.31203E-40
 4.45999E+16  4.50993E-40
 4.45752E+16  4.71692E-40
 4.45504E+16  4.93341E-40
 4.45257E+16  5.15983E-40
 4.45009E+16  5.39665E-40
 4.44762E+16  5.64433E-40
 4.44515E+16  5.90338E-40
 4.44268E+16  6.17433E-40
 4.44022E+16  6.45770E-40
 4.43775E+16  6.75409E-40
 4.43528E+16  7.06407E-40
 4.43282E+16  7.38828E-40
 4.43036E+16  7.72738E-40
 4.42790E+16  8.08203E-40
 4.42544E+16  8.45227E-40
 4.42298E+16  8.82308E-40
 4.42053E+16  9.20671E-40
 4.41807E+16  9.60703E-40
 4.41562E+16  1.00247E-39
 4.41316E+16  1.04606E-39
 4.41071E+16  1.09155E-39
 4.40826E+16  1.13901E-39
 4.40581E+16  1.18853E-39
 4.40337E+16  1.24021E-39
 4.40092E+16  1.29414E-39
 4.39848E+16  1.35041E-39
 4.39604E+16  1.40912E-39
 4.39359E+16  1.47039E-39
 4.39115E+16  1.53433E-39
 4.38871E+16  1.60104E-39
 4.38628E+16  1.67065E-39
 4.38384E+16  1.74329E-39
 4.38141E+16  1.81909E-39
 4.37897E+16  1.89819E-39
 4.37654E+16  1.98072E-39
 4.37411E+16  2.06685E-39
 4.37168E+16  2.15671E-39
