 TLUSTY Ostars, Lanz & Hubeny 2003
 T 55000. G 4.00000 P00 TLUSTY,
 Frequency   Eddington Hnu
   (Hz)    (ergs/s/cm2/Hz/sr)
 6.67944E+16  5.50382E-31
 6.67573E+16  5.64797E-31
 6.67202E+16  5.84616E-31
 6.66831E+16  6.05130E-31
 6.66461E+16  6.26364E-31
 6.66091E+16  6.48344E-31
 6.65721E+16  6.71094E-31
 6.65351E+16  6.94643E-31
 6.64982E+16  7.19018E-31
 6.64612E+16  7.44249E-31
 6.64243E+16  7.70365E-31
 6.63874E+16  7.97397E-31
 6.63506E+16  8.25378E-31
 6.63137E+16  8.54340E-31
 6.62769E+16  8.84319E-31
 6.62401E+16  9.15350E-31
 6.62033E+16  9.47470E-31
 6.61665E+16  9.80717E-31
 6.61298E+16  1.01513E-30
 6.60930E+16  1.05075E-30
 6.60563E+16  1.08762E-30
 6.60196E+16  1.12579E-30
 6.59830E+16  1.16529E-30
 6.59463E+16  1.20618E-30
 6.59097E+16  1.24851E-30
 6.58731E+16  1.29232E-30
 6.58365E+16  1.33767E-30
 6.57999E+16  1.38460E-30
 6.57634E+16  1.43319E-30
 6.57269E+16  1.48348E-30
 6.56904E+16  1.53554E-30
 6.56539E+16  1.58942E-30
 6.56174E+16  1.64519E-30
 6.55810E+16  1.70292E-30
 6.55445E+16  1.76268E-30
 6.55081E+16  1.82453E-30
 6.54718E+16  1.88856E-30
 6.54354E+16  1.95483E-30
 6.53991E+16  2.02342E-30
 6.53627E+16  2.09442E-30
 6.53264E+16  2.16792E-30
 6.52901E+16  2.24399E-30
 6.52539E+16  2.32273E-30
 6.52176E+16  2.40424E-30
 6.51814E+16  2.48860E-30
 6.51452E+16  2.57593E-30
 6.51090E+16  2.66632E-30
 6.50729E+16  2.75988E-30
 6.50367E+16  2.85672E-30
 6.50006E+16  2.95697E-30
 6.49645E+16  3.06073E-30
 6.49284E+16  3.16813E-30
 6.48924E+16  3.27930E-30
 6.48563E+16  3.39437E-30
 6.48203E+16  3.51348E-30
 6.47843E+16  3.63677E-30
 6.47483E+16  3.76438E-30
 6.47124E+16  3.89648E-30
 6.46764E+16  4.03321E-30
 6.46405E+16  4.17473E-30
 6.46046E+16  4.32122E-30
 6.45687E+16  4.47286E-30
 6.45329E+16  4.62981E-30
 6.44970E+16  4.79227E-30
 6.44612E+16  4.96043E-30
 6.44254E+16  5.13450E-30
 6.43896E+16  5.31467E-30
 6.43539E+16  5.50116E-30
 6.43181E+16  5.69420E-30
 6.42824E+16  5.89300E-30
 6.42467E+16  6.09439E-30
 6.42110E+16  6.30269E-30
 6.41753E+16  6.51812E-30
 6.41397E+16  6.74091E-30
 6.41041E+16  6.97131E-30
 6.40685E+16  7.20959E-30
 6.40329E+16  7.45602E-30
 6.39973E+16  7.71087E-30
 6.39618E+16  7.97443E-30
 6.39263E+16  8.24699E-30
 6.38908E+16  8.52888E-30
 6.38553E+16  8.82039E-30
 6.38198E+16  9.12187E-30
 6.37844E+16  9.43366E-30
 6.37489E+16  9.75610E-30
 6.37135E+16  1.00896E-29
 6.36781E+16  1.04344E-29
 6.36428E+16  1.07911E-29
 6.36074E+16  1.11599E-29
 6.35721E+16  1.15414E-29
 6.35368E+16  1.19359E-29
 6.35015E+16  1.23438E-29
 6.34662E+16  1.27657E-29
 6.34310E+16  1.32021E-29
 6.33958E+16  1.36533E-29
 6.33605E+16  1.41200E-29
 6.33254E+16  1.46026E-29
 6.32902E+16  1.51017E-29
 6.32550E+16  1.56179E-29
 6.32199E+16  1.61517E-29
 6.31848E+16  1.67038E-29
 6.31497E+16  1.72747E-29
 6.31146E+16  1.78652E-29
 6.30796E+16  1.84758E-29
 6.30445E+16  1.91073E-29
 6.30095E+16  1.97604E-29
 6.29745E+16  2.04358E-29
 6.29395E+16  2.11343E-29
 6.29046E+16  2.18567E-29
 6.28697E+16  2.26038E-29
 6.28347E+16  2.33764E-29
 6.27998E+16  2.41754E-29
 6.27650E+16  2.50017E-29
 6.27301E+16  2.58563E-29
 6.26953E+16  2.67400E-29
 6.26604E+16  2.76540E-29
 6.26256E+16  2.85992E-29
 6.25909E+16  2.95767E-29
 6.25561E+16  3.05877E-29
 6.25213E+16  3.16332E-29
 6.24866E+16  3.27144E-29
 6.24519E+16  3.38326E-29
 6.24172E+16  3.49890E-29
 6.23826E+16  3.61849E-29
 6.23479E+16  3.74217E-29
 6.23133E+16  3.87008E-29
 6.22787E+16  4.00236E-29
 6.22441E+16  4.13916E-29
 6.22095E+16  4.28064E-29
 6.21750E+16  4.42695E-29
 6.21404E+16  4.57826E-29
 6.21059E+16  4.73475E-29
 6.20714E+16  4.89658E-29
 6.20370E+16  5.06395E-29
 6.20025E+16  5.23703E-29
 6.19681E+16  5.41604E-29
 6.19337E+16  5.60116E-29
 6.18993E+16  5.79260E-29
 6.18649E+16  5.99060E-29
 6.18305E+16  6.19536E-29
 6.17962E+16  6.40732E-29
 6.17619E+16  6.62218E-29
 6.17276E+16  6.84246E-29
 6.16933E+16  7.07006E-29
 6.16590E+16  7.30523E-29
 6.16248E+16  7.54823E-29
 6.15905E+16  7.79930E-29
 6.15563E+16  8.05873E-29
 6.15221E+16  8.32679E-29
 6.14880E+16  8.60377E-29
 6.14538E+16  8.88996E-29
 6.14197E+16  9.18566E-29
 6.13856E+16  9.49121E-29
 6.13515E+16  9.80692E-29
 6.13174E+16  1.01331E-28
 6.12834E+16  1.04702E-28
 6.12493E+16  1.08185E-28
 6.12153E+16  1.11783E-28
 6.11813E+16  1.15501E-28
 6.11473E+16  1.19343E-28
 6.11134E+16  1.23313E-28
 6.10794E+16  1.27415E-28
 6.10455E+16  1.31653E-28
 6.10116E+16  1.36032E-28
 6.09777E+16  1.40557E-28
 6.09438E+16  1.45233E-28
 6.09100E+16  1.50063E-28
 6.08762E+16  1.55055E-28
 6.08423E+16  1.60213E-28
 6.08086E+16  1.65542E-28
 6.07748E+16  1.71048E-28
 6.07410E+16  1.76738E-28
 6.07073E+16  1.82617E-28
 6.06736E+16  1.88691E-28
 6.06399E+16  1.94968E-28
 6.06062E+16  2.01453E-28
 6.05725E+16  2.08154E-28
 6.05389E+16  2.15078E-28
 6.05053E+16  2.22232E-28
 6.04717E+16  2.29624E-28
 6.04381E+16  2.37262E-28
 6.04045E+16  2.45154E-28
 6.03710E+16  2.53309E-28
 6.03374E+16  2.61735E-28
 6.03039E+16  2.70441E-28
 6.02704E+16  2.79436E-28
 6.02370E+16  2.88731E-28
 6.02035E+16  2.98335E-28
 6.01701E+16  3.08259E-28
 6.01366E+16  3.18513E-28
 6.01032E+16  3.29107E-28
 6.00699E+16  3.40055E-28
 6.00365E+16  3.51366E-28
 6.00032E+16  3.63053E-28
 5.99698E+16  3.75130E-28
 5.99365E+16  3.87608E-28
 5.99032E+16  4.00501E-28
 5.98700E+16  4.13823E-28
 5.98367E+16  4.27588E-28
 5.98035E+16  4.41811E-28
 5.97703E+16  4.56507E-28
 5.97371E+16  4.71692E-28
 5.97039E+16  4.87382E-28
 5.96707E+16  5.03593E-28
 5.96376E+16  5.20345E-28
 5.96045E+16  5.37653E-28
 5.95714E+16  5.55537E-28
 5.95383E+16  5.74016E-28
 5.95052E+16  5.93109E-28
 5.94722E+16  6.12838E-28
 5.94391E+16  6.33223E-28
 5.94061E+16  6.54286E-28
 5.93731E+16  6.76050E-28
 5.93402E+16  6.98537E-28
 5.93072E+16  7.21773E-28
 5.92743E+16  7.45661E-28
 5.92413E+16  7.69781E-28
 5.92084E+16  7.94677E-28
 5.91755E+16  8.20377E-28
 5.91427E+16  8.46910E-28
 5.91098E+16  8.74300E-28
 5.90770E+16  9.02576E-28
 5.90442E+16  9.31766E-28
 5.90114E+16  9.61901E-28
 5.89786E+16  9.93010E-28
 5.89459E+16  1.02513E-27
 5.89131E+16  1.05828E-27
 5.88804E+16  1.09251E-27
 5.88477E+16  1.12784E-27
 5.88150E+16  1.16431E-27
 5.87824E+16  1.20197E-27
 5.87497E+16  1.24084E-27
 5.87171E+16  1.28097E-27
 5.86845E+16  1.32240E-27
 5.86519E+16  1.36517E-27
 5.86193E+16  1.40932E-27
 5.85867E+16  1.45490E-27
 5.85542E+16  1.50196E-27
 5.85217E+16  1.55053E-27
 5.84892E+16  1.60068E-27
 5.84567E+16  1.65245E-27
 5.84242E+16  1.70589E-27
 5.83918E+16  1.76106E-27
 5.83594E+16  1.81801E-27
 5.83269E+16  1.87681E-27
 5.82945E+16  1.93751E-27
 5.82622E+16  2.00017E-27
 5.82298E+16  2.06486E-27
 5.81975E+16  2.13164E-27
 5.81651E+16  2.20058E-27
 5.81328E+16  2.27175E-27
 5.81006E+16  2.34522E-27
 5.80683E+16  2.42107E-27
 5.80360E+16  2.49937E-27
 5.80038E+16  2.58020E-27
 5.79716E+16  2.66365E-27
 5.79394E+16  2.74980E-27
 5.79072E+16  2.83873E-27
 5.78750E+16  2.93054E-27
 5.78429E+16  3.02531E-27
 5.78108E+16  3.12316E-27
 5.77787E+16  3.22416E-27
 5.77466E+16  3.32844E-27
 5.77145E+16  3.43608E-27
 5.76825E+16  3.54721E-27
 5.76504E+16  3.66193E-27
 5.76184E+16  3.78037E-27
 5.75864E+16  3.90263E-27
 5.75544E+16  4.02884E-27
 5.75224E+16  4.15914E-27
 5.74905E+16  4.29366E-27
 5.74586E+16  4.43252E-27
 5.74267E+16  4.57587E-27
 5.73948E+16  4.72386E-27
 5.73629E+16  4.87664E-27
 5.73310E+16  5.03436E-27
 5.72992E+16  5.19717E-27
 5.72674E+16  5.36526E-27
 5.72356E+16  5.53878E-27
 5.72038E+16  5.71791E-27
 5.71720E+16  5.90283E-27
 5.71402E+16  6.09374E-27
 5.71085E+16  6.29082E-27
 5.70768E+16  6.49427E-27
 5.70451E+16  6.70431E-27
 5.70134E+16  6.92113E-27
 5.69817E+16  7.14497E-27
 5.69501E+16  7.37605E-27
 5.69185E+16  7.61460E-27
 5.68869E+16  7.86087E-27
 5.68553E+16  8.11510E-27
 5.68237E+16  8.37755E-27
 5.67921E+16  8.64850E-27
 5.67606E+16  8.92481E-27
 5.67291E+16  9.20482E-27
 5.66975E+16  9.49397E-27
 5.66661E+16  9.79221E-27
 5.66346E+16  1.00998E-26
 5.66031E+16  1.04171E-26
 5.65717E+16  1.07443E-26
 5.65403E+16  1.10818E-26
 5.65089E+16  1.14299E-26
 5.64775E+16  1.17890E-26
 5.64461E+16  1.21593E-26
 5.64148E+16  1.25413E-26
 5.63834E+16  1.29352E-26
 5.63521E+16  1.33416E-26
 5.63208E+16  1.37607E-26
 5.62895E+16  1.41930E-26
 5.62583E+16  1.46388E-26
 5.62270E+16  1.50987E-26
 5.61958E+16  1.55729E-26
 5.61646E+16  1.60621E-26
 5.61334E+16  1.65667E-26
 5.61022E+16  1.70871E-26
 5.60711E+16  1.76239E-26
 5.60399E+16  1.81775E-26
 5.60088E+16  1.87485E-26
 5.59777E+16  1.93375E-26
 5.59466E+16  1.99449E-26
 5.59155E+16  2.05715E-26
 5.58845E+16  2.12177E-26
 5.58534E+16  2.18842E-26
 5.58224E+16  2.25716E-26
 5.57914E+16  2.32807E-26
 5.57604E+16  2.40120E-26
 5.57295E+16  2.47663E-26
 5.56985E+16  2.55443E-26
 5.56676E+16  2.63467E-26
 5.56367E+16  2.71744E-26
 5.56058E+16  2.80280E-26
 5.55749E+16  2.89084E-26
 5.55440E+16  2.98165E-26
 5.55132E+16  3.07532E-26
 5.54823E+16  3.17192E-26
 5.54515E+16  3.27156E-26
 5.54207E+16  3.37433E-26
 5.53899E+16  3.48033E-26
 5.53592E+16  3.58966E-26
 5.53284E+16  3.70242E-26
 5.52977E+16  3.81873E-26
 5.52670E+16  3.93869E-26
 5.52363E+16  4.06241E-26
 5.52056E+16  4.19003E-26
 5.51749E+16  4.32165E-26
 5.51443E+16  4.45741E-26
 5.51137E+16  4.59743E-26
 5.50831E+16  4.74185E-26
 5.50525E+16  4.89080E-26
 5.50219E+16  5.04444E-26
 5.49913E+16  5.20290E-26
 5.49608E+16  5.36634E-26
 5.49303E+16  5.53492E-26
 5.48998E+16  5.70878E-26
 5.48693E+16  5.88812E-26
 5.48388E+16  6.07308E-26
 5.48083E+16  6.26386E-26
 5.47779E+16  6.46062E-26
 5.47475E+16  6.66357E-26
 5.47171E+16  6.87290E-26
 5.46867E+16  7.08880E-26
 5.46563E+16  7.31148E-26
 5.46259E+16  7.54115E-26
 5.45956E+16  7.77805E-26
 5.45653E+16  8.02238E-26
 5.45350E+16  8.27439E-26
 5.45047E+16  8.53431E-26
 5.44744E+16  8.80240E-26
 5.44442E+16  9.07892E-26
 5.44139E+16  9.36411E-26
 5.43837E+16  9.65827E-26
 5.43535E+16  9.96167E-26
 5.43233E+16  1.02746E-25
 5.42931E+16  1.05974E-25
 5.42630E+16  1.09279E-25
 5.42328E+16  1.12611E-25
 5.42027E+16  1.16045E-25
 5.41726E+16  1.19584E-25
 5.41425E+16  1.23230E-25
 5.41125E+16  1.26988E-25
 5.40824E+16  1.30860E-25
 5.40524E+16  1.34851E-25
 5.40224E+16  1.38963E-25
 5.39923E+16  1.43201E-25
 5.39624E+16  1.47568E-25
 5.39324E+16  1.52068E-25
 5.39024E+16  1.56705E-25
 5.38725E+16  1.61483E-25
 5.38426E+16  1.66408E-25
 5.38127E+16  1.71482E-25
 5.37828E+16  1.76712E-25
 5.37529E+16  1.82100E-25
 5.37231E+16  1.87653E-25
 5.36932E+16  1.93376E-25
 5.36634E+16  1.99273E-25
 5.36336E+16  2.05349E-25
 5.36038E+16  2.11611E-25
 5.35740E+16  2.18064E-25
 5.35443E+16  2.24714E-25
 5.35145E+16  2.31567E-25
 5.34848E+16  2.38628E-25
 5.34551E+16  2.45905E-25
 5.34254E+16  2.53404E-25
 5.33958E+16  2.61131E-25
 5.33661E+16  2.69094E-25
 5.33365E+16  2.77300E-25
 5.33068E+16  2.85756E-25
 5.32772E+16  2.94470E-25
 5.32476E+16  3.03450E-25
 5.32181E+16  3.12703E-25
 5.31885E+16  3.22239E-25
 5.31590E+16  3.32066E-25
 5.31294E+16  3.42192E-25
 5.30999E+16  3.52627E-25
 5.30704E+16  3.63380E-25
 5.30410E+16  3.74461E-25
 5.30115E+16  3.85880E-25
 5.29821E+16  3.97647E-25
 5.29526E+16  4.09773E-25
 5.29232E+16  4.22269E-25
 5.28938E+16  4.35146E-25
 5.28645E+16  4.48415E-25
 5.28351E+16  4.62090E-25
 5.28058E+16  4.76181E-25
 5.27764E+16  4.90702E-25
 5.27471E+16  5.05665E-25
 5.27178E+16  5.21085E-25
 5.26885E+16  5.36976E-25
 5.26593E+16  5.53350E-25
 5.26300E+16  5.70224E-25
 5.26008E+16  5.87613E-25
 5.25716E+16  6.05532E-25
 5.25424E+16  6.23997E-25
 5.25132E+16  6.43026E-25
 5.24840E+16  6.62635E-25
 5.24549E+16  6.82841E-25
 5.24258E+16  7.03664E-25
 5.23966E+16  7.25122E-25
 5.23675E+16  7.47234E-25
 5.23385E+16  7.70021E-25
 5.23094E+16  7.93502E-25
 5.22803E+16  8.17699E-25
 5.22513E+16  8.42635E-25
 5.22223E+16  8.68330E-25
 5.21933E+16  8.94810E-25
 5.21643E+16  9.22097E-25
 5.21353E+16  9.50215E-25
 5.21064E+16  9.79192E-25
 5.20774E+16  1.00905E-24
 5.20485E+16  1.03982E-24
 5.20196E+16  1.07153E-24
 5.19907E+16  1.10421E-24
 5.19618E+16  1.13788E-24
 5.19330E+16  1.17258E-24
 5.19041E+16  1.20833E-24
 5.18753E+16  1.24518E-24
 5.18465E+16  1.28315E-24
 5.18177E+16  1.32228E-24
 5.17889E+16  1.36260E-24
 5.17601E+16  1.40393E-24
 5.17314E+16  1.44555E-24
 5.17027E+16  1.48840E-24
 5.16739E+16  1.53252E-24
 5.16452E+16  1.57794E-24
 5.16166E+16  1.62472E-24
 5.15879E+16  1.67288E-24
 5.15592E+16  1.72246E-24
 5.15306E+16  1.77352E-24
 5.15020E+16  1.82609E-24
 5.14734E+16  1.88022E-24
 5.14448E+16  1.93595E-24
 5.14162E+16  1.99334E-24
 5.13877E+16  2.05242E-24
 5.13591E+16  2.11326E-24
 5.13306E+16  2.17590E-24
 5.13021E+16  2.24040E-24
 5.12736E+16  2.30681E-24
 5.12451E+16  2.37518E-24
 5.12167E+16  2.44559E-24
 5.11882E+16  2.51808E-24
 5.11598E+16  2.59272E-24
 5.11314E+16  2.66957E-24
 5.11030E+16  2.74871E-24
 5.10746E+16  2.83018E-24
 5.10462E+16  2.91407E-24
 5.10179E+16  3.00045E-24
 5.09895E+16  3.08939E-24
 5.09612E+16  3.18097E-24
 5.09329E+16  3.27525E-24
 5.09046E+16  3.37234E-24
 5.08764E+16  3.47230E-24
 5.08481E+16  3.57523E-24
 5.08199E+16  3.68120E-24
 5.07916E+16  3.79032E-24
 5.07634E+16  3.90267E-24
 5.07352E+16  4.01835E-24
 5.07071E+16  4.13746E-24
 5.06789E+16  4.26011E-24
 5.06507E+16  4.38638E-24
 5.06226E+16  4.51640E-24
 5.05945E+16  4.65028E-24
 5.05664E+16  4.78812E-24
 5.05383E+16  4.93005E-24
 5.05102E+16  5.07618E-24
 5.04822E+16  5.22665E-24
 5.04542E+16  5.38158E-24
 5.04261E+16  5.54110E-24
 5.03981E+16  5.70534E-24
 5.03701E+16  5.87446E-24
 5.03422E+16  6.04859E-24
 5.03142E+16  6.22788E-24
 5.02863E+16  6.41249E-24
 5.02583E+16  6.60256E-24
 5.02304E+16  6.79828E-24
 5.02025E+16  6.99979E-24
 5.01746E+16  7.20727E-24
 5.01468E+16  7.42091E-24
 5.01189E+16  7.64088E-24
 5.00911E+16  7.86737E-24
 5.00633E+16  8.10057E-24
 5.00354E+16  8.34069E-24
 5.00077E+16  8.58792E-24
 4.99799E+16  8.84248E-24
 4.99521E+16  9.10459E-24
 4.99244E+16  9.37446E-24
 4.98967E+16  9.65234E-24
 4.98689E+16  9.93845E-24
 4.98412E+16  1.02330E-23
 4.98136E+16  1.05364E-23
 4.97859E+16  1.08487E-23
 4.97582E+16  1.11703E-23
 4.97306E+16  1.15014E-23
 4.97030E+16  1.18423E-23
 4.96754E+16  1.21933E-23
 4.96478E+16  1.25547E-23
 4.96202E+16  1.29269E-23
 4.95927E+16  1.33101E-23
 4.95651E+16  1.37046E-23
 4.95376E+16  1.41108E-23
 4.95101E+16  1.45291E-23
 4.94826E+16  1.49598E-23
 4.94551E+16  1.54032E-23
 4.94276E+16  1.58598E-23
 4.94002E+16  1.63299E-23
 4.93727E+16  1.68139E-23
 4.93453E+16  1.73123E-23
 4.93179E+16  1.78255E-23
 4.92905E+16  1.83539E-23
 4.92631E+16  1.88970E-23
 4.92358E+16  1.94410E-23
 4.92084E+16  1.99980E-23
 4.91811E+16  2.05710E-23
 4.91538E+16  2.11605E-23
 4.91265E+16  2.17668E-23
 4.90992E+16  2.23905E-23
 4.90719E+16  2.30321E-23
 4.90447E+16  2.36920E-23
 4.90174E+16  2.43709E-23
 4.89902E+16  2.50692E-23
 4.89630E+16  2.57876E-23
 4.89358E+16  2.65265E-23
 4.89086E+16  2.72865E-23
 4.88815E+16  2.80684E-23
 4.88543E+16  2.88727E-23
 4.88272E+16  2.97000E-23
 4.88001E+16  3.05510E-23
 4.87730E+16  3.14264E-23
 4.87459E+16  3.23269E-23
 4.87188E+16  3.32532E-23
 4.86918E+16  3.42060E-23
 4.86647E+16  3.51861E-23
 4.86377E+16  3.61943E-23
 4.86107E+16  3.72314E-23
 4.85837E+16  3.82983E-23
 4.85567E+16  3.93957E-23
 4.85297E+16  4.05245E-23
 4.85028E+16  4.16857E-23
 4.84758E+16  4.28801E-23
 4.84489E+16  4.41088E-23
 4.84220E+16  4.53727E-23
 4.83951E+16  4.66728E-23
 4.83682E+16  4.80101E-23
 4.83414E+16  4.93858E-23
 4.83145E+16  5.08009E-23
 4.82877E+16  5.22565E-23
 4.82609E+16  5.37539E-23
 4.82341E+16  5.52941E-23
 4.82073E+16  5.68785E-23
 4.81805E+16  5.85083E-23
 4.81537E+16  6.01848E-23
 4.81270E+16  6.19093E-23
 4.81003E+16  6.36832E-23
 4.80735E+16  6.55080E-23
 4.80468E+16  6.73850E-23
 4.80202E+16  6.93159E-23
 4.79935E+16  7.13020E-23
 4.79668E+16  7.33451E-23
 4.79402E+16  7.54467E-23
 4.79136E+16  7.76085E-23
 4.78870E+16  7.98323E-23
 4.78604E+16  8.21198E-23
 4.78338E+16  8.44729E-23
 4.78072E+16  8.68933E-23
 4.77807E+16  8.93831E-23
 4.77541E+16  9.19443E-23
 4.77276E+16  9.45789E-23
 4.77011E+16  9.72889E-23
 4.76746E+16  1.00077E-22
 4.76481E+16  1.02944E-22
 4.76217E+16  1.05894E-22
 4.75952E+16  1.08928E-22
 4.75688E+16  1.12049E-22
 4.75424E+16  1.15260E-22
 4.75159E+16  1.18563E-22
 4.74896E+16  1.21960E-22
 4.74632E+16  1.25454E-22
 4.74368E+16  1.29049E-22
 4.74105E+16  1.32747E-22
 4.73841E+16  1.36551E-22
 4.73578E+16  1.40463E-22
 4.73315E+16  1.44488E-22
 4.73052E+16  1.48628E-22
 4.72790E+16  1.52887E-22
 4.72527E+16  1.57268E-22
 4.72265E+16  1.61774E-22
 4.72002E+16  1.66410E-22
 4.71740E+16  1.71178E-22
 4.71478E+16  1.76083E-22
 4.71216E+16  1.81128E-22
 4.70955E+16  1.86318E-22
 4.70693E+16  1.91657E-22
 4.70432E+16  1.97149E-22
 4.70170E+16  2.02798E-22
 4.69909E+16  2.08609E-22
 4.69648E+16  2.14586E-22
 4.69387E+16  2.20735E-22
 4.69127E+16  2.27060E-22
 4.68866E+16  2.33566E-22
 4.68606E+16  2.40258E-22
 4.68345E+16  2.47142E-22
 4.68085E+16  2.54224E-22
 4.67825E+16  2.61508E-22
 4.67566E+16  2.68980E-22
 4.67306E+16  2.76445E-22
 4.67046E+16  2.84089E-22
 4.66787E+16  2.91945E-22
 4.66528E+16  3.00017E-22
 4.66269E+16  3.08313E-22
 4.66010E+16  3.16838E-22
 4.65751E+16  3.25600E-22
 4.65492E+16  3.34603E-22
 4.65234E+16  3.43855E-22
 4.64975E+16  3.53363E-22
 4.64717E+16  3.63134E-22
 4.64459E+16  3.73175E-22
 4.64201E+16  3.83494E-22
 4.63943E+16  3.94099E-22
 4.63685E+16  4.04996E-22
 4.63428E+16  4.16195E-22
 4.63170E+16  4.27703E-22
 4.62913E+16  4.39530E-22
 4.62656E+16  4.51683E-22
 4.62399E+16  4.64173E-22
 4.62142E+16  4.77008E-22
 4.61886E+16  4.90198E-22
 4.61629E+16  5.03753E-22
 4.61373E+16  5.17682E-22
 4.61116E+16  5.31997E-22
 4.60860E+16  5.46708E-22
 4.60604E+16  5.61825E-22
 4.60349E+16  5.77360E-22
 4.60093E+16  5.93325E-22
 4.59837E+16  6.09732E-22
 4.59582E+16  6.26592E-22
 4.59327E+16  6.43918E-22
 4.59072E+16  6.61723E-22
 4.58817E+16  6.80021E-22
 4.58562E+16  6.98824E-22
 4.58307E+16  7.18148E-22
 4.58053E+16  7.38006E-22
 4.57798E+16  7.58413E-22
 4.57544E+16  7.79384E-22
 4.57290E+16  8.00935E-22
 4.57036E+16  8.23082E-22
 4.56782E+16  8.45842E-22
 4.56528E+16  8.69230E-22
 4.56275E+16  8.93266E-22
 4.56021E+16  9.17966E-22
 4.55768E+16  9.43349E-22
 4.55515E+16  9.69434E-22
 4.55262E+16  9.96241E-22
 4.55009E+16  1.02379E-21
 4.54756E+16  1.05210E-21
 4.54504E+16  1.08119E-21
 4.54251E+16  1.11109E-21
 4.53999E+16  1.14181E-21
 4.53747E+16  1.17338E-21
 4.53495E+16  1.20583E-21
 4.53243E+16  1.23917E-21
 4.52991E+16  1.27344E-21
 4.52740E+16  1.30865E-21
 4.52488E+16  1.34483E-21
 4.52237E+16  1.38202E-21
 4.51986E+16  1.42024E-21
 4.51735E+16  1.45951E-21
 4.51484E+16  1.49986E-21
 4.51233E+16  1.54134E-21
 4.50983E+16  1.58396E-21
 4.50732E+16  1.62776E-21
 4.50482E+16  1.67277E-21
 4.50232E+16  1.71902E-21
 4.49981E+16  1.76656E-21
 4.49732E+16  1.81540E-21
 4.49482E+16  1.86560E-21
 4.49232E+16  1.91719E-21
 4.48983E+16  1.97020E-21
 4.48733E+16  2.02468E-21
 4.48484E+16  2.08067E-21
 4.48235E+16  2.13820E-21
 4.47986E+16  2.19732E-21
 4.47737E+16  2.25808E-21
 4.47489E+16  2.32052E-21
 4.47240E+16  2.38469E-21
 4.46992E+16  2.45063E-21
 4.46743E+16  2.51839E-21
 4.46495E+16  2.58803E-21
 4.46247E+16  2.65959E-21
 4.45999E+16  2.73314E-21
 4.45752E+16  2.80871E-21
 4.45504E+16  2.88638E-21
 4.45257E+16  2.96619E-21
 4.45009E+16  3.04821E-21
 4.44762E+16  3.13250E-21
 4.44515E+16  3.21911E-21
 4.44268E+16  3.30813E-21
 4.44022E+16  3.39960E-21
 4.43775E+16  3.49361E-21
 4.43528E+16  3.59021E-21
 4.43282E+16  3.68948E-21
 4.43036E+16  3.79150E-21
 4.42790E+16  3.89635E-21
 4.42544E+16  4.00392E-21
 4.42298E+16  4.11122E-21
 4.42053E+16  4.22069E-21
 4.41807E+16  4.33308E-21
 4.41562E+16  4.44845E-21
 4.41316E+16  4.56690E-21
 4.41071E+16  4.68851E-21
 4.40826E+16  4.81335E-21
 4.40581E+16  4.94151E-21
 4.40337E+16  5.07309E-21
 4.40092E+16  5.20817E-21
 4.39848E+16  5.34685E-21
 4.39604E+16  5.48922E-21
 4.39359E+16  5.63539E-21
 4.39115E+16  5.78544E-21
 4.38871E+16  5.93949E-21
 4.38628E+16  6.09764E-21
 4.38384E+16  6.26000E-21
 4.38141E+16  6.42669E-21
 4.37897E+16  6.59781E-21
 4.37654E+16  6.77350E-21
 4.37411E+16  6.95385E-21
 4.37168E+16  7.13902E-21
