 Castelli and Kurucz 2004-2012 Atmosphere
 T     40000.     G    5.00000 [-2.5a] N(He)/Ntot=0.0784 VTURB=2  L/H=1.25 NOVE
 Wavelength  Eddington Hnu
   (nm)    (ergs/s/cm2/Hz/sr)
  9.0900      4.35220E-23
  9.3500      1.63250E-22
  9.6100      5.73170E-22
  9.7700      1.20470E-21
  9.9600      2.82870E-21
  10.200      7.97680E-21
  10.380      1.68810E-20
  10.560      3.49030E-20
  10.770      7.92190E-20
  11.040      2.18020E-19
  11.400      7.85610E-19
  11.780      2.81590E-18
  12.130      8.55440E-18
  12.480      2.45320E-17
  12.710      4.76130E-17
  12.840      6.85840E-17
  13.050      1.21910E-16
  13.240      2.02170E-16
  13.390      2.98530E-16
  13.660      5.90210E-16
  13.980      1.28190E-15
  14.330      2.88240E-15
  14.720      6.80610E-15
  15.100      1.50870E-14
  15.520      3.47900E-14
  15.880      6.87980E-14
  16.200      1.23020E-13
  16.600      2.46540E-13
  17.030      5.01970E-13
  17.340      8.19970E-13
  17.680      1.37720E-12
  18.020      2.26780E-12
  18.170      2.80870E-12
  18.610      5.15900E-12
  19.100      9.81820E-12
  19.390      1.41460E-11
  19.840      2.43960E-11
  20.180      3.62250E-11
  20.500      5.19100E-11
  21.050      9.38360E-11
  21.620      1.67700E-10
  21.980      2.38130E-10
  22.300      3.22000E-10
  22.680      4.55450E-10
  23.000      8.70010E-09
  23.400      3.35280E-08
  24.000      1.01720E-07
  24.650      6.78780E-07
  25.240      2.54410E-06
  25.680      1.87630E-06
  26.000      9.36840E-06
  26.400      1.73740E-05
  26.850      2.78450E-05
  27.350      3.90200E-05
  27.850      4.50760E-05
  28.400      5.86380E-05
  29.000      6.74420E-05
  29.600      5.25620E-05
  30.100      1.04980E-05
  30.800      3.16530E-05
  31.800      7.80290E-05
  32.800      9.43370E-05
  33.800      9.77380E-05
  34.800      1.08700E-04
  35.700      1.22030E-04
  36.600      1.34090E-04
  37.500      1.39170E-04
  38.500      1.40860E-04
  39.500      1.55730E-04
  40.500      1.65560E-04
  41.400      1.73110E-04
  42.200      1.75180E-04
  43.000      1.80430E-04
  44.100      1.94380E-04
  45.100      2.03460E-04
  46.000      2.09380E-04
  47.000      2.21800E-04
  48.000      2.35010E-04
  49.000      2.41400E-04
  50.000      2.61310E-04
  50.600      4.01330E-04
  51.200      7.00140E-04
  52.000      7.09550E-04
  53.000      7.41110E-04
  54.000      7.21750E-04
  55.000      7.53310E-04
  56.000      8.08170E-04
  57.000      8.35460E-04
  58.000      8.34320E-04
  59.000      8.74110E-04
  60.000      8.76320E-04
  61.000      8.82170E-04
  62.000      9.29960E-04
  63.000      9.46510E-04
  64.000      9.73910E-04
  65.000      9.82220E-04
  65.800      9.75370E-04
  66.500      1.00980E-03
  67.500      1.04290E-03
  68.500      1.03490E-03
  69.500      1.07910E-03
  70.500      1.06220E-03
  71.600      1.11840E-03
  72.600      1.13910E-03
  73.500      1.15660E-03
  74.500      1.16410E-03
  75.500      1.17890E-03
  76.500      1.19020E-03
  77.500      1.21540E-03
  78.500      1.22660E-03
  79.500      1.24460E-03
  80.500      1.26240E-03
  81.500      1.28090E-03
  82.500      1.30460E-03
  83.500      1.27630E-03
  84.500      1.32980E-03
  85.500      1.33890E-03
  86.500      1.36350E-03
  87.500      1.37820E-03
  88.500      1.39120E-03
  89.500      1.40370E-03
  90.500      1.40560E-03
  91.500      1.19250E-03
  92.500      2.05150E-03
  93.500      2.73360E-03
  94.500      3.69520E-03
  95.500      4.10430E-03
  96.500      4.91760E-03
  97.500      3.71870E-03
  98.500      4.99140E-03
  99.500      4.64360E-03
  100.50      5.00950E-03
  101.50      4.94530E-03
  102.50      3.64170E-03
  103.50      4.84690E-03
  104.50      4.91060E-03
  105.50      4.88570E-03
  106.50      4.78980E-03
  107.50      4.76220E-03
  108.50      4.47010E-03
  109.50      4.74240E-03
  110.50      4.69820E-03
  111.50      4.65230E-03
  112.50      4.56270E-03
  113.50      4.60280E-03
  114.50      4.56860E-03
  115.50      4.50540E-03
  116.50      4.48540E-03
  117.50      4.24340E-03
  118.50      4.41580E-03
  119.50      4.37730E-03
  120.50      4.30310E-03
  121.50      3.29140E-03
  122.50      4.22670E-03
  123.50      4.24060E-03
  124.50      4.19870E-03
  125.50      4.20570E-03
  126.50      4.17520E-03
  127.50      4.14490E-03
  128.50      4.11450E-03
  129.50      4.07780E-03
  130.50      4.04970E-03
  131.50      4.02200E-03
  132.50      3.98980E-03
  133.50      3.96080E-03
  134.50      3.93280E-03
  135.50      3.90150E-03
  136.50      3.87000E-03
  137.50      3.83260E-03
  138.50      3.81200E-03
  139.50      3.74230E-03
  140.50      3.71060E-03
  141.50      3.72820E-03
  142.50      3.69580E-03
  143.50      3.67360E-03
  144.20      3.65150E-03
  144.70      3.63870E-03
  145.50      3.61570E-03
  146.50      3.59060E-03
  147.50      3.56490E-03
  148.50      3.54230E-03
  149.50      3.51480E-03
  150.50      3.49060E-03
  151.20      3.47380E-03
  151.70      3.45950E-03
  152.50      3.43820E-03
  153.50      3.40440E-03
  154.50      3.31860E-03
  155.50      3.30740E-03
  156.50      3.32840E-03
  157.50      3.31070E-03
  158.50      3.28840E-03
  159.50      3.26500E-03
  160.50      3.23260E-03
  161.50      3.20920E-03
  162.50      3.17910E-03
  163.50      3.08840E-03
  164.50      2.94920E-03
  165.50      3.12560E-03
  166.50      3.10470E-03
  167.20      3.08440E-03
  167.70      3.08330E-03
  168.50      3.06500E-03
  169.50      3.04410E-03
  170.50      3.02170E-03
  171.50      2.97950E-03
  172.50      2.97050E-03
  173.50      2.96220E-03
  174.50      2.94040E-03
  175.50      2.91840E-03
  176.50      2.90070E-03
  177.50      2.88150E-03
  178.50      2.86230E-03
  179.50      2.84190E-03
  180.50      2.82310E-03
  181.50      2.80400E-03
  182.50      2.78470E-03
  183.50      2.76680E-03
  184.50      2.74770E-03
  185.50      2.72870E-03
  186.50      2.71030E-03
  187.50      2.69220E-03
  188.50      2.67440E-03
  189.50      2.65740E-03
  190.50      2.64000E-03
  191.50      2.62240E-03
  192.50      2.60220E-03
  193.50      2.58810E-03
  194.50      2.57120E-03
  195.50      2.55410E-03
  196.70      2.53430E-03
  197.60      2.51950E-03
  198.40      2.50650E-03
  199.50      2.48850E-03
  200.50      2.47260E-03
  201.50      2.45670E-03
  202.50      2.44090E-03
  203.50      2.42530E-03
  204.50      2.40970E-03
  205.50      1.88360E-03
  206.50      1.82150E-03
  207.40      1.84540E-03
  207.80      1.88150E-03
  208.50      1.97360E-03
  209.50      2.17430E-03
  210.50      2.30460E-03
  211.50      2.31280E-03
  212.50      2.29940E-03
  213.50      2.28070E-03
  214.50      2.26970E-03
  215.50      2.28280E-03
  216.50      2.22190E-03
  217.50      2.27150E-03
  218.50      2.18990E-03
  219.50      2.24370E-03
  220.50      2.23530E-03
  221.50      2.14290E-03
  222.50      2.20720E-03
  223.50      2.19600E-03
  224.50      2.17860E-03
  225.50      2.09080E-03
  226.50      2.15510E-03
  227.50      2.14230E-03
  228.50      2.12850E-03
  229.50      2.10270E-03
  230.50      2.02980E-03
  231.50      2.08700E-03
  232.50      2.07770E-03
  233.50      2.06520E-03
  234.50      2.05270E-03
  235.50      2.04030E-03
  236.50      2.02810E-03
  237.50      2.01570E-03
  238.50      1.93590E-03
  239.50      1.98920E-03
  240.50      1.98010E-03
  241.50      1.96820E-03
  242.50      1.95670E-03
  243.50      1.94520E-03
  244.50      1.93380E-03
  245.50      1.92210E-03
  246.50      1.91120E-03
  247.50      1.90010E-03
  248.50      1.88900E-03
  249.50      1.84510E-03
  250.50      1.85820E-03
  251.30      1.73410E-03
  251.80      1.84690E-03
  252.50      1.84560E-03
  253.50      1.83520E-03
  254.50      1.82470E-03
  255.50      1.81430E-03
  256.50      1.80400E-03
  257.50      1.79380E-03
  258.50      1.78370E-03
  259.50      1.77330E-03
  260.50      1.76520E-03
  261.50      1.75520E-03
  262.50      1.74540E-03
  263.50      1.73570E-03
  264.50      1.72600E-03
  265.50      1.71610E-03
  266.50      1.70610E-03
  267.50      1.69590E-03
  268.50      1.68810E-03
  269.50      1.67680E-03
  270.50      1.66970E-03
  271.50      1.66050E-03
  272.50      1.64790E-03
  273.50      1.59340E-03
  274.50      1.63350E-03
  275.50      1.62470E-03
  276.50      1.61230E-03
  277.50      1.60720E-03
  278.50      1.59850E-03
  279.50      1.58960E-03
  280.50      1.58140E-03
  281.50      1.57300E-03
  282.50      1.56090E-03
  283.50      1.55450E-03
  284.50      1.54810E-03
  285.50      1.53990E-03
  286.50      1.53180E-03
  287.50      1.52380E-03
  288.50      1.51580E-03
  289.50      1.50780E-03
  291.00      1.49610E-03
  293.00      1.48060E-03
  295.00      1.46210E-03
  297.00      1.45020E-03
  299.00      1.43520E-03
  301.00      1.42080E-03
  303.00      1.40620E-03
  305.00      1.39210E-03
  307.00      1.37840E-03
  309.00      1.36470E-03
  311.00      1.35110E-03
  313.00      1.33800E-03
  315.00      1.32490E-03
  317.00      1.31190E-03
  319.00      1.29440E-03
  321.00      1.26770E-03
  323.00      1.27420E-03
  325.00      1.26190E-03
  327.00      1.24950E-03
  329.00      1.23770E-03
  331.00      1.22640E-03
  333.00      1.21490E-03
  335.00      1.20280E-03
  337.00      1.19230E-03
  339.00      1.18120E-03
  341.00      1.17030E-03
  343.00      1.15860E-03
  345.00      1.14680E-03
  347.00      1.13740E-03
  349.00      1.12810E-03
  351.00      1.11810E-03
  353.00      1.10750E-03
  355.00      1.09710E-03
  357.00      1.08930E-03
  359.00      1.07680E-03
  361.00      1.06870E-03
  363.00      1.05750E-03
  364.00      1.04050E-03
  365.00      9.71370E-04
  367.00      9.64440E-04
  369.00      9.57790E-04
  371.00      9.52170E-04
  373.00      9.53270E-04
  375.00      9.59270E-04
  377.00      9.60310E-04
  379.00      9.75150E-04
  381.00      9.94520E-04
  383.00      9.39270E-04
  385.00      9.98330E-04
  387.00      1.00760E-03
  389.00      9.06030E-04
  391.00      9.96100E-04
  393.00      9.88470E-04
  395.00      9.82100E-04
  397.00      8.73270E-04
  399.00      9.63020E-04
  401.00      9.62330E-04
  403.00      9.31870E-04
  405.00      9.51510E-04
  407.00      9.41070E-04
  409.00      9.01110E-04
  411.00      8.44130E-04
  413.00      9.14330E-04
  415.00      9.10350E-04
  417.00      9.05760E-04
  419.00      8.94220E-04
  421.00      8.79960E-04
  423.00      8.84350E-04
  425.00      8.77240E-04
  427.00      8.70210E-04
  429.00      8.63270E-04
  431.00      8.53470E-04
  433.00      8.10660E-04
  435.00      7.76070E-04
  437.00      8.32380E-04
  439.00      8.22200E-04
  441.00      8.23270E-04
  443.00      8.16370E-04
  445.00      8.10620E-04
  447.00      7.90340E-04
  449.00      7.98150E-04
  451.00      7.92090E-04
  453.00      7.84600E-04
  455.00      7.66750E-04
  457.00      7.74180E-04
  459.00      7.68340E-04
  461.00      7.62570E-04
  463.00      7.56800E-04
  465.00      7.50740E-04
  467.00      7.44840E-04
  469.00      7.17210E-04
  471.00      7.31310E-04
  473.00      7.29280E-04
  475.00      7.23940E-04
  477.00      7.18660E-04
  479.00      7.13440E-04
  481.00      7.08260E-04
  483.00      7.00620E-04
  485.00      6.72420E-04
  487.00      6.35670E-04
  489.00      6.84350E-04
  491.00      6.82820E-04
  493.00      6.71640E-04
  495.00      6.73620E-04
  497.00      6.68890E-04
  499.00      6.64200E-04
  501.00      6.56500E-04
  503.00      6.54950E-04
  505.00      6.49480E-04
  507.00      6.45910E-04
  509.00      6.41450E-04
  511.00      6.37040E-04
  513.00      6.32680E-04
  515.00      6.28360E-04
  517.00      6.24080E-04
  519.00      6.19850E-04
  521.00      6.15660E-04
  523.00      6.11510E-04
  525.00      6.07400E-04
  527.00      6.03330E-04
  529.00      5.99310E-04
  531.00      5.95320E-04
  533.00      5.91380E-04
  535.00      5.87470E-04
  537.00      5.83600E-04
  539.00      5.79760E-04
  541.00      5.65730E-04
  543.00      5.72100E-04
  545.00      5.68490E-04
  547.00      5.64810E-04
  549.00      5.61160E-04
  551.00      5.57540E-04
  553.00      5.53970E-04
  555.00      5.50420E-04
  557.00      5.46910E-04
  559.00      5.43400E-04
  561.00      5.39990E-04
  563.00      5.36580E-04
  565.00      5.33200E-04
  567.00      5.29850E-04
  569.00      5.22140E-04
  571.00      4.99240E-04
  573.00      4.96340E-04
  575.00      4.93470E-04
  577.00      4.90630E-04
  579.00      4.87880E-04
  581.00      4.85250E-04
  583.00      4.82910E-04
  585.00      4.80970E-04
  587.00      4.73960E-04
  589.00      4.77730E-04
  591.00      4.76910E-04
  593.00      4.76040E-04
  595.00      4.75330E-04
  597.00      4.74760E-04
  599.00      4.74460E-04
  601.00      4.73590E-04
  603.00      4.72350E-04
  605.00      4.71690E-04
  607.00      4.69160E-04
  609.00      4.66880E-04
  611.00      4.63960E-04
  613.00      4.61410E-04
  615.00      4.58720E-04
  617.00      4.55760E-04
  619.00      4.53390E-04
  621.00      4.50760E-04
  623.00      4.47590E-04
  625.00      4.45560E-04
  627.00      4.43010E-04
  629.00      4.40460E-04
  631.00      4.36980E-04
  633.00      4.35440E-04
  635.00      4.32980E-04
  637.00      4.30520E-04
  639.00      4.28070E-04
  641.00      4.24140E-04
  643.00      4.23270E-04
  645.00      4.20900E-04
  647.00      4.18550E-04
  649.00      4.16210E-04
  651.00      4.13510E-04
  653.00      4.08310E-04
  655.00      4.00630E-04
  657.00      3.76080E-04
  659.00      4.02680E-04
  661.00      4.02540E-04
  663.00      4.00410E-04
  665.00      3.98280E-04
  667.00      3.93770E-04
  669.00      3.89420E-04
  671.00      3.91800E-04
  673.00      3.89720E-04
  675.00      3.87620E-04
  677.00      3.85540E-04
  679.00      3.83480E-04
  681.00      3.81430E-04
  683.00      3.79400E-04
  685.00      3.77380E-04
  687.00      3.75380E-04
  689.00      3.70290E-04
  691.00      3.71280E-04
  693.00      3.69480E-04
  695.00      3.67540E-04
  697.00      3.65620E-04
  699.00      3.63710E-04
  701.00      3.61820E-04
  703.00      3.59940E-04
  705.00      3.58080E-04
  707.00      3.53880E-04
  709.00      3.54400E-04
  711.00      3.52580E-04
  713.00      3.50780E-04
  715.00      3.48980E-04
  717.00      3.44930E-04
  719.00      3.44060E-04
  721.00      3.43690E-04
  723.00      3.41950E-04
  725.00      3.40230E-04
  727.00      3.38520E-04
  729.00      3.35760E-04
  731.00      3.35130E-04
  733.00      3.33460E-04
  735.00      3.31790E-04
  737.00      3.30150E-04
  739.00      3.28510E-04
  741.00      3.26880E-04
  743.00      3.25270E-04
  745.00      3.23680E-04
  747.00      3.22090E-04
  749.00      3.20510E-04
  751.00      3.18940E-04
  753.00      3.17390E-04
  755.00      3.15850E-04
  757.00      3.14310E-04
  759.00      3.09170E-04
  761.00      3.11050E-04
  763.00      3.09790E-04
  765.00      3.08300E-04
  767.00      3.06820E-04
  769.00      3.05350E-04
  771.00      3.03900E-04
  773.00      3.02450E-04
  775.00      3.01020E-04
  777.00      2.99590E-04
  779.00      2.98170E-04
  781.00      2.96740E-04
  783.00      2.95370E-04
  785.00      2.94060E-04
  787.00      2.92680E-04
  789.00      2.91310E-04
  791.00      2.89960E-04
  793.00      2.88610E-04
  795.00      2.87270E-04
  797.00      2.85940E-04
  799.00      2.84620E-04
  801.00      2.83310E-04
  803.00      2.82010E-04
  805.00      2.80710E-04
  807.00      2.79430E-04
  809.00      2.78150E-04
  811.00      2.76880E-04
  813.00      2.75630E-04
  815.00      2.74370E-04
  817.00      2.73130E-04
  819.00      2.71100E-04
  821.00      2.63690E-04
  823.00      2.61020E-04
  825.00      2.61060E-04
  827.00      2.60230E-04
  829.00      2.59290E-04
  831.00      2.58210E-04
  833.00      2.57070E-04
  835.00      2.55800E-04
  837.00      2.54860E-04
  839.00      2.53840E-04
  841.00      2.52800E-04
  843.00      2.51750E-04
  845.00      2.50450E-04
  847.00      2.49760E-04
  849.00      2.48790E-04
  851.00      2.47950E-04
  853.00      2.46930E-04
  855.00      2.46030E-04
  857.00      2.45390E-04
  859.00      2.43710E-04
  861.00      2.43380E-04
  863.00      2.43190E-04
  865.00      2.41640E-04
  867.00      2.39900E-04
  869.00      2.40860E-04
  871.00      2.40640E-04
  873.00      2.38700E-04
  875.00      2.34910E-04
  877.00      2.36490E-04
  879.00      2.37970E-04
  881.00      2.37690E-04
  883.00      2.36510E-04
  885.00      2.31570E-04
  887.00      2.27370E-04
  889.00      2.32840E-04
  891.00      2.33790E-04
  893.00      2.33320E-04
  895.00      2.32680E-04
  897.00      2.31330E-04
  899.00      2.27970E-04
  901.00      2.18990E-04
  903.00      2.21550E-04
  905.00      2.26430E-04
  907.00      2.26120E-04
  909.00      2.26130E-04
  911.00      2.25390E-04
  913.00      2.24980E-04
  915.00      2.24020E-04
  917.00      2.22410E-04
  919.00      2.20780E-04
  921.00      2.15800E-04
  923.00      2.05770E-04
  925.00      2.13730E-04
  927.00      2.17040E-04
  929.00      2.17130E-04
  931.00      2.16430E-04
  933.00      2.15720E-04
  935.00      2.11190E-04
  937.00      2.13770E-04
  939.00      2.13420E-04
  941.00      2.12570E-04
  943.00      2.11730E-04
  945.00      2.10880E-04
  947.00      2.09610E-04
  949.00      2.08620E-04
  951.00      2.06220E-04
  953.00      2.01090E-04
  955.00      1.91610E-04
  957.00      2.01310E-04
  959.00      2.03840E-04
  961.00      2.03760E-04
  963.00      2.03190E-04
  965.00      2.02740E-04
  967.00      2.01950E-04
  969.00      2.01130E-04
  971.00      2.00220E-04
  973.00      1.99610E-04
  975.00      1.98750E-04
  977.00      1.97620E-04
  979.00      1.97310E-04
  981.00      1.96550E-04
  983.00      1.95800E-04
  985.00      1.95050E-04
  987.00      1.94310E-04
  989.00      1.93570E-04
  991.00      1.92830E-04
  993.00      1.92100E-04
  995.00      1.91370E-04
  997.00      1.90640E-04
  999.00      1.89490E-04
  1002.5      1.83870E-04
  1007.5      1.80820E-04
  1012.5      1.82550E-04
  1017.5      1.83460E-04
  1022.5      1.81750E-04
  1027.5      1.80100E-04
  1032.5      1.78160E-04
  1037.5      1.76830E-04
  1042.5      1.74840E-04
  1047.5      1.73650E-04
  1052.5      1.72100E-04
  1057.5      1.70560E-04
  1062.5      1.69040E-04
  1067.5      1.67470E-04
  1072.5      1.66070E-04
  1077.5      1.64610E-04
  1082.5      1.62490E-04
  1087.5      1.61350E-04
  1092.5      1.53210E-04
  1097.5      1.56530E-04
  1102.5      1.57260E-04
  1107.5      1.56220E-04
  1112.5      1.54930E-04
  1117.5      1.53650E-04
  1122.5      1.52340E-04
  1127.5      1.51070E-04
  1132.5      1.49810E-04
  1137.5      1.48560E-04
  1142.5      1.47330E-04
  1147.5      1.46110E-04
  1152.5      1.44910E-04
  1157.5      1.43720E-04
  1162.5      1.41430E-04
  1167.5      1.40790E-04
  1172.5      1.40240E-04
  1177.5      1.39110E-04
  1182.5      1.37990E-04
  1187.5      1.36880E-04
  1192.5      1.35790E-04
  1197.5      1.34160E-04
  1202.5      1.33650E-04
  1207.5      1.32600E-04
  1212.5      1.31560E-04
  1217.5      1.30530E-04
  1222.5      1.29510E-04
  1227.5      1.28510E-04
  1232.5      1.27510E-04
  1237.5      1.26530E-04
  1242.5      1.25560E-04
  1247.5      1.24600E-04
  1252.5      1.23580E-04
  1257.5      1.22720E-04
  1262.5      1.21790E-04
  1267.5      1.20870E-04
  1272.5      1.19940E-04
  1277.5      1.17820E-04
  1282.5      1.12750E-04
  1287.5      1.16700E-04
  1292.5      1.16440E-04
  1297.5      1.15340E-04
  1302.5      1.14740E-04
  1307.5      1.13900E-04
  1312.5      1.13070E-04
  1317.5      1.12250E-04
  1322.5      1.11440E-04
  1327.5      1.10640E-04
  1332.5      1.09840E-04
  1337.5      1.09060E-04
  1342.5      1.08260E-04
  1347.5      1.07510E-04
  1352.5      1.06750E-04
  1357.5      1.06000E-04
  1362.5      1.05250E-04
  1367.5      1.04520E-04
  1372.5      1.03790E-04
  1377.5      1.03070E-04
  1382.5      1.02350E-04
  1387.5      1.01640E-04
  1392.5      1.00950E-04
  1397.5      1.00250E-04
