 Castelli and Kurucz 2004-2012 Atmosphere
 T     33000.     G    5.00000 [-2.5a] N(He)/Ntot=0.0784 VTURB=2  L/H=1.25 NOVE
 Wavelength  Eddington Hnu
   (nm)    (ergs/s/cm2/Hz/sr)
  9.0900      1.29560E-31
  9.3500      8.31580E-31
  9.6100      4.84670E-30
  9.7700      1.37140E-29
  9.9600      4.52300E-29
  10.200      1.92120E-28
  10.380      5.45310E-28
  10.560      1.49580E-27
  10.770      4.65980E-27
  11.040      1.88920E-26
  11.400      1.10610E-25
  11.780      6.38970E-25
  12.130      2.92670E-24
  12.480      1.23480E-23
  12.710      3.05070E-23
  12.840      5.01760E-23
  13.050      1.09860E-22
  13.240      2.18670E-22
  13.390      3.71470E-22
  13.660      9.38020E-22
  13.980      2.69090E-21
  14.330      8.08670E-21
  14.720      2.59680E-20
  15.100      7.65550E-20
  15.520      2.38060E-19
  15.880      6.01390E-19
  16.200      1.32570E-18
  16.600      3.41410E-18
  17.030      9.00050E-18
  17.340      1.75680E-17
  17.680      3.56500E-17
  18.020      7.04620E-17
  18.170      9.44180E-17
  18.610      2.16970E-16
  19.100      5.24020E-16
  19.390      8.65090E-16
  19.840      1.82900E-15
  20.180      3.15040E-15
  20.500      5.16900E-15
  21.050      1.16960E-14
  21.620      2.60830E-14
  21.980      4.23570E-14
  22.300      6.43250E-14
  22.680      1.04050E-13
  23.000      5.36990E-12
  23.400      3.63370E-11
  24.000      9.91930E-11
  24.650      2.19680E-10
  25.240      3.58510E-10
  25.680      3.14360E-10
  26.000      5.92790E-10
  26.400      7.29450E-10
  26.850      9.68670E-10
  27.350      1.27010E-09
  27.850      1.61530E-09
  28.400      2.23410E-09
  29.000      2.99570E-09
  29.600      3.88640E-09
  30.100      4.18010E-09
  30.800      5.52050E-09
  31.800      1.11680E-08
  32.800      1.70290E-08
  33.800      2.61450E-08
  34.800      3.86840E-08
  35.700      5.34560E-08
  36.600      7.47870E-08
  37.500      9.96720E-08
  38.500      1.39860E-07
  39.500      1.89710E-07
  40.500      2.53420E-07
  41.400      3.27540E-07
  42.200      4.03080E-07
  43.000      4.93310E-07
  44.100      6.47010E-07
  45.100      8.19820E-07
  46.000      9.94870E-07
  47.000      1.24080E-06
  48.000      1.52030E-06
  49.000      1.83960E-06
  50.000      2.23460E-06
  50.600      9.89290E-06
  51.200      3.63260E-05
  52.000      3.73110E-05
  53.000      4.16380E-05
  54.000      3.95300E-05
  55.000      4.50330E-05
  56.000      4.77950E-05
  57.000      5.03620E-05
  58.000      4.94250E-05
  59.000      5.46110E-05
  60.000      5.63560E-05
  61.000      5.91940E-05
  62.000      6.23690E-05
  63.000      6.56540E-05
  64.000      6.76410E-05
  65.000      7.13020E-05
  65.800      7.31890E-05
  66.500      7.56670E-05
  67.500      7.89620E-05
  68.500      8.04120E-05
  69.500      8.69070E-05
  70.500      8.81640E-05
  71.600      9.43010E-05
  72.600      9.80560E-05
  73.500      1.02720E-04
  74.500      1.06320E-04
  75.500      1.10230E-04
  76.500      1.14470E-04
  77.500      1.19430E-04
  78.500      1.24540E-04
  79.500      1.28560E-04
  80.500      1.33200E-04
  81.500      1.37830E-04
  82.500      1.43290E-04
  83.500      1.43010E-04
  84.500      1.52950E-04
  85.500      1.57850E-04
  86.500      1.63080E-04
  87.500      1.68130E-04
  88.500      1.73320E-04
  89.500      1.78530E-04
  90.500      1.83060E-04
  91.500      1.94650E-04
  92.500      5.79740E-04
  93.500      1.02860E-03
  94.500      1.89270E-03
  95.500      2.26410E-03
  96.500      2.95910E-03
  97.500      1.74540E-03
  98.500      3.16390E-03
  99.500      2.94780E-03
  100.50      3.20200E-03
  101.50      3.08430E-03
  102.50      1.66220E-03
  103.50      2.97930E-03
  104.50      3.16360E-03
  105.50      3.15490E-03
  106.50      3.06680E-03
  107.50      3.05920E-03
  108.50      2.85600E-03
  109.50      3.06280E-03
  110.50      2.99840E-03
  111.50      2.98180E-03
  112.50      2.90440E-03
  113.50      2.96750E-03
  114.50      2.92810E-03
  115.50      2.90280E-03
  116.50      2.89360E-03
  117.50      2.64280E-03
  118.50      2.83070E-03
  119.50      2.78630E-03
  120.50      2.64700E-03
  121.50      1.52040E-03
  122.50      2.61240E-03
  123.50      2.72020E-03
  124.50      2.68680E-03
  125.50      2.70190E-03
  126.50      2.68310E-03
  127.50      2.66340E-03
  128.50      2.64310E-03
  129.50      2.57220E-03
  130.50      2.56940E-03
  131.50      2.58140E-03
  132.50      2.55580E-03
  133.50      2.50930E-03
  134.50      2.51870E-03
  135.50      2.50160E-03
  136.50      2.47850E-03
  137.50      2.46050E-03
  138.50      2.44220E-03
  139.50      2.36580E-03
  140.50      2.35600E-03
  141.50      2.38240E-03
  142.50      2.36090E-03
  143.50      2.34780E-03
  144.20      2.33730E-03
  144.70      2.32780E-03
  145.50      2.31240E-03
  146.50      2.29520E-03
  147.50      2.27690E-03
  148.50      2.26140E-03
  149.50      2.24290E-03
  150.50      2.22260E-03
  151.20      2.21450E-03
  151.70      2.20540E-03
  152.50      2.19010E-03
  153.50      2.16220E-03
  154.50      2.11420E-03
  155.50      2.10430E-03
  156.50      2.11440E-03
  157.50      2.10490E-03
  158.50      2.09210E-03
  159.50      2.07690E-03
  160.50      2.05110E-03
  161.50      2.03400E-03
  162.50      2.01800E-03
  163.50      1.97930E-03
  164.50      1.89740E-03
  165.50      1.98480E-03
  166.50      1.97030E-03
  167.20      1.95830E-03
  167.70      1.95940E-03
  168.50      1.94680E-03
  169.50      1.93250E-03
  170.50      1.91740E-03
  171.50      1.89560E-03
  172.50      1.88050E-03
  173.50      1.87960E-03
  174.50      1.86510E-03
  175.50      1.85070E-03
  176.50      1.83840E-03
  177.50      1.82640E-03
  178.50      1.81390E-03
  179.50      1.80160E-03
  180.50      1.78990E-03
  181.50      1.77700E-03
  182.50      1.76440E-03
  183.50      1.75310E-03
  184.50      1.73840E-03
  185.50      1.72260E-03
  186.50      1.71270E-03
  187.50      1.70420E-03
  188.50      1.69050E-03
  189.50      1.67590E-03
  190.50      1.66980E-03
  191.50      1.65400E-03
  192.50      1.64110E-03
  193.50      1.63460E-03
  194.50      1.62610E-03
  195.50      1.61120E-03
  196.70      1.60230E-03
  197.60      1.59420E-03
  198.40      1.58410E-03
  199.50      1.57020E-03
  200.50      1.56380E-03
  201.50      1.55430E-03
  202.50      1.54450E-03
  203.50      1.53390E-03
  204.50      1.52400E-03
  205.50      1.36910E-03
  206.50      1.34570E-03
  207.40      1.34520E-03
  207.80      1.34600E-03
  208.50      1.36530E-03
  209.50      1.41130E-03
  210.50      1.45690E-03
  211.50      1.45900E-03
  212.50      1.45080E-03
  213.50      1.44100E-03
  214.50      1.43210E-03
  215.50      1.42690E-03
  216.50      1.41040E-03
  217.50      1.41310E-03
  218.50      1.39180E-03
  219.50      1.39530E-03
  220.50      1.38770E-03
  221.50      1.36360E-03
  222.50      1.37040E-03
  223.50      1.36210E-03
  224.50      1.35330E-03
  225.50      1.32960E-03
  226.50      1.33720E-03
  227.50      1.32920E-03
  228.50      1.32070E-03
  229.50      1.30010E-03
  230.50      1.28940E-03
  231.50      1.29700E-03
  232.50      1.28950E-03
  233.50      1.28180E-03
  234.50      1.27420E-03
  235.50      1.26670E-03
  236.50      1.25920E-03
  237.50      1.25170E-03
  238.50      1.22980E-03
  239.50      1.23660E-03
  240.50      1.22990E-03
  241.50      1.22270E-03
  242.50      1.21560E-03
  243.50      1.20840E-03
  244.50      1.20160E-03
  245.50      1.19460E-03
  246.50      1.18790E-03
  247.50      1.18100E-03
  248.50      1.17430E-03
  249.50      1.14330E-03
  250.50      1.15960E-03
  251.30      1.12760E-03
  251.80      1.15080E-03
  252.50      1.14800E-03
  253.50      1.14160E-03
  254.50      1.13480E-03
  255.50      1.12870E-03
  256.50      1.12260E-03
  257.50      1.11640E-03
  258.50      1.11030E-03
  259.50      1.10420E-03
  260.50      1.10220E-03
  261.50      1.09610E-03
  262.50      1.09010E-03
  263.50      1.08400E-03
  264.50      1.07770E-03
  265.50      1.07130E-03
  266.50      1.06410E-03
  267.50      1.05690E-03
  268.50      1.05510E-03
  269.50      1.04410E-03
  270.50      1.04380E-03
  271.50      1.03830E-03
  272.50      1.02630E-03
  273.50      1.01800E-03
  274.50      1.02180E-03
  275.50      1.01640E-03
  276.50      1.00390E-03
  277.50      1.00580E-03
  278.50      1.00050E-03
  279.50      9.94220E-04
  280.50      9.89900E-04
  281.50      9.85000E-04
  282.50      9.71530E-04
  283.50      9.70040E-04
  284.50      9.69840E-04
  285.50      9.64820E-04
  286.50      9.59880E-04
  287.50      9.55000E-04
  288.50      9.50180E-04
  289.50      9.45350E-04
  291.00      9.38170E-04
  293.00      9.28750E-04
  295.00      9.13190E-04
  297.00      9.10310E-04
  299.00      9.01280E-04
  301.00      8.92410E-04
  303.00      8.83670E-04
  305.00      8.75090E-04
  307.00      8.66670E-04
  309.00      8.58020E-04
  311.00      8.50060E-04
  313.00      8.42470E-04
  315.00      8.34410E-04
  317.00      8.26570E-04
  319.00      8.12050E-04
  321.00      8.07910E-04
  323.00      8.03200E-04
  325.00      7.95680E-04
  327.00      7.88940E-04
  329.00      7.80910E-04
  331.00      7.74660E-04
  333.00      7.67590E-04
  335.00      7.59540E-04
  337.00      7.53830E-04
  339.00      7.47120E-04
  341.00      7.40480E-04
  343.00      7.31610E-04
  345.00      7.23010E-04
  347.00      7.18380E-04
  349.00      7.12140E-04
  351.00      7.06440E-04
  353.00      7.00840E-04
  355.00      6.94890E-04
  357.00      6.92870E-04
  359.00      6.81940E-04
  361.00      6.78940E-04
  363.00      6.70460E-04
  364.00      6.72000E-04
  365.00      6.63600E-04
  367.00      6.60210E-04
  369.00      6.55280E-04
  371.00      6.42610E-04
  373.00      6.32820E-04
  375.00      6.27650E-04
  377.00      6.14060E-04
  379.00      6.31180E-04
  381.00      6.54960E-04
  383.00      5.90040E-04
  385.00      6.75370E-04
  387.00      6.90640E-04
  389.00      5.69330E-04
  391.00      6.87900E-04
  393.00      6.90060E-04
  395.00      6.78740E-04
  397.00      5.48710E-04
  399.00      6.62610E-04
  401.00      6.68290E-04
  403.00      6.36370E-04
  405.00      6.64440E-04
  407.00      6.55680E-04
  409.00      6.06360E-04
  411.00      5.43720E-04
  413.00      6.32400E-04
  415.00      6.32680E-04
  417.00      6.33330E-04
  419.00      6.28600E-04
  421.00      6.22970E-04
  423.00      6.19170E-04
  425.00      6.14030E-04
  427.00      6.08850E-04
  429.00      6.02950E-04
  431.00      5.94180E-04
  433.00      5.42260E-04
  435.00      5.05050E-04
  437.00      5.78450E-04
  439.00      5.64400E-04
  441.00      5.75650E-04
  443.00      5.70080E-04
  445.00      5.67220E-04
  447.00      5.37990E-04
  449.00      5.58020E-04
  451.00      5.54490E-04
  453.00      5.50220E-04
  455.00      5.44440E-04
  457.00      5.41910E-04
  459.00      5.37760E-04
  461.00      5.33790E-04
  463.00      5.29800E-04
  465.00      5.25200E-04
  467.00      5.21880E-04
  469.00      5.13190E-04
  471.00      5.08550E-04
  473.00      5.10540E-04
  475.00      5.06780E-04
  477.00      5.03110E-04
  479.00      4.99450E-04
  481.00      4.94570E-04
  483.00      4.87830E-04
  485.00      4.52740E-04
  487.00      4.13860E-04
  489.00      4.75200E-04
  491.00      4.75960E-04
  493.00      4.62800E-04
  495.00      4.71500E-04
  497.00      4.68300E-04
  499.00      4.65020E-04
  501.00      4.56690E-04
  503.00      4.58560E-04
  505.00      4.53270E-04
  507.00      4.52250E-04
  509.00      4.49140E-04
  511.00      4.46060E-04
  513.00      4.43010E-04
  515.00      4.39990E-04
  517.00      4.37000E-04
  519.00      4.34050E-04
  521.00      4.31130E-04
  523.00      4.28240E-04
  525.00      4.25370E-04
  527.00      4.22530E-04
  529.00      4.19720E-04
  531.00      4.16940E-04
  533.00      4.14190E-04
  535.00      4.11460E-04
  537.00      4.08760E-04
  539.00      4.06080E-04
  541.00      4.02340E-04
  543.00      4.00820E-04
  545.00      3.98220E-04
  547.00      3.95650E-04
  549.00      3.93100E-04
  551.00      3.90580E-04
  553.00      3.88080E-04
  555.00      3.85610E-04
  557.00      3.83160E-04
  559.00      3.80730E-04
  561.00      3.78330E-04
  563.00      3.75940E-04
  565.00      3.73590E-04
  567.00      3.71250E-04
  569.00      3.68700E-04
  571.00      3.65550E-04
  573.00      3.63310E-04
  575.00      3.61070E-04
  577.00      3.58890E-04
  579.00      3.56710E-04
  581.00      3.54550E-04
  583.00      3.52400E-04
  585.00      3.50220E-04
  587.00      3.38140E-04
  589.00      3.45310E-04
  591.00      3.44130E-04
  593.00      3.42760E-04
  595.00      3.40710E-04
  597.00      3.38700E-04
  599.00      3.36680E-04
  601.00      3.34690E-04
  603.00      3.32710E-04
  605.00      3.30750E-04
  607.00      3.28810E-04
  609.00      3.26880E-04
  611.00      3.24970E-04
  613.00      3.23070E-04
  615.00      3.21200E-04
  617.00      3.19340E-04
  619.00      3.17490E-04
  621.00      3.15660E-04
  623.00      3.13850E-04
  625.00      3.12050E-04
  627.00      3.10270E-04
  629.00      3.08500E-04
  631.00      3.06750E-04
  633.00      3.05010E-04
  635.00      3.03290E-04
  637.00      3.01580E-04
  639.00      2.99890E-04
  641.00      2.98210E-04
  643.00      2.96540E-04
  645.00      2.94890E-04
  647.00      2.93250E-04
  649.00      2.91620E-04
  651.00      2.89610E-04
  653.00      2.86650E-04
  655.00      2.74940E-04
  657.00      2.49370E-04
  659.00      2.80260E-04
  661.00      2.81310E-04
  663.00      2.80620E-04
  665.00      2.79220E-04
  667.00      2.74830E-04
  669.00      2.73360E-04
  671.00      2.74730E-04
  673.00      2.73250E-04
  675.00      2.71800E-04
  677.00      2.70350E-04
  679.00      2.68910E-04
  681.00      2.67480E-04
  683.00      2.66070E-04
  685.00      2.64670E-04
  687.00      2.63270E-04
  689.00      2.61890E-04
  691.00      2.60520E-04
  693.00      2.59160E-04
  695.00      2.57810E-04
  697.00      2.56480E-04
  699.00      2.55150E-04
  701.00      2.53830E-04
  703.00      2.52520E-04
  705.00      2.51220E-04
  707.00      2.46440E-04
  709.00      2.48660E-04
  711.00      2.47390E-04
  713.00      2.46130E-04
  715.00      2.44890E-04
  717.00      2.43620E-04
  719.00      2.42420E-04
  721.00      2.41200E-04
  723.00      2.39970E-04
  725.00      2.38780E-04
  727.00      2.37590E-04
  729.00      2.34700E-04
  731.00      2.35210E-04
  733.00      2.34070E-04
  735.00      2.32910E-04
  737.00      2.31760E-04
  739.00      2.30620E-04
  741.00      2.29490E-04
  743.00      2.28360E-04
  745.00      2.27270E-04
  747.00      2.26160E-04
  749.00      2.25060E-04
  751.00      2.23910E-04
  753.00      2.22880E-04
  755.00      2.21810E-04
  757.00      2.20740E-04
  759.00      2.19670E-04
  761.00      2.18620E-04
  763.00      2.17580E-04
  765.00      2.16540E-04
  767.00      2.15510E-04
  769.00      2.14490E-04
  771.00      2.13470E-04
  773.00      2.12460E-04
  775.00      2.11460E-04
  777.00      2.10460E-04
  779.00      2.09480E-04
  781.00      2.08420E-04
  783.00      2.07520E-04
  785.00      2.06710E-04
  787.00      2.05740E-04
  789.00      2.04750E-04
  791.00      2.03840E-04
  793.00      2.02900E-04
  795.00      2.01970E-04
  797.00      2.00950E-04
  799.00      2.00110E-04
  801.00      1.99200E-04
  803.00      1.98290E-04
  805.00      1.97350E-04
  807.00      1.96450E-04
  809.00      1.95290E-04
  811.00      1.94520E-04
  813.00      1.93720E-04
  815.00      1.92690E-04
  817.00      1.91980E-04
  819.00      1.90880E-04
  821.00      1.89770E-04
  823.00      1.89150E-04
  825.00      1.88410E-04
  827.00      1.87070E-04
  829.00      1.86750E-04
  831.00      1.85990E-04
  833.00      1.85080E-04
  835.00      1.83690E-04
  837.00      1.83320E-04
  839.00      1.82710E-04
  841.00      1.81920E-04
  843.00      1.81050E-04
  845.00      1.79390E-04
  847.00      1.79510E-04
  849.00      1.78460E-04
  851.00      1.77920E-04
  853.00      1.76760E-04
  855.00      1.76020E-04
  857.00      1.75810E-04
  859.00      1.72730E-04
  861.00      1.73350E-04
  863.00      1.74070E-04
  865.00      1.71400E-04
  867.00      1.68640E-04
  869.00      1.71750E-04
  871.00      1.72190E-04
  873.00      1.68710E-04
  875.00      1.62250E-04
  877.00      1.65910E-04
  879.00      1.69670E-04
  881.00      1.69770E-04
  883.00      1.68040E-04
  885.00      1.60270E-04
  887.00      1.54560E-04
  889.00      1.64150E-04
  891.00      1.66460E-04
  893.00      1.66430E-04
  895.00      1.66060E-04
  897.00      1.64700E-04
  899.00      1.60220E-04
  901.00      1.48020E-04
  903.00      1.52380E-04
  905.00      1.60290E-04
  907.00      1.60280E-04
  909.00      1.61290E-04
  911.00      1.61230E-04
  913.00      1.60660E-04
  915.00      1.59880E-04
  917.00      1.58560E-04
  919.00      1.56930E-04
  921.00      1.50170E-04
  923.00      1.37460E-04
  925.00      1.48760E-04
  927.00      1.54120E-04
  929.00      1.54960E-04
  931.00      1.54270E-04
  933.00      1.54520E-04
  935.00      1.53670E-04
  937.00      1.53410E-04
  939.00      1.52800E-04
  941.00      1.52180E-04
  943.00      1.51580E-04
  945.00      1.50840E-04
  947.00      1.49120E-04
  949.00      1.48860E-04
  951.00      1.45830E-04
  953.00      1.39190E-04
  955.00      1.27780E-04
  957.00      1.40790E-04
  959.00      1.44890E-04
  961.00      1.45240E-04
  963.00      1.44690E-04
  965.00      1.45140E-04
  967.00      1.44580E-04
  969.00      1.43910E-04
  971.00      1.43100E-04
  973.00      1.42910E-04
  975.00      1.42350E-04
  977.00      1.41810E-04
  979.00      1.41260E-04
  981.00      1.40720E-04
  983.00      1.40180E-04
  985.00      1.39640E-04
  987.00      1.39110E-04
  989.00      1.38580E-04
  991.00      1.38040E-04
  993.00      1.37530E-04
  995.00      1.36980E-04
  997.00      1.36110E-04
  999.00      1.35240E-04
  1002.5      1.28330E-04
  1007.5      1.25640E-04
  1012.5      1.31560E-04
  1017.5      1.31340E-04
  1022.5      1.30090E-04
  1027.5      1.28940E-04
  1032.5      1.27260E-04
  1037.5      1.26600E-04
  1042.5      1.25460E-04
  1047.5      1.24330E-04
  1052.5      1.23210E-04
  1057.5      1.22110E-04
  1062.5      1.21030E-04
  1067.5      1.19760E-04
  1072.5      1.18900E-04
  1077.5      1.17850E-04
  1082.5      1.15740E-04
  1087.5      1.15050E-04
  1092.5      1.05320E-04
  1097.5      1.10260E-04
  1102.5      1.11980E-04
  1107.5      1.11710E-04
  1112.5      1.10920E-04
  1117.5      1.09980E-04
  1122.5      1.09000E-04
  1127.5      1.08130E-04
  1132.5      1.07230E-04
  1137.5      1.06330E-04
  1142.5      1.05450E-04
  1147.5      1.04580E-04
  1152.5      1.03720E-04
  1157.5      1.02870E-04
  1162.5      1.02000E-04
  1167.5      1.01200E-04
  1172.5      1.00380E-04
  1177.5      9.95680E-05
  1182.5      9.87670E-05
  1187.5      9.79770E-05
  1192.5      9.71940E-05
  1197.5      9.53180E-05
  1202.5      9.56600E-05
  1207.5      9.49070E-05
  1212.5      9.41620E-05
  1217.5      9.34250E-05
  1222.5      9.26980E-05
  1227.5      9.19790E-05
  1232.5      9.12680E-05
  1237.5      9.05650E-05
  1242.5      8.98700E-05
  1247.5      8.91830E-05
  1252.5      8.83320E-05
  1257.5      8.78330E-05
  1262.5      8.71690E-05
  1267.5      8.65120E-05
  1272.5      8.56610E-05
  1277.5      8.33300E-05
  1282.5      7.75520E-05
  1287.5      8.29970E-05
  1292.5      8.31890E-05
  1297.5      8.21090E-05
  1302.5      8.21190E-05
  1307.5      8.15200E-05
  1312.5      8.09260E-05
  1317.5      8.03390E-05
  1322.5      7.97580E-05
  1327.5      7.91840E-05
  1332.5      7.86160E-05
  1337.5      7.80530E-05
  1342.5      7.74430E-05
  1347.5      7.69470E-05
  1352.5      7.64020E-05
  1357.5      7.58640E-05
  1362.5      7.53300E-05
  1367.5      7.48030E-05
  1372.5      7.42810E-05
  1377.5      7.37650E-05
  1382.5      7.32530E-05
  1387.5      7.27470E-05
  1392.5      7.22470E-05
  1397.5      7.17510E-05
