 Castelli and Kurucz 2004-2012 Atmosphere
 T     48000.     G    4.50000 [-2.5a] N(He)/Ntot=0.0784 VTURB=2  L/H=1.25 NOVE
 Wavelength  Eddington Hnu
   (nm)    (ergs/s/cm2/Hz/sr)
  9.0900      8.34970E-19
  9.3500      2.32670E-18
  9.6100      6.13360E-18
  9.7700      1.08900E-17
  9.9600      2.10070E-17
  10.200      4.66040E-17
  10.380      8.28570E-17
  10.560      1.44590E-16
  10.770      2.70790E-16
  11.040      5.87040E-16
  11.400      1.56160E-15
  11.780      4.13320E-15
  12.130      9.63950E-15
  12.480      2.14950E-14
  12.710      3.56190E-14
  12.840      4.70630E-14
  13.050      7.29260E-14
  13.240      1.07220E-13
  13.390      1.44300E-13
  13.660      2.42650E-13
  13.980      4.38840E-13
  14.330      8.15550E-13
  14.720      1.57020E-12
  15.100      2.89960E-12
  15.520      5.51350E-12
  15.880      9.32430E-12
  16.200      1.46360E-11
  16.600      2.50890E-11
  17.030      4.34880E-11
  17.340      6.36910E-11
  17.680      9.56060E-11
  18.020      1.41220E-10
  18.170      1.66140E-10
  18.610      2.68850E-10
  19.100      4.45480E-10
  19.390      5.94880E-10
  19.840      9.14570E-10
  20.180      1.25100E-09
  20.500      1.66410E-09
  21.050      2.66380E-09
  21.620      4.23170E-09
  21.980      5.60120E-09
  22.300      7.12880E-09
  22.680      9.40370E-09
  23.000      2.83410E-07
  23.400      3.89740E-06
  24.000      4.09120E-05
  24.650      1.69120E-04
  25.240      3.03280E-04
  25.680      2.07330E-04
  26.000      4.31240E-04
  26.400      5.32510E-04
  26.850      5.84400E-04
  27.350      6.68050E-04
  27.850      6.95660E-04
  28.400      7.65090E-04
  29.000      8.44410E-04
  29.600      7.82890E-04
  30.100      4.02050E-04
  30.800      5.37660E-04
  31.800      8.46690E-04
  32.800      9.33830E-04
  33.800      9.51290E-04
  34.800      1.00470E-03
  35.700      1.15460E-03
  36.600      1.26970E-03
  37.500      1.32730E-03
  38.500      1.26820E-03
  39.500      1.44630E-03
  40.500      1.56170E-03
  41.400      1.61520E-03
  42.200      1.62040E-03
  43.000      1.67630E-03
  44.100      1.78610E-03
  45.100      1.84280E-03
  46.000      1.84470E-03
  47.000      1.87880E-03
  48.000      1.96000E-03
  49.000      1.95150E-03
  50.000      2.07160E-03
  50.600      2.01840E-03
  51.200      2.17260E-03
  52.000      2.18430E-03
  53.000      2.24290E-03
  54.000      2.20330E-03
  55.000      2.17130E-03
  56.000      2.33360E-03
  57.000      2.39890E-03
  58.000      2.41390E-03
  59.000      2.47330E-03
  60.000      2.46290E-03
  61.000      2.42200E-03
  62.000      2.52120E-03
  63.000      2.51820E-03
  64.000      2.59720E-03
  65.000      2.59400E-03
  65.800      2.55940E-03
  66.500      2.65090E-03
  67.500      2.68460E-03
  68.500      2.64940E-03
  69.500      2.73430E-03
  70.500      2.66690E-03
  71.600      2.76710E-03
  72.600      2.80330E-03
  73.500      2.81970E-03
  74.500      2.82470E-03
  75.500      2.82330E-03
  76.500      2.80050E-03
  77.500      2.86960E-03
  78.500      2.84780E-03
  79.500      2.87310E-03
  80.500      2.90830E-03
  81.500      2.92230E-03
  82.500      2.94350E-03
  83.500      2.87970E-03
  84.500      2.95910E-03
  85.500      2.94500E-03
  86.500      2.98500E-03
  87.500      3.00130E-03
  88.500      3.00250E-03
  89.500      3.00830E-03
  90.500      2.98520E-03
  91.500      2.37490E-03
  92.500      3.88850E-03
  93.500      4.74350E-03
  94.500      5.49330E-03
  95.500      5.85270E-03
  96.500      6.31940E-03
  97.500      5.49820E-03
  98.500      6.24060E-03
  99.500      5.96670E-03
  100.50      6.20370E-03
  101.50      6.15770E-03
  102.50      5.37680E-03
  103.50      6.08000E-03
  104.50      6.08370E-03
  105.50      6.04840E-03
  106.50      5.96430E-03
  107.50      5.95750E-03
  108.50      5.72760E-03
  109.50      5.88980E-03
  110.50      5.83900E-03
  111.50      5.79300E-03
  112.50      5.71310E-03
  113.50      5.73210E-03
  114.50      5.69320E-03
  115.50      5.63430E-03
  116.50      5.58670E-03
  117.50      5.43850E-03
  118.50      5.53190E-03
  119.50      5.47380E-03
  120.50      5.44450E-03
  121.50      4.75310E-03
  122.50      5.36300E-03
  123.50      5.28870E-03
  124.50      5.25180E-03
  125.50      5.26180E-03
  126.50      5.22340E-03
  127.50      5.18540E-03
  128.50      5.14700E-03
  129.50      5.11060E-03
  130.50      5.06970E-03
  131.50      5.03350E-03
  132.50      4.99160E-03
  133.50      4.95990E-03
  134.50      4.92670E-03
  135.50      4.88310E-03
  136.50      4.83740E-03
  137.50      4.76950E-03
  138.50      4.76950E-03
  139.50      4.71050E-03
  140.50      4.65600E-03
  141.50      4.67110E-03
  142.50      4.63670E-03
  143.50      4.60690E-03
  144.20      4.56710E-03
  144.70      4.55510E-03
  145.50      4.52670E-03
  146.50      4.49500E-03
  147.50      4.47100E-03
  148.50      4.44650E-03
  149.50      4.41270E-03
  150.50      4.38280E-03
  151.20      4.36180E-03
  151.70      4.34270E-03
  152.50      4.32010E-03
  153.50      4.28520E-03
  154.50      4.18900E-03
  155.50      4.16280E-03
  156.50      4.19270E-03
  157.50      4.16470E-03
  158.50      4.13170E-03
  159.50      4.10380E-03
  160.50      4.07200E-03
  161.50      4.04360E-03
  162.50      4.00930E-03
  163.50      3.92550E-03
  164.50      3.76280E-03
  165.50      3.93120E-03
  166.50      3.90470E-03
  167.20      3.88080E-03
  167.70      3.87170E-03
  168.50      3.85020E-03
  169.50      3.82330E-03
  170.50      3.79580E-03
  171.50      3.74260E-03
  172.50      3.73370E-03
  173.50      3.71740E-03
  174.50      3.69080E-03
  175.50      3.66490E-03
  176.50      3.63970E-03
  177.50      3.61480E-03
  178.50      3.58980E-03
  179.50      3.56470E-03
  180.50      3.54010E-03
  181.50      3.51580E-03
  182.50      3.49160E-03
  183.50      3.46770E-03
  184.50      3.44400E-03
  185.50      3.42030E-03
  186.50      3.39700E-03
  187.50      3.37390E-03
  188.50      3.35100E-03
  189.50      3.32860E-03
  190.50      3.30620E-03
  191.50      3.28380E-03
  192.50      3.26080E-03
  193.50      3.24000E-03
  194.50      3.21830E-03
  195.50      3.19680E-03
  196.70      3.17130E-03
  197.60      3.15190E-03
  198.40      3.13560E-03
  199.50      3.11260E-03
  200.50      3.09230E-03
  201.50      3.07200E-03
  202.50      3.05180E-03
  203.50      3.03190E-03
  204.50      3.01150E-03
  205.50      2.38200E-03
  206.50      2.31880E-03
  207.40      2.37250E-03
  207.80      2.42870E-03
  208.50      2.59240E-03
  209.50      2.84600E-03
  210.50      2.89680E-03
  211.50      2.88620E-03
  212.50      2.86900E-03
  213.50      2.84550E-03
  214.50      2.83210E-03
  215.50      2.85580E-03
  216.50      2.77980E-03
  217.50      2.83660E-03
  218.50      2.74470E-03
  219.50      2.79950E-03
  220.50      2.78500E-03
  221.50      2.69170E-03
  222.50      2.74970E-03
  223.50      2.73300E-03
  224.50      2.71460E-03
  225.50      2.62770E-03
  226.50      2.68210E-03
  227.50      2.66550E-03
  228.50      2.64870E-03
  229.50      2.62720E-03
  230.50      2.55020E-03
  231.50      2.59910E-03
  232.50      2.58440E-03
  233.50      2.56860E-03
  234.50      2.55300E-03
  235.50      2.53740E-03
  236.50      2.52200E-03
  237.50      2.50670E-03
  238.50      2.42940E-03
  239.50      2.47570E-03
  240.50      2.46150E-03
  241.50      2.44670E-03
  242.50      2.43240E-03
  243.50      2.41790E-03
  244.50      2.40350E-03
  245.50      2.38860E-03
  246.50      2.37520E-03
  247.50      2.36120E-03
  248.50      2.34730E-03
  249.50      2.30850E-03
  250.50      2.31350E-03
  251.30      2.18300E-03
  251.80      2.29940E-03
  252.50      2.29190E-03
  253.50      2.27960E-03
  254.50      2.26640E-03
  255.50      2.25320E-03
  256.50      2.24030E-03
  257.50      2.22740E-03
  258.50      2.21460E-03
  259.50      2.20120E-03
  260.50      2.18950E-03
  261.50      2.17670E-03
  262.50      2.16470E-03
  263.50      2.15240E-03
  264.50      2.14030E-03
  265.50      2.12820E-03
  266.50      2.11620E-03
  267.50      2.10390E-03
  268.50      2.09260E-03
  269.50      2.08080E-03
  270.50      2.06940E-03
  271.50      2.05790E-03
  272.50      2.04600E-03
  273.50      1.98560E-03
  274.50      2.02390E-03
  275.50      2.01280E-03
  276.50      2.00150E-03
  277.50      1.99080E-03
  278.50      1.98000E-03
  279.50      1.96910E-03
  280.50      1.95850E-03
  281.50      1.94790E-03
  282.50      1.93710E-03
  283.50      1.92690E-03
  284.50      1.91660E-03
  285.50      1.90640E-03
  286.50      1.89620E-03
  287.50      1.88600E-03
  288.50      1.87600E-03
  289.50      1.86600E-03
  291.00      1.85120E-03
  293.00      1.83180E-03
  295.00      1.81240E-03
  297.00      1.79370E-03
  299.00      1.77490E-03
  301.00      1.75680E-03
  303.00      1.73860E-03
  305.00      1.72080E-03
  307.00      1.70310E-03
  309.00      1.68630E-03
  311.00      1.66930E-03
  313.00      1.65250E-03
  315.00      1.63620E-03
  317.00      1.61990E-03
  319.00      1.60320E-03
  321.00      1.56670E-03
  323.00      1.57260E-03
  325.00      1.55730E-03
  327.00      1.54160E-03
  329.00      1.52720E-03
  331.00      1.51250E-03
  333.00      1.49810E-03
  335.00      1.48360E-03
  337.00      1.46970E-03
  339.00      1.45580E-03
  341.00      1.44200E-03
  343.00      1.42880E-03
  345.00      1.41530E-03
  347.00      1.40230E-03
  349.00      1.38940E-03
  351.00      1.37660E-03
  353.00      1.36390E-03
  355.00      1.35140E-03
  357.00      1.33930E-03
  359.00      1.32700E-03
  361.00      1.31520E-03
  363.00      1.30310E-03
  364.00      1.27370E-03
  365.00      1.17410E-03
  367.00      1.16510E-03
  369.00      1.15890E-03
  371.00      1.16060E-03
  373.00      1.16730E-03
  375.00      1.18450E-03
  377.00      1.19700E-03
  379.00      1.20870E-03
  381.00      1.21840E-03
  383.00      1.17680E-03
  385.00      1.20990E-03
  387.00      1.21160E-03
  389.00      1.13830E-03
  391.00      1.19410E-03
  393.00      1.17690E-03
  395.00      1.17600E-03
  397.00      1.09910E-03
  399.00      1.15530E-03
  401.00      1.14930E-03
  403.00      1.12310E-03
  405.00      1.13100E-03
  407.00      1.12150E-03
  409.00      1.09560E-03
  411.00      1.04760E-03
  413.00      1.09310E-03
  415.00      1.08480E-03
  417.00      1.07630E-03
  419.00      1.06390E-03
  421.00      1.04620E-03
  423.00      1.05040E-03
  425.00      1.04190E-03
  427.00      1.03360E-03
  429.00      1.02540E-03
  431.00      1.01700E-03
  433.00      9.87980E-04
  435.00      9.57810E-04
  437.00      9.92730E-04
  439.00      9.85080E-04
  441.00      9.77940E-04
  443.00      9.70340E-04
  445.00      9.62860E-04
  447.00      9.52610E-04
  449.00      9.48110E-04
  451.00      9.40870E-04
  453.00      9.32700E-04
  455.00      9.13490E-04
  457.00      9.19610E-04
  459.00      9.12690E-04
  461.00      9.05840E-04
  463.00      8.99030E-04
  465.00      8.92280E-04
  467.00      8.85080E-04
  469.00      8.54040E-04
  471.00      8.72280E-04
  473.00      8.66320E-04
  475.00      8.59990E-04
  477.00      8.53720E-04
  479.00      8.47520E-04
  481.00      8.41380E-04
  483.00      8.35240E-04
  485.00      8.16810E-04
  487.00      7.83460E-04
  489.00      8.16720E-04
  491.00      8.11690E-04
  493.00      8.04990E-04
  495.00      8.00250E-04
  497.00      7.94620E-04
  499.00      7.89040E-04
  501.00      7.83060E-04
  503.00      7.78070E-04
  505.00      7.72590E-04
  507.00      7.67320E-04
  509.00      7.62030E-04
  511.00      7.56790E-04
  513.00      7.51610E-04
  515.00      7.46480E-04
  517.00      7.41400E-04
  519.00      7.36370E-04
  521.00      7.31390E-04
  523.00      7.26460E-04
  525.00      7.21580E-04
  527.00      7.16740E-04
  529.00      7.11970E-04
  531.00      7.07230E-04
  533.00      7.02540E-04
  535.00      6.97900E-04
  537.00      6.93300E-04
  539.00      6.88750E-04
  541.00      6.73710E-04
  543.00      6.79760E-04
  545.00      6.75360E-04
  547.00      6.70980E-04
  549.00      6.66640E-04
  551.00      6.62350E-04
  553.00      6.58100E-04
  555.00      6.53890E-04
  557.00      6.49710E-04
  559.00      6.45550E-04
  561.00      6.41490E-04
  563.00      6.37430E-04
  565.00      6.33420E-04
  567.00      6.29440E-04
  569.00      6.18820E-04
  571.00      5.85520E-04
  573.00      5.82120E-04
  575.00      5.78760E-04
  577.00      5.75520E-04
  579.00      5.72580E-04
  581.00      5.70040E-04
  583.00      5.68250E-04
  585.00      5.66920E-04
  587.00      5.64290E-04
  589.00      5.65150E-04
  591.00      5.64790E-04
  593.00      5.64860E-04
  595.00      5.65440E-04
  597.00      5.65990E-04
  599.00      5.67080E-04
  601.00      5.65190E-04
  603.00      5.63030E-04
  605.00      5.61310E-04
  607.00      5.57290E-04
  609.00      5.54840E-04
  611.00      5.50990E-04
  613.00      5.47780E-04
  615.00      5.45360E-04
  617.00      5.40300E-04
  619.00      5.38930E-04
  621.00      5.35900E-04
  623.00      5.30650E-04
  625.00      5.29320E-04
  627.00      5.26680E-04
  629.00      5.23660E-04
  631.00      5.17680E-04
  633.00      5.17490E-04
  635.00      5.14760E-04
  637.00      5.11840E-04
  639.00      5.08750E-04
  641.00      5.02260E-04
  643.00      5.03220E-04
  645.00      5.00410E-04
  647.00      4.97610E-04
  649.00      4.94830E-04
  651.00      4.91890E-04
  653.00      4.84440E-04
  655.00      4.82240E-04
  657.00      4.58760E-04
  659.00      4.80800E-04
  661.00      4.78650E-04
  663.00      4.76030E-04
  665.00      4.73440E-04
  667.00      4.69870E-04
  669.00      4.62790E-04
  671.00      4.65760E-04
  673.00      4.63250E-04
  675.00      4.60760E-04
  677.00      4.58280E-04
  679.00      4.55830E-04
  681.00      4.53390E-04
  683.00      4.50980E-04
  685.00      4.48580E-04
  687.00      4.46190E-04
  689.00      4.38370E-04
  691.00      4.41320E-04
  693.00      4.39180E-04
  695.00      4.36870E-04
  697.00      4.34590E-04
  699.00      4.32320E-04
  701.00      4.30070E-04
  703.00      4.27840E-04
  705.00      4.25620E-04
  707.00      4.22840E-04
  709.00      4.21240E-04
  711.00      4.19080E-04
  713.00      4.16930E-04
  715.00      4.14800E-04
  717.00      4.09100E-04
  719.00      4.08600E-04
  721.00      4.08500E-04
  723.00      4.06430E-04
  725.00      4.04380E-04
  727.00      4.02350E-04
  729.00      4.00180E-04
  731.00      3.98320E-04
  733.00      3.96330E-04
  735.00      3.94350E-04
  737.00      3.92390E-04
  739.00      3.90440E-04
  741.00      3.88510E-04
  743.00      3.86590E-04
  745.00      3.84690E-04
  747.00      3.82800E-04
  749.00      3.80920E-04
  751.00      3.79060E-04
  753.00      3.77210E-04
  755.00      3.75370E-04
  757.00      3.73550E-04
  759.00      3.66740E-04
  761.00      3.69670E-04
  763.00      3.68160E-04
  765.00      3.66390E-04
  767.00      3.64640E-04
  769.00      3.62890E-04
  771.00      3.61160E-04
  773.00      3.59440E-04
  775.00      3.57730E-04
  777.00      3.56040E-04
  779.00      3.54350E-04
  781.00      3.52680E-04
  783.00      3.51020E-04
  785.00      3.49380E-04
  787.00      3.47740E-04
  789.00      3.46120E-04
  791.00      3.44500E-04
  793.00      3.42900E-04
  795.00      3.41310E-04
  797.00      3.39730E-04
  799.00      3.38160E-04
  801.00      3.36600E-04
  803.00      3.35050E-04
  805.00      3.33510E-04
  807.00      3.31990E-04
  809.00      3.30470E-04
  811.00      3.28960E-04
  813.00      3.27470E-04
  815.00      3.25980E-04
  817.00      3.24500E-04
  819.00      3.21800E-04
  821.00      3.09780E-04
  823.00      3.06870E-04
  825.00      3.06820E-04
  827.00      3.05800E-04
  829.00      3.04510E-04
  831.00      3.03220E-04
  833.00      3.01930E-04
  835.00      3.00670E-04
  837.00      2.99460E-04
  839.00      2.98270E-04
  841.00      2.97190E-04
  843.00      2.96110E-04
  845.00      2.95030E-04
  847.00      2.94040E-04
  849.00      2.93170E-04
  851.00      2.92200E-04
  853.00      2.91430E-04
  855.00      2.90290E-04
  857.00      2.89850E-04
  859.00      2.88620E-04
  861.00      2.87780E-04
  863.00      2.87660E-04
  865.00      2.86600E-04
  867.00      2.84470E-04
  869.00      2.85550E-04
  871.00      2.85230E-04
  873.00      2.84180E-04
  875.00      2.79940E-04
  877.00      2.82220E-04
  879.00      2.82820E-04
  881.00      2.82350E-04
  883.00      2.81500E-04
  885.00      2.77680E-04
  887.00      2.72420E-04
  889.00      2.77490E-04
  891.00      2.77390E-04
  893.00      2.76370E-04
  895.00      2.75800E-04
  897.00      2.74420E-04
  899.00      2.72030E-04
  901.00      2.63730E-04
  903.00      2.66160E-04
  905.00      2.69200E-04
  907.00      2.68860E-04
  909.00      2.67900E-04
  911.00      2.66240E-04
  913.00      2.65710E-04
  915.00      2.64630E-04
  917.00      2.63540E-04
  919.00      2.62090E-04
  921.00      2.59010E-04
  923.00      2.49060E-04
  925.00      2.56360E-04
  927.00      2.57760E-04
  929.00      2.57200E-04
  931.00      2.56160E-04
  933.00      2.54940E-04
  935.00      2.49430E-04
  937.00      2.51960E-04
  939.00      2.52060E-04
  941.00      2.51080E-04
  943.00      2.50080E-04
  945.00      2.49090E-04
  947.00      2.48080E-04
  949.00      2.47120E-04
  951.00      2.45590E-04
  953.00      2.42150E-04
  955.00      2.32570E-04
  957.00      2.41150E-04
  959.00      2.42010E-04
  961.00      2.41350E-04
  963.00      2.40390E-04
  965.00      2.39480E-04
  967.00      2.38550E-04
  969.00      2.37620E-04
  971.00      2.36700E-04
  973.00      2.35790E-04
  975.00      2.34590E-04
  977.00      2.32510E-04
  979.00      2.33070E-04
  981.00      2.32180E-04
  983.00      2.31290E-04
  985.00      2.30410E-04
  987.00      2.29530E-04
  989.00      2.28660E-04
  991.00      2.27790E-04
  993.00      2.26930E-04
  995.00      2.26070E-04
  997.00      2.25210E-04
  999.00      2.24360E-04
  1002.5      2.20240E-04
  1007.5      2.16760E-04
  1012.5      2.15790E-04
  1017.5      2.16730E-04
  1022.5      2.14740E-04
  1027.5      2.12770E-04
  1032.5      2.10790E-04
  1037.5      2.08910E-04
  1042.5      2.06040E-04
  1047.5      2.05160E-04
  1052.5      2.03320E-04
  1057.5      2.01510E-04
  1062.5      1.99720E-04
  1067.5      1.97950E-04
  1072.5      1.96210E-04
  1077.5      1.94490E-04
  1082.5      1.92580E-04
  1087.5      1.91090E-04
  1092.5      1.84470E-04
  1097.5      1.86760E-04
  1102.5      1.86210E-04
  1107.5      1.84620E-04
  1112.5      1.83050E-04
  1117.5      1.81590E-04
  1122.5      1.80060E-04
  1127.5      1.78550E-04
  1132.5      1.77050E-04
  1137.5      1.75580E-04
  1142.5      1.74120E-04
  1147.5      1.72680E-04
  1152.5      1.71260E-04
  1157.5      1.69850E-04
  1162.5      1.66980E-04
  1167.5      1.66030E-04
  1172.5      1.65740E-04
  1177.5      1.64400E-04
  1182.5      1.63080E-04
  1187.5      1.61770E-04
  1192.5      1.60480E-04
  1197.5      1.59150E-04
  1202.5      1.57950E-04
  1207.5      1.56700E-04
  1212.5      1.55470E-04
  1217.5      1.54250E-04
  1222.5      1.53050E-04
  1227.5      1.51860E-04
  1232.5      1.50690E-04
  1237.5      1.49530E-04
  1242.5      1.48380E-04
  1247.5      1.47250E-04
  1252.5      1.46120E-04
  1257.5      1.45020E-04
  1262.5      1.43920E-04
  1267.5      1.42830E-04
  1272.5      1.41760E-04
  1277.5      1.40330E-04
  1282.5      1.35510E-04
  1287.5      1.38470E-04
  1292.5      1.37590E-04
  1297.5      1.36570E-04
  1302.5      1.35580E-04
  1307.5      1.34590E-04
  1312.5      1.33610E-04
  1317.5      1.32640E-04
  1322.5      1.31680E-04
  1327.5      1.30730E-04
  1332.5      1.29790E-04
  1337.5      1.28860E-04
  1342.5      1.27940E-04
  1347.5      1.27030E-04
  1352.5      1.26130E-04
  1357.5      1.25240E-04
  1362.5      1.24360E-04
  1367.5      1.23490E-04
  1372.5      1.22630E-04
  1377.5      1.21770E-04
  1382.5      1.20930E-04
  1387.5      1.20090E-04
  1392.5      1.19270E-04
  1397.5      1.18450E-04
