 Castelli and Kurucz 2004-2012 Atmosphere
 T     33000.     G    4.00000 [-2.5a] N(He)/Ntot=0.0784 VTURB=2  L/H=1.25 NOVE
 Wavelength  Eddington Hnu
   (nm)    (ergs/s/cm2/Hz/sr)
  9.0900      1.08520E-30
  9.3500      6.30710E-30
  9.6100      3.35450E-29
  9.7700      9.01150E-29
  9.9600      2.80140E-28
  10.200      1.11030E-27
  10.380      3.00300E-27
  10.560      7.87330E-27
  10.770      2.33520E-26
  11.040      8.94000E-26
  11.400      4.89190E-25
  11.780      2.65960E-24
  12.130      1.16120E-23
  12.480      4.69970E-23
  12.710      1.13360E-22
  12.840      1.84090E-22
  13.050      3.95480E-22
  13.240      7.74800E-22
  13.390      1.30130E-21
  13.660      3.22410E-21
  13.980      9.05560E-21
  14.330      2.66850E-20
  14.720      8.40290E-20
  15.100      2.43410E-19
  15.520      7.44720E-19
  15.880      1.85460E-18
  16.200      4.04290E-18
  16.600      1.02810E-17
  17.030      2.67220E-17
  17.340      5.16870E-17
  17.680      1.03900E-16
  18.020      2.03430E-16
  18.170      2.71410E-16
  18.610      6.15830E-16
  19.100      1.46870E-15
  19.390      2.40590E-15
  19.840      5.02600E-15
  20.180      8.58110E-15
  20.500      1.39720E-14
  21.050      3.11620E-14
  21.620      6.84990E-14
  21.980      1.10350E-13
  22.300      1.66290E-13
  22.680      2.66420E-13
  23.000      2.76060E-11
  23.400      1.59500E-10
  24.000      5.28570E-10
  24.650      1.76140E-09
  25.240      3.42900E-09
  25.680      2.10070E-09
  26.000      7.52660E-09
  26.400      1.27670E-08
  26.850      2.12790E-08
  27.350      3.01200E-08
  27.850      3.52530E-08
  28.400      5.13230E-08
  29.000      5.76380E-08
  29.600      4.51900E-08
  30.100      2.08550E-08
  30.800      4.09500E-08
  31.800      1.23450E-07
  32.800      1.69050E-07
  33.800      2.28510E-07
  34.800      3.04100E-07
  35.700      3.73670E-07
  36.600      4.86720E-07
  37.500      5.98980E-07
  38.500      7.86830E-07
  39.500      1.00420E-06
  40.500      1.26510E-06
  41.400      1.56210E-06
  42.200      1.83940E-06
  43.000      2.16220E-06
  44.100      2.71560E-06
  45.100      3.29090E-06
  46.000      3.85300E-06
  47.000      4.65350E-06
  48.000      5.51380E-06
  49.000      6.40650E-06
  50.000      7.62210E-06
  50.600      3.77360E-05
  51.200      9.65890E-05
  52.000      9.72160E-05
  53.000      1.01530E-04
  54.000      9.74620E-05
  55.000      1.06490E-04
  56.000      1.16980E-04
  57.000      1.22210E-04
  58.000      1.20190E-04
  59.000      1.30200E-04
  60.000      1.31320E-04
  61.000      1.35980E-04
  62.000      1.46250E-04
  63.000      1.51270E-04
  64.000      1.55240E-04
  65.000      1.60360E-04
  65.800      1.61370E-04
  66.500      1.67190E-04
  67.500      1.75150E-04
  68.500      1.74720E-04
  69.500      1.87120E-04
  70.500      1.86270E-04
  71.600      1.99940E-04
  72.600      2.05820E-04
  73.500      2.13530E-04
  74.500      2.17420E-04
  75.500      2.23250E-04
  76.500      2.29100E-04
  77.500      2.37040E-04
  78.500      2.44890E-04
  79.500      2.51290E-04
  80.500      2.57200E-04
  81.500      2.64650E-04
  82.500      2.73860E-04
  83.500      2.68920E-04
  84.500      2.87120E-04
  85.500      2.94140E-04
  86.500      3.02390E-04
  87.500      3.09350E-04
  88.500      3.16600E-04
  89.500      3.23880E-04
  90.500      3.29580E-04
  91.500      3.78150E-04
  92.500      1.10920E-03
  93.500      1.58160E-03
  94.500      2.09890E-03
  95.500      2.27290E-03
  96.500      2.57350E-03
  97.500      1.96910E-03
  98.500      2.55120E-03
  99.500      2.45080E-03
  100.50      2.56170E-03
  101.50      2.56830E-03
  102.50      2.03770E-03
  103.50      2.54150E-03
  104.50      2.58310E-03
  105.50      2.57760E-03
  106.50      2.52580E-03
  107.50      2.52500E-03
  108.50      2.44880E-03
  109.50      2.54800E-03
  110.50      2.51770E-03
  111.50      2.50420E-03
  112.50      2.45170E-03
  113.50      2.51070E-03
  114.50      2.49760E-03
  115.50      2.47510E-03
  116.50      2.47810E-03
  117.50      2.27920E-03
  118.50      2.44540E-03
  119.50      2.43610E-03
  120.50      2.39250E-03
  121.50      1.91820E-03
  122.50      2.40120E-03
  123.50      2.40600E-03
  124.50      2.37620E-03
  125.50      2.39450E-03
  126.50      2.38560E-03
  127.50      2.37550E-03
  128.50      2.36570E-03
  129.50      2.32430E-03
  130.50      2.32890E-03
  131.50      2.33250E-03
  132.50      2.31900E-03
  133.50      2.29730E-03
  134.50      2.29880E-03
  135.50      2.28700E-03
  136.50      2.27370E-03
  137.50      2.26000E-03
  138.50      2.25180E-03
  139.50      2.19400E-03
  140.50      2.18510E-03
  141.50      2.21560E-03
  142.50      2.19810E-03
  143.50      2.19390E-03
  144.20      2.18620E-03
  144.70      2.18030E-03
  145.50      2.16960E-03
  146.50      2.15950E-03
  147.50      2.14810E-03
  148.50      2.13940E-03
  149.50      2.12570E-03
  150.50      2.11530E-03
  151.20      2.10960E-03
  151.70      2.10210E-03
  152.50      2.09060E-03
  153.50      2.06560E-03
  154.50      2.01610E-03
  155.50      2.01350E-03
  156.50      2.03030E-03
  157.50      2.02920E-03
  158.50      2.02130E-03
  159.50      2.01050E-03
  160.50      1.98520E-03
  161.50      1.97390E-03
  162.50      1.95710E-03
  163.50      1.92680E-03
  164.50      1.84790E-03
  165.50      1.94110E-03
  166.50      1.92870E-03
  167.20      1.91770E-03
  167.70      1.92660E-03
  168.50      1.91610E-03
  169.50      1.90590E-03
  170.50      1.89370E-03
  171.50      1.86960E-03
  172.50      1.86100E-03
  173.50      1.86720E-03
  174.50      1.85510E-03
  175.50      1.84250E-03
  176.50      1.83570E-03
  177.50      1.82660E-03
  178.50      1.81660E-03
  179.50      1.80550E-03
  180.50      1.79660E-03
  181.50      1.78640E-03
  182.50      1.77590E-03
  183.50      1.76770E-03
  184.50      1.75650E-03
  185.50      1.74490E-03
  186.50      1.73520E-03
  187.50      1.72680E-03
  188.50      1.71710E-03
  189.50      1.70760E-03
  190.50      1.70000E-03
  191.50      1.68910E-03
  192.50      1.67670E-03
  193.50      1.67140E-03
  194.50      1.66310E-03
  195.50      1.65210E-03
  196.70      1.64270E-03
  197.60      1.63510E-03
  198.40      1.62750E-03
  199.50      1.61670E-03
  200.50      1.60930E-03
  201.50      1.60070E-03
  202.50      1.59190E-03
  203.50      1.58300E-03
  204.50      1.57430E-03
  205.50      1.32930E-03
  206.50      1.30320E-03
  207.40      1.33050E-03
  207.80      1.35520E-03
  208.50      1.43030E-03
  209.50      1.52110E-03
  210.50      1.52540E-03
  211.50      1.52030E-03
  212.50      1.51200E-03
  213.50      1.50300E-03
  214.50      1.49680E-03
  215.50      1.50230E-03
  216.50      1.47470E-03
  217.50      1.48990E-03
  218.50      1.45920E-03
  219.50      1.47330E-03
  220.50      1.46570E-03
  221.50      1.43490E-03
  222.50      1.44960E-03
  223.50      1.44180E-03
  224.50      1.43380E-03
  225.50      1.40440E-03
  226.50      1.41830E-03
  227.50      1.41060E-03
  228.50      1.40240E-03
  229.50      1.38130E-03
  230.50      1.36720E-03
  231.50      1.38010E-03
  232.50      1.37280E-03
  233.50      1.36540E-03
  234.50      1.35810E-03
  235.50      1.35080E-03
  236.50      1.34360E-03
  237.50      1.33640E-03
  238.50      1.30960E-03
  239.50      1.32120E-03
  240.50      1.31510E-03
  241.50      1.30810E-03
  242.50      1.30120E-03
  243.50      1.29420E-03
  244.50      1.28750E-03
  245.50      1.28050E-03
  246.50      1.27390E-03
  247.50      1.26720E-03
  248.50      1.26060E-03
  249.50      1.21870E-03
  250.50      1.24600E-03
  251.30      1.20060E-03
  251.80      1.23600E-03
  252.50      1.23440E-03
  253.50      1.22810E-03
  254.50      1.22160E-03
  255.50      1.21530E-03
  256.50      1.20910E-03
  257.50      1.20290E-03
  258.50      1.19670E-03
  259.50      1.19050E-03
  260.50      1.18690E-03
  261.50      1.18080E-03
  262.50      1.17480E-03
  263.50      1.16820E-03
  264.50      1.16210E-03
  265.50      1.15570E-03
  266.50      1.14920E-03
  267.50      1.14280E-03
  268.50      1.13950E-03
  269.50      1.13070E-03
  270.50      1.12810E-03
  271.50      1.12240E-03
  272.50      1.11290E-03
  273.50      1.09600E-03
  274.50      1.10570E-03
  275.50      1.10010E-03
  276.50      1.09020E-03
  277.50      1.08930E-03
  278.50      1.08390E-03
  279.50      1.07790E-03
  280.50      1.07310E-03
  281.50      1.06790E-03
  282.50      1.05750E-03
  283.50      1.05570E-03
  284.50      1.05230E-03
  285.50      1.04720E-03
  286.50      1.04210E-03
  287.50      1.03700E-03
  288.50      1.03200E-03
  289.50      1.02700E-03
  291.00      1.01950E-03
  293.00      1.00980E-03
  295.00      9.96360E-04
  297.00      9.90530E-04
  299.00      9.81020E-04
  301.00      9.71830E-04
  303.00      9.62520E-04
  305.00      9.53550E-04
  307.00      9.44820E-04
  309.00      9.35800E-04
  311.00      9.27290E-04
  313.00      9.19110E-04
  315.00      9.10590E-04
  317.00      9.02220E-04
  319.00      8.89570E-04
  321.00      8.79530E-04
  323.00      8.77760E-04
  325.00      8.69780E-04
  327.00      8.62210E-04
  329.00      8.54100E-04
  331.00      8.47120E-04
  333.00      8.39600E-04
  335.00      8.31330E-04
  337.00      8.24910E-04
  339.00      8.17740E-04
  341.00      8.10630E-04
  343.00      8.02010E-04
  345.00      7.93450E-04
  347.00      7.88010E-04
  349.00      7.81120E-04
  351.00      7.75780E-04
  353.00      7.69240E-04
  355.00      7.62660E-04
  357.00      7.58620E-04
  359.00      7.49290E-04
  361.00      7.44180E-04
  363.00      7.36660E-04
  364.00      7.32750E-04
  365.00      7.08900E-04
  367.00      7.04660E-04
  369.00      6.98920E-04
  371.00      6.90480E-04
  373.00      6.80660E-04
  375.00      6.94940E-04
  377.00      6.95620E-04
  379.00      7.11950E-04
  381.00      7.30350E-04
  383.00      6.78320E-04
  385.00      7.37260E-04
  387.00      7.38280E-04
  389.00      6.63070E-04
  391.00      7.31900E-04
  393.00      7.23100E-04
  395.00      7.20910E-04
  397.00      6.39730E-04
  399.00      7.08300E-04
  401.00      7.03750E-04
  403.00      6.83840E-04
  405.00      6.95660E-04
  407.00      6.89460E-04
  409.00      6.67630E-04
  411.00      6.18760E-04
  413.00      6.69960E-04
  415.00      6.65410E-04
  417.00      6.62820E-04
  419.00      6.57440E-04
  421.00      6.49600E-04
  423.00      6.48150E-04
  425.00      6.43110E-04
  427.00      6.38130E-04
  429.00      6.33310E-04
  431.00      6.27880E-04
  433.00      6.02780E-04
  435.00      5.70880E-04
  437.00      6.13470E-04
  439.00      6.02910E-04
  441.00      6.05100E-04
  443.00      5.99760E-04
  445.00      5.96240E-04
  447.00      5.80340E-04
  449.00      5.87420E-04
  451.00      5.83140E-04
  453.00      5.78760E-04
  455.00      5.70890E-04
  457.00      5.70430E-04
  459.00      5.66240E-04
  461.00      5.62170E-04
  463.00      5.58070E-04
  465.00      5.53330E-04
  467.00      5.50040E-04
  469.00      5.37020E-04
  471.00      5.38700E-04
  473.00      5.38510E-04
  475.00      5.34700E-04
  477.00      5.30930E-04
  479.00      5.27200E-04
  481.00      5.23500E-04
  483.00      5.19330E-04
  485.00      5.02580E-04
  487.00      4.69730E-04
  489.00      5.07950E-04
  491.00      5.05560E-04
  493.00      4.96230E-04
  495.00      4.98670E-04
  497.00      4.95300E-04
  499.00      4.91940E-04
  501.00      4.85340E-04
  503.00      4.85300E-04
  505.00      4.80710E-04
  507.00      4.78800E-04
  509.00      4.75600E-04
  511.00      4.72420E-04
  513.00      4.69280E-04
  515.00      4.66170E-04
  517.00      4.63090E-04
  519.00      4.60040E-04
  521.00      4.57020E-04
  523.00      4.54030E-04
  525.00      4.51070E-04
  527.00      4.48130E-04
  529.00      4.45230E-04
  531.00      4.42350E-04
  533.00      4.39500E-04
  535.00      4.36680E-04
  537.00      4.33880E-04
  539.00      4.31110E-04
  541.00      4.25680E-04
  543.00      4.25640E-04
  545.00      4.22950E-04
  547.00      4.20280E-04
  549.00      4.17640E-04
  551.00      4.15020E-04
  553.00      4.12420E-04
  555.00      4.09850E-04
  557.00      4.07300E-04
  559.00      4.04760E-04
  561.00      4.02280E-04
  563.00      3.99800E-04
  565.00      3.97340E-04
  567.00      3.94900E-04
  569.00      3.91260E-04
  571.00      3.83710E-04
  573.00      3.81470E-04
  575.00      3.79240E-04
  577.00      3.77050E-04
  579.00      3.74890E-04
  581.00      3.72840E-04
  583.00      3.70930E-04
  585.00      3.69250E-04
  587.00      3.61350E-04
  589.00      3.65840E-04
  591.00      3.64450E-04
  593.00      3.62940E-04
  595.00      3.61480E-04
  597.00      3.60010E-04
  599.00      3.58780E-04
  601.00      3.56820E-04
  603.00      3.54740E-04
  605.00      3.52680E-04
  607.00      3.50640E-04
  609.00      3.48620E-04
  611.00      3.46610E-04
  613.00      3.44620E-04
  615.00      3.42650E-04
  617.00      3.40690E-04
  619.00      3.38760E-04
  621.00      3.36840E-04
  623.00      3.34920E-04
  625.00      3.33040E-04
  627.00      3.31170E-04
  629.00      3.29310E-04
  631.00      3.27330E-04
  633.00      3.25640E-04
  635.00      3.23830E-04
  637.00      3.22030E-04
  639.00      3.20250E-04
  641.00      3.18240E-04
  643.00      3.16730E-04
  645.00      3.14990E-04
  647.00      3.13260E-04
  649.00      3.11550E-04
  651.00      3.09850E-04
  653.00      3.07290E-04
  655.00      3.02070E-04
  657.00      2.80700E-04
  659.00      3.02430E-04
  661.00      3.01570E-04
  663.00      2.99950E-04
  665.00      2.98430E-04
  667.00      2.95060E-04
  669.00      2.92970E-04
  671.00      2.93680E-04
  673.00      2.92140E-04
  675.00      2.90600E-04
  677.00      2.89070E-04
  679.00      2.87550E-04
  681.00      2.86040E-04
  683.00      2.84550E-04
  685.00      2.83060E-04
  687.00      2.81590E-04
  689.00      2.79610E-04
  691.00      2.78680E-04
  693.00      2.77240E-04
  695.00      2.75820E-04
  697.00      2.74400E-04
  699.00      2.72990E-04
  701.00      2.71600E-04
  703.00      2.70210E-04
  705.00      2.68840E-04
  707.00      2.64760E-04
  709.00      2.66120E-04
  711.00      2.64780E-04
  713.00      2.63450E-04
  715.00      2.62120E-04
  717.00      2.60380E-04
  719.00      2.59350E-04
  721.00      2.58210E-04
  723.00      2.56930E-04
  725.00      2.55650E-04
  727.00      2.54390E-04
  729.00      2.51790E-04
  731.00      2.51870E-04
  733.00      2.50650E-04
  735.00      2.49420E-04
  737.00      2.48200E-04
  739.00      2.46990E-04
  741.00      2.45790E-04
  743.00      2.44600E-04
  745.00      2.43430E-04
  747.00      2.42250E-04
  749.00      2.41090E-04
  751.00      2.39880E-04
  753.00      2.38780E-04
  755.00      2.37640E-04
  757.00      2.36500E-04
  759.00      2.34840E-04
  761.00      2.34260E-04
  763.00      2.33150E-04
  765.00      2.32040E-04
  767.00      2.30950E-04
  769.00      2.29860E-04
  771.00      2.28780E-04
  773.00      2.27710E-04
  775.00      2.26650E-04
  777.00      2.25590E-04
  779.00      2.24540E-04
  781.00      2.23430E-04
  783.00      2.22460E-04
  785.00      2.21550E-04
  787.00      2.20530E-04
  789.00      2.19480E-04
  791.00      2.18510E-04
  793.00      2.17510E-04
  795.00      2.16510E-04
  797.00      2.15470E-04
  799.00      2.14540E-04
  801.00      2.13570E-04
  803.00      2.12570E-04
  805.00      2.11560E-04
  807.00      2.10650E-04
  809.00      2.09510E-04
  811.00      2.08620E-04
  813.00      2.07820E-04
  815.00      2.06700E-04
  817.00      2.05980E-04
  819.00      2.04800E-04
  821.00      2.02540E-04
  823.00      2.01500E-04
  825.00      2.01040E-04
  827.00      1.99750E-04
  829.00      1.99290E-04
  831.00      1.98450E-04
  833.00      1.97550E-04
  835.00      1.96200E-04
  837.00      1.95690E-04
  839.00      1.94990E-04
  841.00      1.94170E-04
  843.00      1.93240E-04
  845.00      1.91780E-04
  847.00      1.91540E-04
  849.00      1.90650E-04
  851.00      1.89710E-04
  853.00      1.89180E-04
  855.00      1.87200E-04
  857.00      1.88740E-04
  859.00      1.84780E-04
  861.00      1.84690E-04
  863.00      1.87270E-04
  865.00      1.84510E-04
  867.00      1.78430E-04
  869.00      1.85140E-04
  871.00      1.85580E-04
  873.00      1.82630E-04
  875.00      1.72600E-04
  877.00      1.79870E-04
  879.00      1.83100E-04
  881.00      1.82610E-04
  883.00      1.81550E-04
  885.00      1.75100E-04
  887.00      1.67110E-04
  889.00      1.78330E-04
  891.00      1.78960E-04
  893.00      1.78460E-04
  895.00      1.78050E-04
  897.00      1.77030E-04
  899.00      1.74300E-04
  901.00      1.62360E-04
  903.00      1.67740E-04
  905.00      1.73490E-04
  907.00      1.72570E-04
  909.00      1.72720E-04
  911.00      1.72320E-04
  913.00      1.71680E-04
  915.00      1.70980E-04
  917.00      1.69990E-04
  919.00      1.69060E-04
  921.00      1.64860E-04
  923.00      1.52420E-04
  925.00      1.63850E-04
  927.00      1.66260E-04
  929.00      1.66220E-04
  931.00      1.65140E-04
  933.00      1.64900E-04
  935.00      1.63470E-04
  937.00      1.63590E-04
  939.00      1.62940E-04
  941.00      1.62300E-04
  943.00      1.61660E-04
  945.00      1.61020E-04
  947.00      1.59830E-04
  949.00      1.59750E-04
  951.00      1.57650E-04
  953.00      1.53810E-04
  955.00      1.42860E-04
  957.00      1.54750E-04
  959.00      1.56170E-04
  961.00      1.55780E-04
  963.00      1.55000E-04
  965.00      1.54860E-04
  967.00      1.54260E-04
  969.00      1.53600E-04
  971.00      1.52810E-04
  973.00      1.52490E-04
  975.00      1.51910E-04
  977.00      1.51320E-04
  979.00      1.50750E-04
  981.00      1.50180E-04
  983.00      1.49610E-04
  985.00      1.49040E-04
  987.00      1.48470E-04
  989.00      1.47910E-04
  991.00      1.47350E-04
  993.00      1.46800E-04
  995.00      1.46250E-04
  997.00      1.45700E-04
  999.00      1.45150E-04
  1002.5      1.40570E-04
  1007.5      1.37980E-04
  1012.5      1.40720E-04
  1017.5      1.40250E-04
  1022.5      1.38940E-04
  1027.5      1.37710E-04
  1032.5      1.36120E-04
  1037.5      1.35230E-04
  1042.5      1.33980E-04
  1047.5      1.32810E-04
  1052.5      1.31630E-04
  1057.5      1.30470E-04
  1062.5      1.29310E-04
  1067.5      1.28050E-04
  1072.5      1.27060E-04
  1077.5      1.25950E-04
  1082.5      1.24020E-04
  1087.5      1.23660E-04
  1092.5      1.16540E-04
  1097.5      1.20260E-04
  1102.5      1.20250E-04
  1107.5      1.19570E-04
  1112.5      1.18590E-04
  1117.5      1.17600E-04
  1122.5      1.16580E-04
  1127.5      1.15640E-04
  1132.5      1.14670E-04
  1137.5      1.13720E-04
  1142.5      1.12790E-04
  1147.5      1.11860E-04
  1152.5      1.10950E-04
  1157.5      1.10040E-04
  1162.5      1.08970E-04
  1167.5      1.08210E-04
  1172.5      1.07400E-04
  1177.5      1.06530E-04
  1182.5      1.05680E-04
  1187.5      1.04840E-04
  1192.5      1.04010E-04
  1197.5      1.02590E-04
  1202.5      1.02380E-04
  1207.5      1.01580E-04
  1212.5      1.00780E-04
  1217.5      1.00000E-04
  1222.5      9.92270E-05
  1227.5      9.84620E-05
  1232.5      9.77060E-05
  1237.5      9.69580E-05
  1242.5      9.62190E-05
  1247.5      9.54880E-05
  1252.5      9.46490E-05
  1257.5      9.40510E-05
  1262.5      9.33440E-05
  1267.5      9.26460E-05
  1272.5      9.19540E-05
  1277.5      9.03380E-05
  1282.5      8.61140E-05
  1287.5      8.96690E-05
  1292.5      8.92660E-05
  1297.5      8.82630E-05
  1302.5      8.79670E-05
  1307.5      8.73280E-05
  1312.5      8.66960E-05
  1317.5      8.60700E-05
  1322.5      8.54510E-05
  1327.5      8.48390E-05
  1332.5      8.42330E-05
  1337.5      8.36340E-05
  1342.5      8.29990E-05
  1347.5      8.24540E-05
  1352.5      8.18740E-05
  1357.5      8.13000E-05
  1362.5      8.07310E-05
  1367.5      8.01690E-05
  1372.5      7.96120E-05
  1377.5      7.90620E-05
  1382.5      7.85170E-05
  1387.5      7.79770E-05
  1392.5      7.74430E-05
  1397.5      7.69150E-05
