 Castelli and Kurucz 2004-2012 Atmosphere
 T     43000.     G    5.00000 [-2.5a] N(He)/Ntot=0.0784 VTURB=2  L/H=1.25 NOVE
 Wavelength  Eddington Hnu
   (nm)    (ergs/s/cm2/Hz/sr)
  9.0900      3.26320E-21
  9.3500      1.08550E-20
  9.6100      3.40490E-20
  9.7700      6.69850E-20
  9.9600      1.45800E-19
  10.200      3.75180E-19
  10.380      7.43190E-19
  10.560      1.44140E-18
  10.770      3.04320E-18
  11.040      7.65580E-18
  11.400      2.46110E-17
  11.780      7.86530E-17
  12.130      2.16030E-16
  12.480      5.62600E-16
  12.710      1.02720E-15
  12.840      1.43050E-15
  13.050      2.41050E-15
  13.240      3.81290E-15
  13.390      5.42840E-15
  13.660      1.00680E-14
  13.980      2.03300E-14
  14.330      4.23440E-14
  14.720      9.21330E-14
  15.100      1.89420E-13
  15.520      4.03450E-13
  15.880      7.47640E-13
  16.200      1.26530E-12
  16.600      2.37430E-12
  17.030      4.51840E-12
  17.340      7.04530E-12
  17.680      1.12680E-11
  18.020      1.77020E-11
  18.170      2.14730E-11
  18.610      3.72690E-11
  19.100      6.67700E-11
  19.390      9.29760E-11
  19.840      1.52380E-10
  20.180      2.18080E-10
  20.500      3.02190E-10
  21.050      5.17040E-10
  21.620      8.75710E-10
  21.980      1.20390E-09
  22.300      1.58330E-09
  22.680      2.16860E-09
  23.000      4.05350E-08
  23.400      1.51820E-07
  24.000      5.33770E-07
  24.650      6.98180E-06
  25.240      2.39310E-05
  25.680      1.59130E-05
  26.000      6.14430E-05
  26.400      9.65740E-05
  26.850      1.32370E-04
  27.350      1.69590E-04
  27.850      1.86570E-04
  28.400      2.24990E-04
  29.000      2.54250E-04
  29.600      2.13170E-04
  30.100      5.86070E-05
  30.800      1.31890E-04
  31.800      2.70460E-04
  32.800      3.16910E-04
  33.800      3.24430E-04
  34.800      3.51100E-04
  35.700      4.03170E-04
  36.600      4.41520E-04
  37.500      4.59460E-04
  38.500      4.54020E-04
  39.500      5.07160E-04
  40.500      5.39520E-04
  41.400      5.57890E-04
  42.200      5.58680E-04
  43.000      5.72110E-04
  44.100      6.07610E-04
  45.100      6.25540E-04
  46.000      6.30480E-04
  47.000      6.50690E-04
  48.000      6.79260E-04
  49.000      6.79950E-04
  50.000      7.24020E-04
  50.600      8.33390E-04
  51.200      1.13550E-03
  52.000      1.14920E-03
  53.000      1.19140E-03
  54.000      1.16780E-03
  55.000      1.19350E-03
  56.000      1.27550E-03
  57.000      1.31650E-03
  58.000      1.31850E-03
  59.000      1.36780E-03
  60.000      1.36810E-03
  61.000      1.36640E-03
  62.000      1.43080E-03
  63.000      1.44900E-03
  64.000      1.49110E-03
  65.000      1.49760E-03
  65.800      1.48320E-03
  66.500      1.53550E-03
  67.500      1.57510E-03
  68.500      1.56170E-03
  69.500      1.61950E-03
  70.500      1.58960E-03
  71.600      1.66520E-03
  72.600      1.69110E-03
  73.500      1.71050E-03
  74.500      1.71880E-03
  75.500      1.73400E-03
  76.500      1.74220E-03
  77.500      1.77750E-03
  78.500      1.78230E-03
  79.500      1.80390E-03
  80.500      1.82820E-03
  81.500      1.84880E-03
  82.500      1.87530E-03
  83.500      1.83570E-03
  84.500      1.90080E-03
  85.500      1.90620E-03
  86.500      1.93730E-03
  87.500      1.95360E-03
  88.500      1.96610E-03
  89.500      1.97780E-03
  90.500      1.97300E-03
  91.500      1.60110E-03
  92.500      2.61800E-03
  93.500      3.37720E-03
  94.500      4.37960E-03
  95.500      4.81980E-03
  96.500      5.65770E-03
  97.500      4.44050E-03
  98.500      5.70030E-03
  99.500      5.31720E-03
  100.50      5.70570E-03
  101.50      5.63300E-03
  102.50      4.32880E-03
  103.50      5.52790E-03
  104.50      5.57640E-03
  105.50      5.54290E-03
  106.50      5.44190E-03
  107.50      5.41660E-03
  108.50      5.08940E-03
  109.50      5.37280E-03
  110.50      5.32120E-03
  111.50      5.27290E-03
  112.50      5.17770E-03
  113.50      5.20760E-03
  114.50      5.16780E-03
  115.50      5.09760E-03
  116.50      5.06630E-03
  117.50      4.84420E-03
  118.50      4.99560E-03
  119.50      4.94590E-03
  120.50      4.87880E-03
  121.50      3.86670E-03
  122.50      4.78820E-03
  123.50      4.77890E-03
  124.50      4.73540E-03
  125.50      4.73940E-03
  126.50      4.70330E-03
  127.50      4.66700E-03
  128.50      4.63110E-03
  129.50      4.59260E-03
  130.50      4.55670E-03
  131.50      4.52260E-03
  132.50      4.48490E-03
  133.50      4.45210E-03
  134.50      4.41910E-03
  135.50      4.38170E-03
  136.50      4.34370E-03
  137.50      4.29640E-03
  138.50      4.27720E-03
  139.50      4.20730E-03
  140.50      4.16770E-03
  141.50      4.18070E-03
  142.50      4.14550E-03
  143.50      4.11790E-03
  144.20      4.08980E-03
  144.70      4.07570E-03
  145.50      4.04940E-03
  146.50      4.02000E-03
  147.50      3.99210E-03
  148.50      3.96600E-03
  149.50      3.93470E-03
  150.50      3.90680E-03
  151.20      3.88720E-03
  151.70      3.87050E-03
  152.50      3.84740E-03
  153.50      3.81190E-03
  154.50      3.71760E-03
  155.50      3.70170E-03
  156.50      3.72520E-03
  157.50      3.70200E-03
  158.50      3.67440E-03
  159.50      3.64800E-03
  160.50      3.61490E-03
  161.50      3.58830E-03
  162.50      3.55530E-03
  163.50      3.45090E-03
  164.50      3.29720E-03
  165.50      3.48950E-03
  166.50      3.46520E-03
  167.20      3.44280E-03
  167.70      3.43800E-03
  168.50      3.41760E-03
  169.50      3.39370E-03
  170.50      3.36820E-03
  171.50      3.32050E-03
  172.50      3.31270E-03
  173.50      3.29870E-03
  174.50      3.27430E-03
  175.50      3.25010E-03
  176.50      3.22860E-03
  177.50      3.20650E-03
  178.50      3.18440E-03
  179.50      3.16140E-03
  180.50      3.13960E-03
  181.50      3.11780E-03
  182.50      3.09610E-03
  183.50      3.07510E-03
  184.50      3.05370E-03
  185.50      3.03220E-03
  186.50      3.01130E-03
  187.50      2.99060E-03
  188.50      2.97020E-03
  189.50      2.95060E-03
  190.50      2.93080E-03
  191.50      2.91070E-03
  192.50      2.88900E-03
  193.50      2.87170E-03
  194.50      2.85250E-03
  195.50      2.83320E-03
  196.70      2.81060E-03
  197.60      2.79380E-03
  198.40      2.77900E-03
  199.50      2.75870E-03
  200.50      2.74050E-03
  201.50      2.72250E-03
  202.50      2.70460E-03
  203.50      2.68690E-03
  204.50      2.66920E-03
  205.50      2.06390E-03
  206.50      1.99340E-03
  207.40      2.02410E-03
  207.80      2.06460E-03
  208.50      2.17240E-03
  209.50      2.40580E-03
  210.50      2.55190E-03
  211.50      2.55990E-03
  212.50      2.54500E-03
  213.50      2.52310E-03
  214.50      2.51150E-03
  215.50      2.53150E-03
  216.50      2.45650E-03
  217.50      2.52070E-03
  218.50      2.42130E-03
  219.50      2.48930E-03
  220.50      2.47970E-03
  221.50      2.36960E-03
  222.50      2.44810E-03
  223.50      2.43600E-03
  224.50      2.41620E-03
  225.50      2.31230E-03
  226.50      2.38990E-03
  227.50      2.37550E-03
  228.50      2.36020E-03
  229.50      2.33440E-03
  230.50      2.24470E-03
  231.50      2.31300E-03
  232.50      2.30280E-03
  233.50      2.28870E-03
  234.50      2.27460E-03
  235.50      2.26070E-03
  236.50      2.24690E-03
  237.50      2.23300E-03
  238.50      2.13990E-03
  239.50      2.20340E-03
  240.50      2.19290E-03
  241.50      2.17960E-03
  242.50      2.16670E-03
  243.50      2.15380E-03
  244.50      2.14090E-03
  245.50      2.12780E-03
  246.50      2.11560E-03
  247.50      2.10310E-03
  248.50      2.09070E-03
  249.50      2.04750E-03
  250.50      2.05510E-03
  251.30      1.91160E-03
  251.80      2.04350E-03
  252.50      2.04160E-03
  253.50      2.03030E-03
  254.50      2.01850E-03
  255.50      2.00680E-03
  256.50      1.99530E-03
  257.50      1.98380E-03
  258.50      1.97240E-03
  259.50      1.96070E-03
  260.50      1.95080E-03
  261.50      1.93960E-03
  262.50      1.92870E-03
  263.50      1.91780E-03
  264.50      1.90690E-03
  265.50      1.89620E-03
  266.50      1.88520E-03
  267.50      1.87400E-03
  268.50      1.86450E-03
  269.50      1.85310E-03
  270.50      1.84390E-03
  271.50      1.83370E-03
  272.50      1.82110E-03
  273.50      1.75560E-03
  274.50      1.80350E-03
  275.50      1.79370E-03
  276.50      1.78190E-03
  277.50      1.77410E-03
  278.50      1.76450E-03
  279.50      1.75470E-03
  280.50      1.74540E-03
  281.50      1.73600E-03
  282.50      1.72450E-03
  283.50      1.71640E-03
  284.50      1.70820E-03
  285.50      1.69900E-03
  286.50      1.69000E-03
  287.50      1.68100E-03
  288.50      1.67210E-03
  289.50      1.66320E-03
  291.00      1.65010E-03
  293.00      1.63280E-03
  295.00      1.61390E-03
  297.00      1.59890E-03
  299.00      1.58220E-03
  301.00      1.56610E-03
  303.00      1.54990E-03
  305.00      1.53410E-03
  307.00      1.51890E-03
  309.00      1.50360E-03
  311.00      1.48860E-03
  313.00      1.47380E-03
  315.00      1.45930E-03
  317.00      1.44480E-03
  319.00      1.42710E-03
  321.00      1.39400E-03
  323.00      1.40290E-03
  325.00      1.38930E-03
  327.00      1.37540E-03
  329.00      1.36260E-03
  331.00      1.34970E-03
  333.00      1.33690E-03
  335.00      1.32380E-03
  337.00      1.31180E-03
  339.00      1.29950E-03
  341.00      1.28740E-03
  343.00      1.27620E-03
  345.00      1.26350E-03
  347.00      1.25280E-03
  349.00      1.24100E-03
  351.00      1.22940E-03
  353.00      1.21790E-03
  355.00      1.20660E-03
  357.00      1.19680E-03
  359.00      1.18440E-03
  361.00      1.17470E-03
  363.00      1.16310E-03
  364.00      1.13910E-03
  365.00      1.05180E-03
  367.00      1.04400E-03
  369.00      1.03710E-03
  371.00      1.03390E-03
  373.00      1.03770E-03
  375.00      1.04740E-03
  377.00      1.05430E-03
  379.00      1.07010E-03
  381.00      1.08780E-03
  383.00      1.03800E-03
  385.00      1.08680E-03
  387.00      1.09470E-03
  389.00      1.00040E-03
  391.00      1.08070E-03
  393.00      1.07020E-03
  395.00      1.06530E-03
  397.00      9.64590E-04
  399.00      1.04530E-03
  401.00      1.04350E-03
  403.00      1.01360E-03
  405.00      1.03040E-03
  407.00      1.01980E-03
  409.00      9.81960E-04
  411.00      9.27850E-04
  413.00      9.91820E-04
  415.00      9.86950E-04
  417.00      9.80650E-04
  419.00      9.67220E-04
  421.00      9.50520E-04
  423.00      9.57190E-04
  425.00      9.49480E-04
  427.00      9.41850E-04
  429.00      9.34310E-04
  431.00      9.24450E-04
  433.00      8.84180E-04
  435.00      8.51190E-04
  437.00      9.01840E-04
  439.00      8.93730E-04
  441.00      8.90960E-04
  443.00      8.83750E-04
  445.00      8.77190E-04
  447.00      8.60650E-04
  449.00      8.63710E-04
  451.00      8.57090E-04
  453.00      8.48570E-04
  455.00      8.28190E-04
  457.00      8.37670E-04
  459.00      8.31350E-04
  461.00      8.25090E-04
  463.00      8.18840E-04
  465.00      8.12500E-04
  467.00      8.05720E-04
  469.00      7.74130E-04
  471.00      7.92640E-04
  473.00      7.88990E-04
  475.00      7.83210E-04
  477.00      7.77480E-04
  479.00      7.71820E-04
  481.00      7.66210E-04
  483.00      7.58720E-04
  485.00      7.32500E-04
  487.00      6.96970E-04
  489.00      7.41160E-04
  491.00      7.39040E-04
  493.00      7.29310E-04
  495.00      7.28670E-04
  497.00      7.23530E-04
  499.00      7.18450E-04
  501.00      7.11340E-04
  503.00      7.08440E-04
  505.00      7.03000E-04
  507.00      6.98640E-04
  509.00      6.93810E-04
  511.00      6.89040E-04
  513.00      6.84310E-04
  515.00      6.79630E-04
  517.00      6.75000E-04
  519.00      6.70420E-04
  521.00      6.65880E-04
  523.00      6.61390E-04
  525.00      6.56950E-04
  527.00      6.52540E-04
  529.00      6.48190E-04
  531.00      6.43870E-04
  533.00      6.39600E-04
  535.00      6.35370E-04
  537.00      6.31180E-04
  539.00      6.27020E-04
  541.00      6.10750E-04
  543.00      6.18590E-04
  545.00      6.14830E-04
  547.00      6.10840E-04
  549.00      6.06890E-04
  551.00      6.02970E-04
  553.00      5.99100E-04
  555.00      5.95270E-04
  557.00      5.91470E-04
  559.00      5.87660E-04
  561.00      5.83970E-04
  563.00      5.80280E-04
  565.00      5.76620E-04
  567.00      5.73000E-04
  569.00      5.63530E-04
  571.00      5.33750E-04
  573.00      5.30660E-04
  575.00      5.27610E-04
  577.00      5.24620E-04
  579.00      5.21730E-04
  581.00      5.19030E-04
  583.00      5.16800E-04
  585.00      5.15060E-04
  587.00      5.10080E-04
  589.00      5.12500E-04
  591.00      5.11880E-04
  593.00      5.11420E-04
  595.00      5.11270E-04
  597.00      5.11300E-04
  599.00      5.11780E-04
  601.00      5.11200E-04
  603.00      5.10350E-04
  605.00      5.09700E-04
  607.00      5.06790E-04
  609.00      5.04530E-04
  611.00      5.01610E-04
  613.00      4.98950E-04
  615.00      4.96360E-04
  617.00      4.92420E-04
  619.00      4.90590E-04
  621.00      4.87750E-04
  623.00      4.83650E-04
  625.00      4.81820E-04
  627.00      4.79360E-04
  629.00      4.76610E-04
  631.00      4.71940E-04
  633.00      4.70990E-04
  635.00      4.68510E-04
  637.00      4.65850E-04
  639.00      4.63010E-04
  641.00      4.58020E-04
  643.00      4.58000E-04
  645.00      4.55450E-04
  647.00      4.52900E-04
  649.00      4.50370E-04
  651.00      4.47400E-04
  653.00      4.41120E-04
  655.00      4.35160E-04
  657.00      4.10980E-04
  659.00      4.36210E-04
  661.00      4.35640E-04
  663.00      4.33260E-04
  665.00      4.30930E-04
  667.00      4.26550E-04
  669.00      4.20880E-04
  671.00      4.23920E-04
  673.00      4.21660E-04
  675.00      4.19390E-04
  677.00      4.17140E-04
  679.00      4.14910E-04
  681.00      4.12690E-04
  683.00      4.10490E-04
  685.00      4.08310E-04
  687.00      4.06140E-04
  689.00      3.99170E-04
  691.00      4.01570E-04
  693.00      3.99760E-04
  695.00      3.97670E-04
  697.00      3.95590E-04
  699.00      3.93520E-04
  701.00      3.91480E-04
  703.00      3.89440E-04
  705.00      3.87430E-04
  707.00      3.83690E-04
  709.00      3.83450E-04
  711.00      3.81480E-04
  713.00      3.79520E-04
  715.00      3.77580E-04
  717.00      3.72280E-04
  719.00      3.71640E-04
  721.00      3.71850E-04
  723.00      3.69970E-04
  725.00      3.68110E-04
  727.00      3.66260E-04
  729.00      3.63740E-04
  731.00      3.62590E-04
  733.00      3.60780E-04
  735.00      3.58990E-04
  737.00      3.57200E-04
  739.00      3.55430E-04
  741.00      3.53670E-04
  743.00      3.51930E-04
  745.00      3.50200E-04
  747.00      3.48480E-04
  749.00      3.46780E-04
  751.00      3.45080E-04
  753.00      3.43400E-04
  755.00      3.41730E-04
  757.00      3.40070E-04
  759.00      3.33340E-04
  761.00      3.36390E-04
  763.00      3.35170E-04
  765.00      3.33570E-04
  767.00      3.31970E-04
  769.00      3.30380E-04
  771.00      3.28810E-04
  773.00      3.27240E-04
  775.00      3.25690E-04
  777.00      3.24150E-04
  779.00      3.22610E-04
  781.00      3.21090E-04
  783.00      3.19580E-04
  785.00      3.18120E-04
  787.00      3.16630E-04
  789.00      3.15150E-04
  791.00      3.13690E-04
  793.00      3.12230E-04
  795.00      3.10780E-04
  797.00      3.09340E-04
  799.00      3.07910E-04
  801.00      3.06500E-04
  803.00      3.05090E-04
  805.00      3.03690E-04
  807.00      3.02300E-04
  809.00      3.00920E-04
  811.00      2.99550E-04
  813.00      2.98190E-04
  815.00      2.96830E-04
  817.00      2.95490E-04
  819.00      2.93080E-04
  821.00      2.83040E-04
  823.00      2.80110E-04
  825.00      2.80160E-04
  827.00      2.79390E-04
  829.00      2.78280E-04
  831.00      2.77110E-04
  833.00      2.75920E-04
  835.00      2.74690E-04
  837.00      2.73600E-04
  839.00      2.72490E-04
  841.00      2.71410E-04
  843.00      2.70330E-04
  845.00      2.69150E-04
  847.00      2.68260E-04
  849.00      2.67340E-04
  851.00      2.66440E-04
  853.00      2.65530E-04
  855.00      2.64580E-04
  857.00      2.63940E-04
  859.00      2.62640E-04
  861.00      2.62050E-04
  863.00      2.61750E-04
  865.00      2.60540E-04
  867.00      2.58950E-04
  869.00      2.59550E-04
  871.00      2.59210E-04
  873.00      2.57800E-04
  875.00      2.54560E-04
  877.00      2.55860E-04
  879.00      2.56730E-04
  881.00      2.56390E-04
  883.00      2.55420E-04
  885.00      2.51410E-04
  887.00      2.47460E-04
  889.00      2.51870E-04
  891.00      2.52430E-04
  893.00      2.51860E-04
  895.00      2.51160E-04
  897.00      2.49800E-04
  899.00      2.46910E-04
  901.00      2.38860E-04
  903.00      2.40940E-04
  905.00      2.44830E-04
  907.00      2.44510E-04
  909.00      2.44150E-04
  911.00      2.43130E-04
  913.00      2.42700E-04
  915.00      2.41710E-04
  917.00      2.40210E-04
  919.00      2.38540E-04
  921.00      2.34340E-04
  923.00      2.24890E-04
  925.00      2.32000E-04
  927.00      2.34550E-04
  929.00      2.34470E-04
  931.00      2.33770E-04
  933.00      2.32630E-04
  935.00      2.27180E-04
  937.00      2.30380E-04
  939.00      2.30240E-04
  941.00      2.29340E-04
  943.00      2.28430E-04
  945.00      2.27520E-04
  947.00      2.26380E-04
  949.00      2.25330E-04
  951.00      2.23160E-04
  953.00      2.18650E-04
  955.00      2.09440E-04
  957.00      2.18340E-04
  959.00      2.20260E-04
  961.00      2.20120E-04
  963.00      2.19430E-04
  965.00      2.18740E-04
  967.00      2.17890E-04
  969.00      2.17040E-04
  971.00      2.16130E-04
  973.00      2.15370E-04
  975.00      2.14310E-04
  977.00      2.12850E-04
  979.00      2.12890E-04
  981.00      2.12080E-04
  983.00      2.11270E-04
  985.00      2.10460E-04
  987.00      2.09660E-04
  989.00      2.08860E-04
  991.00      2.08070E-04
  993.00      2.07280E-04
  995.00      2.06490E-04
  997.00      2.05710E-04
  999.00      2.04710E-04
  1002.5      1.99490E-04
  1007.5      1.96260E-04
  1012.5      1.96760E-04
  1017.5      1.97970E-04
  1022.5      1.96150E-04
  1027.5      1.94350E-04
  1032.5      1.92390E-04
  1037.5      1.90830E-04
  1042.5      1.88380E-04
  1047.5      1.87400E-04
  1052.5      1.85730E-04
  1057.5      1.84070E-04
  1062.5      1.82440E-04
  1067.5      1.80780E-04
  1072.5      1.79230E-04
  1077.5      1.77660E-04
  1082.5      1.75580E-04
  1087.5      1.74270E-04
  1092.5      1.66620E-04
  1097.5      1.69540E-04
  1102.5      1.69960E-04
  1107.5      1.68640E-04
  1112.5      1.67220E-04
  1117.5      1.65870E-04
  1122.5      1.64460E-04
  1127.5      1.63090E-04
  1132.5      1.61730E-04
  1137.5      1.60380E-04
  1142.5      1.59050E-04
  1147.5      1.57740E-04
  1152.5      1.56440E-04
  1157.5      1.55160E-04
  1162.5      1.52390E-04
  1167.5      1.51660E-04
  1172.5      1.51400E-04
  1177.5      1.50180E-04
  1182.5      1.48980E-04
  1187.5      1.47790E-04
  1192.5      1.46610E-04
  1197.5      1.45130E-04
  1202.5      1.44300E-04
  1207.5      1.43160E-04
  1212.5      1.42040E-04
  1217.5      1.40930E-04
  1222.5      1.39830E-04
  1227.5      1.38750E-04
  1232.5      1.37680E-04
  1237.5      1.36620E-04
  1242.5      1.35570E-04
  1247.5      1.34540E-04
  1252.5      1.33470E-04
  1257.5      1.32500E-04
  1262.5      1.31500E-04
  1267.5      1.30510E-04
  1272.5      1.29530E-04
  1277.5      1.27580E-04
  1282.5      1.22510E-04
  1287.5      1.26220E-04
  1292.5      1.25730E-04
  1297.5      1.24680E-04
  1302.5      1.23890E-04
  1307.5      1.22980E-04
  1312.5      1.22090E-04
  1317.5      1.21200E-04
  1322.5      1.20330E-04
  1327.5      1.19460E-04
  1332.5      1.18610E-04
  1337.5      1.17760E-04
  1342.5      1.16910E-04
  1347.5      1.16090E-04
  1352.5      1.15270E-04
  1357.5      1.14450E-04
  1362.5      1.13650E-04
  1367.5      1.12850E-04
  1372.5      1.12070E-04
  1377.5      1.11290E-04
  1382.5      1.10520E-04
  1387.5      1.09750E-04
  1392.5      1.09000E-04
  1397.5      1.08250E-04
