 Castelli and Kurucz 2004-2012 Atmosphere
 T     34000.     G    4.00000 [-2.5a] N(He)/Ntot=0.0784 VTURB=2  L/H=1.25 NOVE
 Wavelength  Eddington Hnu
   (nm)    (ergs/s/cm2/Hz/sr)
  9.0900      3.36600E-29
  9.3500      1.78320E-28
  9.6100      8.69760E-28
  9.7700      2.22050E-27
  9.9600      6.51410E-27
  10.200      2.40720E-26
  10.380      6.19430E-26
  10.560      1.54740E-25
  10.770      4.34930E-25
  11.040      1.56000E-24
  11.400      7.85800E-24
  11.780      3.93720E-23
  12.130      1.60220E-22
  12.480      6.05970E-22
  12.710      1.40310E-21
  12.840      2.22740E-21
  13.050      4.60840E-21
  13.240      8.73660E-21
  13.390      1.43100E-20
  13.660      3.39950E-20
  13.980      9.09100E-20
  14.330      2.53880E-19
  14.720      7.57470E-19
  15.100      2.08360E-18
  15.520      6.03740E-18
  15.880      1.44050E-17
  16.200      3.02110E-17
  16.600      7.33750E-17
  17.030      1.82180E-16
  17.340      3.41330E-16
  17.680      6.62560E-16
  18.020      1.25530E-15
  18.170      1.65190E-15
  18.610      3.60200E-15
  19.100      8.22580E-15
  19.390      1.31500E-14
  19.840      2.65130E-14
  20.180      4.40860E-14
  20.500      7.00230E-14
  21.050      1.50140E-13
  21.620      3.17520E-13
  21.980      4.99180E-13
  22.300      7.36830E-13
  22.680      1.15340E-12
  23.000      1.07250E-10
  23.400      5.64370E-10
  24.000      1.82720E-09
  24.650      6.75640E-09
  25.240      1.46840E-08
  25.680      8.74190E-09
  26.000      4.29750E-08
  26.400      9.42260E-08
  26.850      1.79260E-07
  27.350      2.72400E-07
  27.850      3.22220E-07
  28.400      4.80640E-07
  29.000      5.23310E-07
  29.600      3.06370E-07
  30.100      6.96050E-08
  30.800      2.07580E-07
  31.800      8.33010E-07
  32.800      1.11470E-06
  33.800      1.33540E-06
  34.800      1.62050E-06
  35.700      1.84170E-06
  36.600      2.21240E-06
  37.500      2.49410E-06
  38.500      2.96340E-06
  39.500      3.54820E-06
  40.500      4.20150E-06
  41.400      4.93490E-06
  42.200      5.55390E-06
  43.000      6.28100E-06
  44.100      7.58630E-06
  45.100      8.85610E-06
  46.000      1.00580E-05
  47.000      1.18000E-05
  48.000      1.36140E-05
  49.000      1.53620E-05
  50.000      1.79070E-05
  50.600      7.10430E-05
  51.200      1.64370E-04
  52.000      1.65730E-04
  53.000      1.71960E-04
  54.000      1.65950E-04
  55.000      1.78660E-04
  56.000      1.97540E-04
  57.000      2.06040E-04
  58.000      2.03720E-04
  59.000      2.18770E-04
  60.000      2.19530E-04
  61.000      2.25850E-04
  62.000      2.43570E-04
  63.000      2.50440E-04
  64.000      2.57610E-04
  65.000      2.63720E-04
  65.800      2.63560E-04
  66.500      2.73670E-04
  67.500      2.86630E-04
  68.500      2.84540E-04
  69.500      3.02640E-04
  70.500      2.99340E-04
  71.600      3.20770E-04
  72.600      3.29040E-04
  73.500      3.39300E-04
  74.500      3.43480E-04
  75.500      3.51060E-04
  76.500      3.58090E-04
  77.500      3.69080E-04
  78.500      3.78610E-04
  79.500      3.87470E-04
  80.500      3.94920E-04
  81.500      4.04810E-04
  82.500      4.17100E-04
  83.500      4.07410E-04
  84.500      4.32970E-04
  85.500      4.41210E-04
  86.500      4.52620E-04
  87.500      4.61270E-04
  88.500      4.69990E-04
  89.500      4.78740E-04
  90.500      4.84800E-04
  91.500      5.21440E-04
  92.500      1.31420E-03
  93.500      1.80540E-03
  94.500      2.30180E-03
  95.500      2.47920E-03
  96.500      2.77100E-03
  97.500      2.19730E-03
  98.500      2.74360E-03
  99.500      2.63800E-03
  100.50      2.75430E-03
  101.50      2.76610E-03
  102.50      2.26450E-03
  103.50      2.74050E-03
  104.50      2.77120E-03
  105.50      2.76500E-03
  106.50      2.71430E-03
  107.50      2.71120E-03
  108.50      2.63430E-03
  109.50      2.73360E-03
  110.50      2.71080E-03
  111.50      2.69040E-03
  112.50      2.63990E-03
  113.50      2.69460E-03
  114.50      2.68280E-03
  115.50      2.65680E-03
  116.50      2.65930E-03
  117.50      2.46310E-03
  118.50      2.62680E-03
  119.50      2.61870E-03
  120.50      2.58200E-03
  121.50      2.13140E-03
  122.50      2.58330E-03
  123.50      2.58210E-03
  124.50      2.55260E-03
  125.50      2.57060E-03
  126.50      2.56080E-03
  127.50      2.55000E-03
  128.50      2.53960E-03
  129.50      2.50800E-03
  130.50      2.50750E-03
  131.50      2.50430E-03
  132.50      2.49040E-03
  133.50      2.47450E-03
  134.50      2.46890E-03
  135.50      2.45570E-03
  136.50      2.44170E-03
  137.50      2.42600E-03
  138.50      2.41810E-03
  139.50      2.36460E-03
  140.50      2.35210E-03
  141.50      2.38090E-03
  142.50      2.36230E-03
  143.50      2.35710E-03
  144.20      2.34790E-03
  144.70      2.34200E-03
  145.50      2.33060E-03
  146.50      2.31990E-03
  147.50      2.30810E-03
  148.50      2.29900E-03
  149.50      2.28450E-03
  150.50      2.27420E-03
  151.20      2.26770E-03
  151.70      2.25960E-03
  152.50      2.24760E-03
  153.50      2.22260E-03
  154.50      2.16750E-03
  155.50      2.16550E-03
  156.50      2.18460E-03
  157.50      2.18270E-03
  158.50      2.17370E-03
  159.50      2.16220E-03
  160.50      2.13660E-03
  161.50      2.12510E-03
  162.50      2.10630E-03
  163.50      2.07140E-03
  164.50      1.98560E-03
  165.50      2.08850E-03
  166.50      2.07580E-03
  167.20      2.06350E-03
  167.70      2.07220E-03
  168.50      2.06130E-03
  169.50      2.05070E-03
  170.50      2.03770E-03
  171.50      2.01090E-03
  172.50      2.00380E-03
  173.50      2.00890E-03
  174.50      1.99620E-03
  175.50      1.98290E-03
  176.50      1.97550E-03
  177.50      1.96560E-03
  178.50      1.95500E-03
  179.50      1.94310E-03
  180.50      1.93340E-03
  181.50      1.92260E-03
  182.50      1.91140E-03
  183.50      1.90250E-03
  184.50      1.89100E-03
  185.50      1.87930E-03
  186.50      1.86880E-03
  187.50      1.85910E-03
  188.50      1.84910E-03
  189.50      1.83950E-03
  190.50      1.83050E-03
  191.50      1.81980E-03
  192.50      1.80670E-03
  193.50      1.80030E-03
  194.50      1.79090E-03
  195.50      1.77980E-03
  196.70      1.76920E-03
  197.60      1.76080E-03
  198.40      1.75280E-03
  199.50      1.74190E-03
  200.50      1.73320E-03
  201.50      1.72380E-03
  202.50      1.71440E-03
  203.50      1.70500E-03
  204.50      1.69570E-03
  205.50      1.40350E-03
  206.50      1.37490E-03
  207.40      1.40960E-03
  207.80      1.44140E-03
  208.50      1.53430E-03
  209.50      1.63980E-03
  210.50      1.64350E-03
  211.50      1.63890E-03
  212.50      1.63010E-03
  213.50      1.62030E-03
  214.50      1.61370E-03
  215.50      1.62260E-03
  216.50      1.58970E-03
  217.50      1.60980E-03
  218.50      1.57330E-03
  219.50      1.59190E-03
  220.50      1.58390E-03
  221.50      1.54750E-03
  222.50      1.56660E-03
  223.50      1.55810E-03
  224.50      1.54950E-03
  225.50      1.51500E-03
  226.50      1.53290E-03
  227.50      1.52470E-03
  228.50      1.51590E-03
  229.50      1.49450E-03
  230.50      1.47520E-03
  231.50      1.49190E-03
  232.50      1.48400E-03
  233.50      1.47610E-03
  234.50      1.46820E-03
  235.50      1.46040E-03
  236.50      1.45260E-03
  237.50      1.44480E-03
  238.50      1.41300E-03
  239.50      1.42840E-03
  240.50      1.42200E-03
  241.50      1.41440E-03
  242.50      1.40700E-03
  243.50      1.39960E-03
  244.50      1.39230E-03
  245.50      1.38470E-03
  246.50      1.37770E-03
  247.50      1.37050E-03
  248.50      1.36340E-03
  249.50      1.31980E-03
  250.50      1.34750E-03
  251.30      1.29210E-03
  251.80      1.33700E-03
  252.50      1.33520E-03
  253.50      1.32840E-03
  254.50      1.32140E-03
  255.50      1.31460E-03
  256.50      1.30790E-03
  257.50      1.30120E-03
  258.50      1.29460E-03
  259.50      1.28780E-03
  260.50      1.28330E-03
  261.50      1.27670E-03
  262.50      1.27020E-03
  263.50      1.26340E-03
  264.50      1.25690E-03
  265.50      1.25000E-03
  266.50      1.24320E-03
  267.50      1.23630E-03
  268.50      1.23220E-03
  269.50      1.22350E-03
  270.50      1.21990E-03
  271.50      1.21370E-03
  272.50      1.20440E-03
  273.50      1.18230E-03
  274.50      1.19570E-03
  275.50      1.18970E-03
  276.50      1.17990E-03
  277.50      1.17800E-03
  278.50      1.17220E-03
  279.50      1.16590E-03
  280.50      1.16060E-03
  281.50      1.15490E-03
  282.50      1.14480E-03
  283.50      1.14230E-03
  284.50      1.13810E-03
  285.50      1.13260E-03
  286.50      1.12700E-03
  287.50      1.12160E-03
  288.50      1.11620E-03
  289.50      1.11070E-03
  291.00      1.10270E-03
  293.00      1.09220E-03
  295.00      1.07840E-03
  297.00      1.07140E-03
  299.00      1.06110E-03
  301.00      1.05120E-03
  303.00      1.04110E-03
  305.00      1.03140E-03
  307.00      1.02200E-03
  309.00      1.01230E-03
  311.00      1.00310E-03
  313.00      9.94110E-04
  315.00      9.84940E-04
  317.00      9.75870E-04
  319.00      9.62810E-04
  321.00      9.49880E-04
  323.00      9.49450E-04
  325.00      9.40840E-04
  327.00      9.32420E-04
  329.00      9.23870E-04
  331.00      9.16150E-04
  333.00      9.08020E-04
  335.00      8.99210E-04
  337.00      8.92110E-04
  339.00      8.84320E-04
  341.00      8.76610E-04
  343.00      8.67700E-04
  345.00      8.58750E-04
  347.00      8.52610E-04
  349.00      8.45440E-04
  351.00      8.39080E-04
  353.00      8.31870E-04
  355.00      8.24640E-04
  357.00      8.19820E-04
  359.00      8.10210E-04
  361.00      8.04490E-04
  363.00      7.96500E-04
  364.00      7.89680E-04
  365.00      7.55690E-04
  367.00      7.50930E-04
  369.00      7.45640E-04
  371.00      7.39520E-04
  373.00      7.32860E-04
  375.00      7.47050E-04
  377.00      7.48960E-04
  379.00      7.63010E-04
  381.00      7.79720E-04
  383.00      7.30530E-04
  385.00      7.83820E-04
  387.00      7.84280E-04
  389.00      7.13840E-04
  391.00      7.76620E-04
  393.00      7.66680E-04
  395.00      7.65090E-04
  397.00      6.89020E-04
  399.00      7.52010E-04
  401.00      7.46880E-04
  403.00      7.27010E-04
  405.00      7.37670E-04
  407.00      7.31410E-04
  409.00      7.11090E-04
  411.00      6.64060E-04
  413.00      7.11480E-04
  415.00      7.06280E-04
  417.00      7.03170E-04
  419.00      6.97180E-04
  421.00      6.88130E-04
  423.00      6.87510E-04
  425.00      6.82210E-04
  427.00      6.76980E-04
  429.00      6.71850E-04
  431.00      6.66340E-04
  433.00      6.42840E-04
  435.00      6.11940E-04
  437.00      6.51180E-04
  439.00      6.41140E-04
  441.00      6.42080E-04
  443.00      6.36640E-04
  445.00      6.32680E-04
  447.00      6.17860E-04
  449.00      6.23370E-04
  451.00      6.18830E-04
  453.00      6.14170E-04
  455.00      6.04930E-04
  457.00      6.05420E-04
  459.00      6.01000E-04
  461.00      5.96690E-04
  463.00      5.92340E-04
  465.00      5.87450E-04
  467.00      5.83850E-04
  469.00      5.68120E-04
  471.00      5.72440E-04
  473.00      5.71650E-04
  475.00      5.67620E-04
  477.00      5.63640E-04
  479.00      5.59690E-04
  481.00      5.55780E-04
  483.00      5.51560E-04
  485.00      5.35930E-04
  487.00      5.03770E-04
  489.00      5.39730E-04
  491.00      5.36830E-04
  493.00      5.27850E-04
  495.00      5.29500E-04
  497.00      5.25920E-04
  499.00      5.22360E-04
  501.00      5.15840E-04
  503.00      5.15330E-04
  505.00      5.10720E-04
  507.00      5.08440E-04
  509.00      5.05050E-04
  511.00      5.01690E-04
  513.00      4.98360E-04
  515.00      4.95060E-04
  517.00      4.91800E-04
  519.00      4.88570E-04
  521.00      4.85370E-04
  523.00      4.82200E-04
  525.00      4.79060E-04
  527.00      4.75950E-04
  529.00      4.72870E-04
  531.00      4.69820E-04
  533.00      4.66800E-04
  535.00      4.63810E-04
  537.00      4.60840E-04
  539.00      4.57900E-04
  541.00      4.51260E-04
  543.00      4.52110E-04
  545.00      4.49260E-04
  547.00      4.46430E-04
  549.00      4.43630E-04
  551.00      4.40850E-04
  553.00      4.38100E-04
  555.00      4.35370E-04
  557.00      4.32670E-04
  559.00      4.29970E-04
  561.00      4.27350E-04
  563.00      4.24720E-04
  565.00      4.22110E-04
  567.00      4.19530E-04
  569.00      4.15050E-04
  571.00      4.04260E-04
  573.00      4.01930E-04
  575.00      3.99610E-04
  577.00      3.97330E-04
  579.00      3.95120E-04
  581.00      3.93110E-04
  583.00      3.91310E-04
  585.00      3.89820E-04
  587.00      3.82640E-04
  589.00      3.86860E-04
  591.00      3.85680E-04
  593.00      3.84460E-04
  595.00      3.83340E-04
  597.00      3.82150E-04
  599.00      3.81000E-04
  601.00      3.79240E-04
  603.00      3.77030E-04
  605.00      3.74840E-04
  607.00      3.72680E-04
  609.00      3.70530E-04
  611.00      3.68390E-04
  613.00      3.66280E-04
  615.00      3.64190E-04
  617.00      3.62040E-04
  619.00      3.60050E-04
  621.00      3.58010E-04
  623.00      3.55730E-04
  625.00      3.53980E-04
  627.00      3.51990E-04
  629.00      3.50010E-04
  631.00      3.47650E-04
  633.00      3.46110E-04
  635.00      3.44190E-04
  637.00      3.42280E-04
  639.00      3.40380E-04
  641.00      3.37970E-04
  643.00      3.36640E-04
  645.00      3.34790E-04
  647.00      3.32960E-04
  649.00      3.31140E-04
  651.00      3.29330E-04
  653.00      3.26350E-04
  655.00      3.21720E-04
  657.00      3.00480E-04
  659.00      3.21640E-04
  661.00      3.20530E-04
  663.00      3.18810E-04
  665.00      3.17180E-04
  667.00      3.13780E-04
  669.00      3.11150E-04
  671.00      3.12130E-04
  673.00      3.10490E-04
  675.00      3.08850E-04
  677.00      3.07230E-04
  679.00      3.05620E-04
  681.00      3.04020E-04
  683.00      3.02430E-04
  685.00      3.00850E-04
  687.00      2.99280E-04
  689.00      2.96750E-04
  691.00      2.96190E-04
  693.00      2.94660E-04
  695.00      2.93150E-04
  697.00      2.91640E-04
  699.00      2.90140E-04
  701.00      2.88660E-04
  703.00      2.87190E-04
  705.00      2.85730E-04
  707.00      2.81720E-04
  709.00      2.82850E-04
  711.00      2.81420E-04
  713.00      2.80000E-04
  715.00      2.78600E-04
  717.00      2.76460E-04
  719.00      2.75530E-04
  721.00      2.74440E-04
  723.00      2.73070E-04
  725.00      2.71720E-04
  727.00      2.70380E-04
  729.00      2.67780E-04
  731.00      2.67700E-04
  733.00      2.66400E-04
  735.00      2.65090E-04
  737.00      2.63800E-04
  739.00      2.62510E-04
  741.00      2.61230E-04
  743.00      2.59960E-04
  745.00      2.58720E-04
  747.00      2.57470E-04
  749.00      2.56220E-04
  751.00      2.54960E-04
  753.00      2.53770E-04
  755.00      2.52550E-04
  757.00      2.51350E-04
  759.00      2.49150E-04
  761.00      2.48960E-04
  763.00      2.47780E-04
  765.00      2.46600E-04
  767.00      2.45440E-04
  769.00      2.44280E-04
  771.00      2.43140E-04
  773.00      2.41990E-04
  775.00      2.40860E-04
  777.00      2.39740E-04
  779.00      2.38620E-04
  781.00      2.37460E-04
  783.00      2.36420E-04
  785.00      2.35420E-04
  787.00      2.34340E-04
  789.00      2.33240E-04
  791.00      2.32190E-04
  793.00      2.31120E-04
  795.00      2.30070E-04
  797.00      2.28970E-04
  799.00      2.27970E-04
  801.00      2.26940E-04
  803.00      2.25910E-04
  805.00      2.24850E-04
  807.00      2.23850E-04
  809.00      2.22700E-04
  811.00      2.21710E-04
  813.00      2.20850E-04
  815.00      2.19670E-04
  817.00      2.18880E-04
  819.00      2.17540E-04
  821.00      2.14230E-04
  823.00      2.12860E-04
  825.00      2.12550E-04
  827.00      2.11340E-04
  829.00      2.10760E-04
  831.00      2.09880E-04
  833.00      2.08940E-04
  835.00      2.07640E-04
  837.00      2.07030E-04
  839.00      2.06270E-04
  841.00      2.05440E-04
  843.00      2.04510E-04
  845.00      2.03140E-04
  847.00      2.02810E-04
  849.00      2.01930E-04
  851.00      2.01010E-04
  853.00      2.00440E-04
  855.00      1.98620E-04
  857.00      1.99830E-04
  859.00      1.96310E-04
  861.00      1.96120E-04
  863.00      1.98280E-04
  865.00      1.95790E-04
  867.00      1.90250E-04
  869.00      1.96170E-04
  871.00      1.96480E-04
  873.00      1.93820E-04
  875.00      1.84460E-04
  877.00      1.91160E-04
  879.00      1.93990E-04
  881.00      1.93450E-04
  883.00      1.92420E-04
  885.00      1.86370E-04
  887.00      1.78680E-04
  889.00      1.89160E-04
  891.00      1.89660E-04
  893.00      1.89050E-04
  895.00      1.88580E-04
  897.00      1.87600E-04
  899.00      1.84940E-04
  901.00      1.73540E-04
  903.00      1.78580E-04
  905.00      1.83890E-04
  907.00      1.82940E-04
  909.00      1.82980E-04
  911.00      1.82470E-04
  913.00      1.81820E-04
  915.00      1.81080E-04
  917.00      1.80120E-04
  919.00      1.79190E-04
  921.00      1.75160E-04
  923.00      1.63160E-04
  925.00      1.74030E-04
  927.00      1.76210E-04
  929.00      1.76040E-04
  931.00      1.74970E-04
  933.00      1.74640E-04
  935.00      1.72720E-04
  937.00      1.73250E-04
  939.00      1.72570E-04
  941.00      1.71890E-04
  943.00      1.71210E-04
  945.00      1.70540E-04
  947.00      1.69370E-04
  949.00      1.69200E-04
  951.00      1.67170E-04
  953.00      1.63520E-04
  955.00      1.52900E-04
  957.00      1.64250E-04
  959.00      1.65530E-04
  961.00      1.65060E-04
  963.00      1.64250E-04
  965.00      1.64010E-04
  967.00      1.63380E-04
  969.00      1.62690E-04
  971.00      1.61890E-04
  973.00      1.61500E-04
  975.00      1.60880E-04
  977.00      1.60150E-04
  979.00      1.59660E-04
  981.00      1.59050E-04
  983.00      1.58450E-04
  985.00      1.57850E-04
  987.00      1.57250E-04
  989.00      1.56660E-04
  991.00      1.56070E-04
  993.00      1.55480E-04
  995.00      1.54900E-04
  997.00      1.54310E-04
  999.00      1.53730E-04
  1002.5      1.49320E-04
  1007.5      1.46680E-04
  1012.5      1.48810E-04
  1017.5      1.48550E-04
  1022.5      1.47160E-04
  1027.5      1.45850E-04
  1032.5      1.44210E-04
  1037.5      1.43220E-04
  1042.5      1.41850E-04
  1047.5      1.40670E-04
  1052.5      1.39420E-04
  1057.5      1.38180E-04
  1062.5      1.36960E-04
  1067.5      1.35640E-04
  1072.5      1.34570E-04
  1077.5      1.33400E-04
  1082.5      1.31450E-04
  1087.5      1.31010E-04
  1092.5      1.24090E-04
  1097.5      1.27560E-04
  1102.5      1.27430E-04
  1107.5      1.26650E-04
  1112.5      1.25600E-04
  1117.5      1.24550E-04
  1122.5      1.23480E-04
  1127.5      1.22480E-04
  1132.5      1.21460E-04
  1137.5      1.20450E-04
  1142.5      1.19460E-04
  1147.5      1.18480E-04
  1152.5      1.17510E-04
  1157.5      1.16550E-04
  1162.5      1.15280E-04
  1167.5      1.14550E-04
  1172.5      1.13750E-04
  1177.5      1.12840E-04
  1182.5      1.11930E-04
  1187.5      1.11040E-04
  1192.5      1.10160E-04
  1197.5      1.08740E-04
  1202.5      1.08440E-04
  1207.5      1.07590E-04
  1212.5      1.06750E-04
  1217.5      1.05920E-04
  1222.5      1.05100E-04
  1227.5      1.04290E-04
  1232.5      1.03480E-04
  1237.5      1.02690E-04
  1242.5      1.01910E-04
  1247.5      1.01140E-04
  1252.5      1.00260E-04
  1257.5      9.96130E-05
  1262.5      9.88650E-05
  1267.5      9.81250E-05
  1272.5      9.73920E-05
  1277.5      9.57940E-05
  1282.5      9.16740E-05
  1287.5      9.50240E-05
  1292.5      9.45460E-05
  1297.5      9.35370E-05
  1302.5      9.31710E-05
  1307.5      9.24940E-05
  1312.5      9.18240E-05
  1317.5      9.11620E-05
  1322.5      9.05060E-05
  1327.5      8.98580E-05
  1332.5      8.92160E-05
  1337.5      8.85810E-05
  1342.5      8.79160E-05
  1347.5      8.73320E-05
  1352.5      8.67170E-05
  1357.5      8.61090E-05
  1362.5      8.55070E-05
  1367.5      8.49110E-05
  1372.5      8.43210E-05
  1377.5      8.37380E-05
  1382.5      8.31600E-05
  1387.5      8.25890E-05
  1392.5      8.20230E-05
  1397.5      8.14630E-05
