 Castelli and Kurucz 2004-2012 Atmosphere
 T     42000.     G    4.50000 [-2.5a] N(He)/Ntot=0.0784 VTURB=2  L/H=1.25 NOVE
 Wavelength  Eddington Hnu
   (nm)    (ergs/s/cm2/Hz/sr)
  9.0900      4.99650E-22
  9.3500      1.72100E-21
  9.6100      5.57860E-21
  9.7700      1.11930E-20
  9.9600      2.49300E-20
  10.200      6.59450E-20
  10.380      1.33300E-19
  10.560      2.63710E-19
  10.770      5.69740E-19
  11.040      1.47470E-18
  11.400      4.91680E-18
  11.780      1.63320E-17
  12.130      4.64070E-17
  12.480      1.24940E-16
  12.710      2.33020E-16
  12.840      3.28460E-16
  13.050      5.64320E-16
  13.240      9.08460E-16
  13.390      1.31110E-15
  13.660      2.48920E-15
  13.980      5.16660E-15
  14.330      1.10890E-14
  14.720      2.49160E-14
  15.100      5.28060E-14
  15.520      1.16180E-13
  15.880      2.21240E-13
  16.200      3.83270E-13
  16.600      7.39840E-13
  17.030      1.44950E-12
  17.340      2.30690E-12
  17.680      3.77140E-12
  18.020      6.05040E-12
  18.170      7.40630E-12
  18.610      1.31950E-11
  19.100      2.42950E-11
  19.390      3.43650E-11
  19.840      5.76790E-11
  20.180      8.39920E-11
  20.500      1.18230E-10
  21.050      2.07570E-10
  21.620      3.60550E-10
  21.980      5.03360E-10
  22.300      6.70880E-10
  22.680      9.33120E-10
  23.000      3.03120E-08
  23.400      1.16820E-07
  24.000      4.75480E-07
  24.650      8.00550E-06
  25.240      2.40470E-05
  25.680      1.44080E-05
  26.000      5.58800E-05
  26.400      8.56300E-05
  26.850      1.13240E-04
  27.350      1.43300E-04
  27.850      1.54970E-04
  28.400      1.87180E-04
  29.000      2.10380E-04
  29.600      1.67940E-04
  30.100      3.76740E-05
  30.800      1.00050E-04
  31.800      2.21560E-04
  32.800      2.65090E-04
  33.800      2.75390E-04
  34.800      2.98930E-04
  35.700      3.53700E-04
  36.600      3.94380E-04
  37.500      4.15380E-04
  38.500      4.08250E-04
  39.500      4.65720E-04
  40.500      5.02830E-04
  41.400      5.23940E-04
  42.200      5.26480E-04
  43.000      5.40890E-04
  44.100      5.81200E-04
  45.100      6.01970E-04
  46.000      6.06450E-04
  47.000      6.26180E-04
  48.000      6.57230E-04
  49.000      6.55920E-04
  50.000      7.03470E-04
  50.600      7.84290E-04
  51.200      1.00820E-03
  52.000      1.02120E-03
  53.000      1.05580E-03
  54.000      1.03660E-03
  55.000      1.04850E-03
  56.000      1.13800E-03
  57.000      1.18000E-03
  58.000      1.18540E-03
  59.000      1.23140E-03
  60.000      1.23130E-03
  61.000      1.22680E-03
  62.000      1.29390E-03
  63.000      1.30950E-03
  64.000      1.35260E-03
  65.000      1.35920E-03
  65.800      1.34570E-03
  66.500      1.39810E-03
  67.500      1.43590E-03
  68.500      1.42200E-03
  69.500      1.48000E-03
  70.500      1.45010E-03
  71.600      1.52530E-03
  72.600      1.55200E-03
  73.500      1.57120E-03
  74.500      1.57910E-03
  75.500      1.59390E-03
  76.500      1.60000E-03
  77.500      1.63740E-03
  78.500      1.64070E-03
  79.500      1.66400E-03
  80.500      1.68820E-03
  81.500      1.70910E-03
  82.500      1.73480E-03
  83.500      1.69620E-03
  84.500      1.76030E-03
  85.500      1.76560E-03
  86.500      1.79760E-03
  87.500      1.81500E-03
  88.500      1.82710E-03
  89.500      1.83870E-03
  90.500      1.83450E-03
  91.500      1.52320E-03
  92.500      2.63390E-03
  93.500      3.37300E-03
  94.500      4.12380E-03
  95.500      4.44460E-03
  96.500      4.95620E-03
  97.500      4.11860E-03
  98.500      4.90960E-03
  99.500      4.67030E-03
  100.50      4.91250E-03
  101.50      4.88210E-03
  102.50      4.07360E-03
  103.50      4.82420E-03
  104.50      4.83610E-03
  105.50      4.81170E-03
  106.50      4.73360E-03
  107.50      4.72010E-03
  108.50      4.52350E-03
  109.50      4.69760E-03
  110.50      4.65860E-03
  111.50      4.62150E-03
  112.50      4.54930E-03
  113.50      4.58100E-03
  114.50      4.55290E-03
  115.50      4.49810E-03
  116.50      4.47630E-03
  117.50      4.29350E-03
  118.50      4.42800E-03
  119.50      4.38980E-03
  120.50      4.35870E-03
  121.50      3.67140E-03
  122.50      4.29740E-03
  123.50      4.26300E-03
  124.50      4.22750E-03
  125.50      4.23700E-03
  126.50      4.20940E-03
  127.50      4.18170E-03
  128.50      4.15400E-03
  129.50      4.12480E-03
  130.50      4.09600E-03
  131.50      4.06950E-03
  132.50      4.03900E-03
  133.50      4.01440E-03
  134.50      3.98870E-03
  135.50      3.95800E-03
  136.50      3.92580E-03
  137.50      3.88390E-03
  138.50      3.87350E-03
  139.50      3.81610E-03
  140.50      3.77990E-03
  141.50      3.79720E-03
  142.50      3.76860E-03
  143.50      3.74700E-03
  144.20      3.72100E-03
  144.70      3.71080E-03
  145.50      3.68890E-03
  146.50      3.66530E-03
  147.50      3.64400E-03
  148.50      3.62420E-03
  149.50      3.59770E-03
  150.50      3.57510E-03
  151.20      3.55950E-03
  151.70      3.54480E-03
  152.50      3.52610E-03
  153.50      3.49620E-03
  154.50      3.40970E-03
  155.50      3.39670E-03
  156.50      3.42360E-03
  157.50      3.40500E-03
  158.50      3.38080E-03
  159.50      3.35920E-03
  160.50      3.33060E-03
  161.50      3.30870E-03
  162.50      3.27930E-03
  163.50      3.19910E-03
  164.50      3.06180E-03
  165.50      3.22490E-03
  166.50      3.20420E-03
  167.20      3.18380E-03
  167.70      3.18120E-03
  168.50      3.16380E-03
  169.50      3.14340E-03
  170.50      3.12140E-03
  171.50      3.07750E-03
  172.50      3.07300E-03
  173.50      3.06180E-03
  174.50      3.04060E-03
  175.50      3.01970E-03
  176.50      3.00110E-03
  177.50      2.98190E-03
  178.50      2.96270E-03
  179.50      2.94260E-03
  180.50      2.92370E-03
  181.50      2.90460E-03
  182.50      2.88570E-03
  183.50      2.86730E-03
  184.50      2.84860E-03
  185.50      2.82980E-03
  186.50      2.81150E-03
  187.50      2.79330E-03
  188.50      2.77540E-03
  189.50      2.75820E-03
  190.50      2.74070E-03
  191.50      2.72300E-03
  192.50      2.70400E-03
  193.50      2.68860E-03
  194.50      2.67150E-03
  195.50      2.65440E-03
  196.70      2.63440E-03
  197.60      2.61940E-03
  198.40      2.60630E-03
  199.50      2.58820E-03
  200.50      2.57210E-03
  201.50      2.55600E-03
  202.50      2.54000E-03
  203.50      2.52420E-03
  204.50      2.50830E-03
  205.50      1.95830E-03
  206.50      1.90280E-03
  207.40      1.95120E-03
  207.80      2.00080E-03
  208.50      2.14190E-03
  209.50      2.36730E-03
  210.50      2.41910E-03
  211.50      2.41250E-03
  212.50      2.39900E-03
  213.50      2.38020E-03
  214.50      2.37080E-03
  215.50      2.39380E-03
  216.50      2.32650E-03
  217.50      2.38110E-03
  218.50      2.29870E-03
  219.50      2.35140E-03
  220.50      2.34020E-03
  221.50      2.25600E-03
  222.50      2.31130E-03
  223.50      2.29820E-03
  224.50      2.28280E-03
  225.50      2.20500E-03
  226.50      2.25700E-03
  227.50      2.24360E-03
  228.50      2.22980E-03
  229.50      2.20650E-03
  230.50      2.14260E-03
  231.50      2.18910E-03
  232.50      2.17780E-03
  233.50      2.16490E-03
  234.50      2.15220E-03
  235.50      2.13960E-03
  236.50      2.12710E-03
  237.50      2.11450E-03
  238.50      2.04540E-03
  239.50      2.08850E-03
  240.50      2.07790E-03
  241.50      2.06580E-03
  242.50      2.05410E-03
  243.50      2.04230E-03
  244.50      2.03060E-03
  245.50      2.01860E-03
  246.50      2.00750E-03
  247.50      1.99610E-03
  248.50      1.98470E-03
  249.50      1.94280E-03
  250.50      1.95630E-03
  251.30      1.84080E-03
  251.80      1.94420E-03
  252.50      1.93980E-03
  253.50      1.92940E-03
  254.50      1.91870E-03
  255.50      1.90790E-03
  256.50      1.89730E-03
  257.50      1.88680E-03
  258.50      1.87630E-03
  259.50      1.86540E-03
  260.50      1.85610E-03
  261.50      1.84580E-03
  262.50      1.83580E-03
  263.50      1.82580E-03
  264.50      1.81580E-03
  265.50      1.80580E-03
  266.50      1.79580E-03
  267.50      1.78560E-03
  268.50      1.77660E-03
  269.50      1.76640E-03
  270.50      1.75760E-03
  271.50      1.74810E-03
  272.50      1.73770E-03
  273.50      1.68530E-03
  274.50      1.72030E-03
  275.50      1.71110E-03
  276.50      1.70080E-03
  277.50      1.69300E-03
  278.50      1.68410E-03
  279.50      1.67500E-03
  280.50      1.66640E-03
  281.50      1.65760E-03
  282.50      1.64760E-03
  283.50      1.63990E-03
  284.50      1.63190E-03
  285.50      1.62340E-03
  286.50      1.61500E-03
  287.50      1.60660E-03
  288.50      1.59830E-03
  289.50      1.59010E-03
  291.00      1.57790E-03
  293.00      1.56180E-03
  295.00      1.54480E-03
  297.00      1.53030E-03
  299.00      1.51470E-03
  301.00      1.49970E-03
  303.00      1.48450E-03
  305.00      1.46980E-03
  307.00      1.45550E-03
  309.00      1.44130E-03
  311.00      1.42720E-03
  313.00      1.41330E-03
  315.00      1.39980E-03
  317.00      1.38620E-03
  319.00      1.37060E-03
  321.00      1.34120E-03
  323.00      1.34690E-03
  325.00      1.33410E-03
  327.00      1.32090E-03
  329.00      1.30900E-03
  331.00      1.29690E-03
  333.00      1.28480E-03
  335.00      1.27250E-03
  337.00      1.26120E-03
  339.00      1.24960E-03
  341.00      1.23810E-03
  343.00      1.22740E-03
  345.00      1.21570E-03
  347.00      1.20530E-03
  349.00      1.19420E-03
  351.00      1.18340E-03
  353.00      1.17270E-03
  355.00      1.16210E-03
  357.00      1.15250E-03
  359.00      1.14130E-03
  361.00      1.13180E-03
  363.00      1.12120E-03
  364.00      1.09770E-03
  365.00      1.01420E-03
  367.00      1.00680E-03
  369.00      1.00150E-03
  371.00      1.00230E-03
  373.00      1.00770E-03
  375.00      1.02230E-03
  377.00      1.03130E-03
  379.00      1.04440E-03
  381.00      1.05640E-03
  383.00      1.01320E-03
  385.00      1.05260E-03
  387.00      1.05580E-03
  389.00      9.81660E-04
  391.00      1.04200E-03
  393.00      1.02730E-03
  395.00      1.02640E-03
  397.00      9.48120E-04
  399.00      1.00860E-03
  401.00      1.00410E-03
  403.00      9.78310E-04
  405.00      9.89280E-04
  407.00      9.80590E-04
  409.00      9.54660E-04
  411.00      9.07790E-04
  413.00      9.55410E-04
  415.00      9.48590E-04
  417.00      9.42060E-04
  419.00      9.31150E-04
  421.00      9.15530E-04
  423.00      9.19860E-04
  425.00      9.12600E-04
  427.00      9.05410E-04
  429.00      8.98310E-04
  431.00      8.90700E-04
  433.00      8.61780E-04
  435.00      8.32480E-04
  437.00      8.69770E-04
  439.00      8.61600E-04
  441.00      8.57370E-04
  443.00      8.50660E-04
  445.00      8.44350E-04
  447.00      8.31810E-04
  449.00      8.31600E-04
  451.00      8.25340E-04
  453.00      8.18220E-04
  455.00      8.01040E-04
  457.00      8.06970E-04
  459.00      8.00980E-04
  461.00      7.95060E-04
  463.00      7.89150E-04
  465.00      7.83160E-04
  467.00      7.77020E-04
  469.00      7.48880E-04
  471.00      7.64880E-04
  473.00      7.60850E-04
  475.00      7.55360E-04
  477.00      7.49930E-04
  479.00      7.44560E-04
  481.00      7.39240E-04
  483.00      7.33510E-04
  485.00      7.15030E-04
  487.00      6.83100E-04
  489.00      7.17470E-04
  491.00      7.13490E-04
  493.00      7.05640E-04
  495.00      7.03580E-04
  497.00      6.98690E-04
  499.00      6.93860E-04
  501.00      6.87620E-04
  503.00      6.84340E-04
  505.00      6.79320E-04
  507.00      6.75010E-04
  509.00      6.70420E-04
  511.00      6.65880E-04
  513.00      6.61370E-04
  515.00      6.56920E-04
  517.00      6.52510E-04
  519.00      6.48140E-04
  521.00      6.43810E-04
  523.00      6.39530E-04
  525.00      6.35290E-04
  527.00      6.31080E-04
  529.00      6.26930E-04
  531.00      6.22810E-04
  533.00      6.18740E-04
  535.00      6.14700E-04
  537.00      6.10700E-04
  539.00      6.06740E-04
  541.00      5.93410E-04
  543.00      5.98920E-04
  545.00      5.95090E-04
  547.00      5.91280E-04
  549.00      5.87510E-04
  551.00      5.83760E-04
  553.00      5.80070E-04
  555.00      5.76400E-04
  557.00      5.72760E-04
  559.00      5.69120E-04
  561.00      5.65600E-04
  563.00      5.62070E-04
  565.00      5.58570E-04
  567.00      5.55100E-04
  569.00      5.45980E-04
  571.00      5.17350E-04
  573.00      5.14390E-04
  575.00      5.11460E-04
  577.00      5.08630E-04
  579.00      5.06010E-04
  581.00      5.03780E-04
  583.00      5.02120E-04
  585.00      5.01030E-04
  587.00      4.97260E-04
  589.00      4.99480E-04
  591.00      4.99170E-04
  593.00      4.99170E-04
  595.00      4.99540E-04
  597.00      4.99910E-04
  599.00      5.00610E-04
  601.00      4.99210E-04
  603.00      4.97100E-04
  605.00      4.95650E-04
  607.00      4.92330E-04
  609.00      4.90110E-04
  611.00      4.86790E-04
  613.00      4.83980E-04
  615.00      4.81720E-04
  617.00      4.77470E-04
  619.00      4.76170E-04
  621.00      4.73450E-04
  623.00      4.69140E-04
  625.00      4.67730E-04
  627.00      4.65390E-04
  629.00      4.62750E-04
  631.00      4.57790E-04
  633.00      4.57440E-04
  635.00      4.54960E-04
  637.00      4.52410E-04
  639.00      4.49790E-04
  641.00      4.44350E-04
  643.00      4.44870E-04
  645.00      4.42410E-04
  647.00      4.39960E-04
  649.00      4.37530E-04
  651.00      4.34950E-04
  653.00      4.28650E-04
  655.00      4.25620E-04
  657.00      4.03550E-04
  659.00      4.25020E-04
  661.00      4.23370E-04
  663.00      4.21080E-04
  665.00      4.18820E-04
  667.00      4.15190E-04
  669.00      4.09220E-04
  671.00      4.12090E-04
  673.00      4.09900E-04
  675.00      4.07710E-04
  677.00      4.05540E-04
  679.00      4.03390E-04
  681.00      4.01260E-04
  683.00      3.99140E-04
  685.00      3.97040E-04
  687.00      3.94950E-04
  689.00      3.88360E-04
  691.00      3.90690E-04
  693.00      3.88800E-04
  695.00      3.86780E-04
  697.00      3.84770E-04
  699.00      3.82780E-04
  701.00      3.80810E-04
  703.00      3.78850E-04
  705.00      3.76910E-04
  707.00      3.73580E-04
  709.00      3.73070E-04
  711.00      3.71170E-04
  713.00      3.69280E-04
  715.00      3.67410E-04
  717.00      3.62540E-04
  719.00      3.62070E-04
  721.00      3.61880E-04
  723.00      3.60070E-04
  725.00      3.58270E-04
  727.00      3.56480E-04
  729.00      3.54190E-04
  731.00      3.52940E-04
  733.00      3.51200E-04
  735.00      3.49460E-04
  737.00      3.47740E-04
  739.00      3.46030E-04
  741.00      3.44330E-04
  743.00      3.42650E-04
  745.00      3.40980E-04
  747.00      3.39320E-04
  749.00      3.37670E-04
  751.00      3.36030E-04
  753.00      3.34410E-04
  755.00      3.32800E-04
  757.00      3.31190E-04
  759.00      3.25370E-04
  761.00      3.27810E-04
  763.00      3.26460E-04
  765.00      3.24900E-04
  767.00      3.23360E-04
  769.00      3.21820E-04
  771.00      3.20300E-04
  773.00      3.18790E-04
  775.00      3.17290E-04
  777.00      3.15800E-04
  779.00      3.14320E-04
  781.00      3.12840E-04
  783.00      3.11390E-04
  785.00      3.09960E-04
  787.00      3.08520E-04
  789.00      3.07090E-04
  791.00      3.05670E-04
  793.00      3.04260E-04
  795.00      3.02860E-04
  797.00      3.01470E-04
  799.00      3.00090E-04
  801.00      2.98720E-04
  803.00      2.97360E-04
  805.00      2.96000E-04
  807.00      2.94660E-04
  809.00      2.93320E-04
  811.00      2.92000E-04
  813.00      2.90680E-04
  815.00      2.89370E-04
  817.00      2.88070E-04
  819.00      2.85740E-04
  821.00      2.75770E-04
  823.00      2.73150E-04
  825.00      2.73150E-04
  827.00      2.72240E-04
  829.00      2.71140E-04
  831.00      2.70010E-04
  833.00      2.68860E-04
  835.00      2.67690E-04
  837.00      2.66650E-04
  839.00      2.65590E-04
  841.00      2.64620E-04
  843.00      2.63640E-04
  845.00      2.62600E-04
  847.00      2.61770E-04
  849.00      2.60970E-04
  851.00      2.60110E-04
  853.00      2.59380E-04
  855.00      2.58350E-04
  857.00      2.58040E-04
  859.00      2.56650E-04
  861.00      2.56030E-04
  863.00      2.56100E-04
  865.00      2.54910E-04
  867.00      2.52690E-04
  869.00      2.54140E-04
  871.00      2.53960E-04
  873.00      2.52670E-04
  875.00      2.48140E-04
  877.00      2.50710E-04
  879.00      2.51720E-04
  881.00      2.51290E-04
  883.00      2.50430E-04
  885.00      2.46250E-04
  887.00      2.41030E-04
  889.00      2.46750E-04
  891.00      2.46920E-04
  893.00      2.46010E-04
  895.00      2.45560E-04
  897.00      2.44220E-04
  899.00      2.41810E-04
  901.00      2.33250E-04
  903.00      2.35980E-04
  905.00      2.39570E-04
  907.00      2.39110E-04
  909.00      2.38550E-04
  911.00      2.37210E-04
  913.00      2.36720E-04
  915.00      2.35760E-04
  917.00      2.34700E-04
  919.00      2.33320E-04
  921.00      2.29970E-04
  923.00      2.20130E-04
  925.00      2.27740E-04
  927.00      2.29470E-04
  929.00      2.29190E-04
  931.00      2.28160E-04
  933.00      2.27190E-04
  935.00      2.22390E-04
  937.00      2.24670E-04
  939.00      2.24650E-04
  941.00      2.23770E-04
  943.00      2.22890E-04
  945.00      2.22010E-04
  947.00      2.20990E-04
  949.00      2.20260E-04
  951.00      2.18460E-04
  953.00      2.14940E-04
  955.00      2.05690E-04
  957.00      2.14450E-04
  959.00      2.15570E-04
  961.00      2.15110E-04
  963.00      2.14200E-04
  965.00      2.13490E-04
  967.00      2.12670E-04
  969.00      2.11840E-04
  971.00      2.10970E-04
  973.00      2.10220E-04
  975.00      2.09190E-04
  977.00      2.07500E-04
  979.00      2.07810E-04
  981.00      2.07020E-04
  983.00      2.06240E-04
  985.00      2.05450E-04
  987.00      2.04680E-04
  989.00      2.03900E-04
  991.00      2.03130E-04
  993.00      2.02360E-04
  995.00      2.01600E-04
  997.00      2.00850E-04
  999.00      2.00090E-04
  1002.5      1.95820E-04
  1007.5      1.92720E-04
  1012.5      1.92470E-04
  1017.5      1.93320E-04
  1022.5      1.91550E-04
  1027.5      1.89810E-04
  1032.5      1.87950E-04
  1037.5      1.86390E-04
  1042.5      1.83960E-04
  1047.5      1.83060E-04
  1052.5      1.81430E-04
  1057.5      1.79820E-04
  1062.5      1.78230E-04
  1067.5      1.76640E-04
  1072.5      1.75120E-04
  1077.5      1.73590E-04
  1082.5      1.71640E-04
  1087.5      1.70520E-04
  1092.5      1.63930E-04
  1097.5      1.66450E-04
  1102.5      1.66160E-04
  1107.5      1.64830E-04
  1112.5      1.63440E-04
  1117.5      1.62140E-04
  1122.5      1.60770E-04
  1127.5      1.59430E-04
  1132.5      1.58100E-04
  1137.5      1.56790E-04
  1142.5      1.55500E-04
  1147.5      1.54220E-04
  1152.5      1.52960E-04
  1157.5      1.51710E-04
  1162.5      1.49230E-04
  1167.5      1.48390E-04
  1172.5      1.48050E-04
  1177.5      1.46870E-04
  1182.5      1.45690E-04
  1187.5      1.44530E-04
  1192.5      1.43380E-04
  1197.5      1.42030E-04
  1202.5      1.41130E-04
  1207.5      1.40030E-04
  1212.5      1.38930E-04
  1217.5      1.37850E-04
  1222.5      1.36780E-04
  1227.5      1.35730E-04
  1232.5      1.34680E-04
  1237.5      1.33650E-04
  1242.5      1.32630E-04
  1247.5      1.31620E-04
  1252.5      1.30590E-04
  1257.5      1.29640E-04
  1262.5      1.28660E-04
  1267.5      1.27700E-04
  1272.5      1.26750E-04
  1277.5      1.25210E-04
  1282.5      1.20750E-04
  1287.5      1.23750E-04
  1292.5      1.23040E-04
  1297.5      1.22050E-04
  1302.5      1.21250E-04
  1307.5      1.20360E-04
  1312.5      1.19490E-04
  1317.5      1.18630E-04
  1322.5      1.17770E-04
  1327.5      1.16930E-04
  1332.5      1.16090E-04
  1337.5      1.15270E-04
  1342.5      1.14440E-04
  1347.5      1.13640E-04
  1352.5      1.12840E-04
  1357.5      1.12040E-04
  1362.5      1.11260E-04
  1367.5      1.10480E-04
  1372.5      1.09720E-04
  1377.5      1.08960E-04
  1382.5      1.08200E-04
  1387.5      1.07460E-04
  1392.5      1.06720E-04
  1397.5      1.05990E-04
