 Castelli and Kurucz 2004-2012 Atmosphere
 T     38000.     G    4.00000 [-2.5a] N(He)/Ntot=0.0784 VTURB=2  L/H=1.25 NOVE
 Wavelength  Eddington Hnu
   (nm)    (ergs/s/cm2/Hz/sr)
  9.0900      7.82440E-25
  9.3500      3.20740E-24
  9.6100      1.23970E-23
  9.7700      2.76440E-23
  9.9600      6.88240E-23
  10.200      2.09790E-22
  10.380      4.71150E-22
  10.560      1.03140E-21
  10.770      2.49520E-21
  11.040      7.39020E-21
  11.400      2.94470E-20
  11.780      1.16470E-19
  12.130      3.84390E-19
  12.480      1.19370E-18
  12.710      2.44110E-18
  12.840      3.61670E-18
  13.050      6.72110E-18
  13.240      1.15870E-17
  13.390      1.75710E-17
  13.660      3.66170E-17
  13.980      8.46460E-17
  14.330      2.02240E-16
  14.720      5.11250E-16
  15.100      1.20310E-15
  15.520      2.96710E-15
  15.880      6.19160E-15
  16.200      1.16250E-14
  16.600      2.45920E-14
  17.030      5.30550E-14
  17.340      9.02100E-14
  17.680      1.58050E-13
  18.020      2.71480E-13
  18.170      3.42430E-13
  18.610      6.60600E-13
  19.100      1.32620E-12
  19.390      1.97020E-12
  19.840      3.55770E-12
  20.180      5.46210E-12
  20.500      8.07120E-12
  21.050      1.53360E-11
  21.620      2.87730E-11
  21.980      4.21230E-11
  22.300      5.84640E-11
  22.680      8.51580E-11
  23.000      5.31920E-09
  23.400      2.19090E-08
  24.000      5.95740E-08
  24.650      6.14400E-07
  25.240      2.12040E-06
  25.680      1.13790E-06
  26.000      7.12030E-06
  26.400      1.36670E-05
  26.850      2.09290E-05
  27.350      2.87300E-05
  27.850      3.18390E-05
  28.400      4.19400E-05
  29.000      4.68780E-05
  29.600      3.03060E-05
  30.100      3.16630E-06
  30.800      1.64530E-05
  31.800      5.49310E-05
  32.800      7.22120E-05
  33.800      7.87370E-05
  34.800      8.87500E-05
  35.700      1.07750E-04
  36.600      1.23870E-04
  37.500      1.32490E-04
  38.500      1.32700E-04
  39.500      1.53850E-04
  40.500      1.68650E-04
  41.400      1.78500E-04
  42.200      1.80920E-04
  43.000      1.86360E-04
  44.100      2.04420E-04
  45.100      2.14840E-04
  46.000      2.19030E-04
  47.000      2.29820E-04
  48.000      2.44410E-04
  49.000      2.46860E-04
  50.000      2.69530E-04
  50.600      3.75790E-04
  51.200      5.50630E-04
  52.000      5.59650E-04
  53.000      5.77830E-04
  54.000      5.67330E-04
  55.000      5.79480E-04
  56.000      6.44920E-04
  57.000      6.74050E-04
  58.000      6.78330E-04
  59.000      7.13250E-04
  60.000      7.13450E-04
  61.000      7.17020E-04
  62.000      7.69370E-04
  63.000      7.83110E-04
  64.000      8.12980E-04
  65.000      8.20890E-04
  65.800      8.14360E-04
  66.500      8.50240E-04
  67.500      8.82010E-04
  68.500      8.73820E-04
  69.500      9.17550E-04
  70.500      8.99290E-04
  71.600      9.57550E-04
  72.600      9.79260E-04
  73.500      9.96270E-04
  74.500      1.00340E-03
  75.500      1.01760E-03
  76.500      1.02580E-03
  77.500      1.05440E-03
  78.500      1.06200E-03
  79.500      1.08300E-03
  80.500      1.10080E-03
  81.500      1.12030E-03
  82.500      1.14280E-03
  83.500      1.11430E-03
  84.500      1.16740E-03
  85.500      1.17620E-03
  86.500      1.20240E-03
  87.500      1.21840E-03
  88.500      1.23100E-03
  89.500      1.24280E-03
  90.500      1.24450E-03
  91.500      1.11250E-03
  92.500      2.07910E-03
  93.500      2.62010E-03
  94.500      3.04800E-03
  95.500      3.23960E-03
  96.500      3.49180E-03
  97.500      3.01270E-03
  98.500      3.44820E-03
  99.500      3.33330E-03
  100.50      3.46200E-03
  101.50      3.46620E-03
  102.50      3.04760E-03
  103.50      3.44780E-03
  104.50      3.45420E-03
  105.50      3.44540E-03
  106.50      3.39670E-03
  107.50      3.39100E-03
  108.50      3.30710E-03
  109.50      3.40200E-03
  110.50      3.38300E-03
  111.50      3.36010E-03
  112.50      3.31430E-03
  113.50      3.35120E-03
  114.50      3.33860E-03
  115.50      3.30490E-03
  116.50      3.30150E-03
  117.50      3.15180E-03
  118.50      3.27550E-03
  119.50      3.25740E-03
  120.50      3.24740E-03
  121.50      2.84470E-03
  122.50      3.21990E-03
  123.50      3.19600E-03
  124.50      3.17210E-03
  125.50      3.18540E-03
  126.50      3.17120E-03
  127.50      3.15690E-03
  128.50      3.14240E-03
  129.50      3.12570E-03
  130.50      3.11020E-03
  131.50      3.09630E-03
  132.50      3.07880E-03
  133.50      3.06560E-03
  134.50      3.05160E-03
  135.50      3.03340E-03
  136.50      3.01420E-03
  137.50      2.98930E-03
  138.50      2.98440E-03
  139.50      2.94150E-03
  140.50      2.91840E-03
  141.50      2.93960E-03
  142.50      2.92090E-03
  143.50      2.90960E-03
  144.20      2.89340E-03
  144.70      2.88720E-03
  145.50      2.87350E-03
  146.50      2.85940E-03
  147.50      2.84660E-03
  148.50      2.83550E-03
  149.50      2.81810E-03
  150.50      2.80480E-03
  151.20      2.79550E-03
  151.70      2.78560E-03
  152.50      2.77350E-03
  153.50      2.75150E-03
  154.50      2.68310E-03
  155.50      2.67820E-03
  156.50      2.70420E-03
  157.50      2.69520E-03
  158.50      2.67970E-03
  159.50      2.66590E-03
  160.50      2.64380E-03
  161.50      2.63010E-03
  162.50      2.60790E-03
  163.50      2.55930E-03
  164.50      2.45630E-03
  165.50      2.57680E-03
  166.50      2.56250E-03
  167.20      2.54730E-03
  167.70      2.54970E-03
  168.50      2.53760E-03
  169.50      2.52400E-03
  170.50      2.50880E-03
  171.50      2.47520E-03
  172.50      2.47400E-03
  173.50      2.46940E-03
  174.50      2.45460E-03
  175.50      2.43950E-03
  176.50      2.42760E-03
  177.50      2.41470E-03
  178.50      2.40130E-03
  179.50      2.38710E-03
  180.50      2.37420E-03
  181.50      2.36090E-03
  182.50      2.34740E-03
  183.50      2.33490E-03
  184.50      2.32160E-03
  185.50      2.30820E-03
  186.50      2.29510E-03
  187.50      2.28220E-03
  188.50      2.26970E-03
  189.50      2.25760E-03
  190.50      2.24510E-03
  191.50      2.23240E-03
  192.50      2.21850E-03
  193.50      2.20770E-03
  194.50      2.19540E-03
  195.50      2.18300E-03
  196.70      2.16860E-03
  197.60      2.15770E-03
  198.40      2.14820E-03
  199.50      2.13510E-03
  200.50      2.12330E-03
  201.50      2.11160E-03
  202.50      2.09990E-03
  203.50      2.08830E-03
  204.50      2.07650E-03
  205.50      1.66270E-03
  206.50      1.63220E-03
  207.40      1.68730E-03
  207.80      1.73900E-03
  208.50      1.88080E-03
  209.50      2.01220E-03
  210.50      2.01130E-03
  211.50      2.00790E-03
  212.50      1.99780E-03
  213.50      1.98500E-03
  214.50      1.97730E-03
  215.50      1.99340E-03
  216.50      1.94840E-03
  217.50      1.97790E-03
  218.50      1.92860E-03
  219.50      1.95570E-03
  220.50      1.94580E-03
  221.50      1.89730E-03
  222.50      1.92470E-03
  223.50      1.91430E-03
  224.50      1.90370E-03
  225.50      1.85760E-03
  226.50      1.88330E-03
  227.50      1.87320E-03
  228.50      1.86270E-03
  229.50      1.84280E-03
  230.50      1.80880E-03
  231.50      1.83290E-03
  232.50      1.82330E-03
  233.50      1.81350E-03
  234.50      1.80380E-03
  235.50      1.79420E-03
  236.50      1.78460E-03
  237.50      1.77510E-03
  238.50      1.73250E-03
  239.50      1.75530E-03
  240.50      1.74700E-03
  241.50      1.73760E-03
  242.50      1.72860E-03
  243.50      1.71950E-03
  244.50      1.71050E-03
  245.50      1.70120E-03
  246.50      1.69260E-03
  247.50      1.68380E-03
  248.50      1.67500E-03
  249.50      1.63490E-03
  250.50      1.65530E-03
  251.30      1.57800E-03
  251.80      1.64440E-03
  252.50      1.64010E-03
  253.50      1.63200E-03
  254.50      1.62350E-03
  255.50      1.61520E-03
  256.50      1.60690E-03
  257.50      1.59860E-03
  258.50      1.59050E-03
  259.50      1.58190E-03
  260.50      1.57470E-03
  261.50      1.56660E-03
  262.50      1.55870E-03
  263.50      1.55080E-03
  264.50      1.54290E-03
  265.50      1.53500E-03
  266.50      1.52710E-03
  267.50      1.51900E-03
  268.50      1.51210E-03
  269.50      1.50380E-03
  270.50      1.49700E-03
  271.50      1.48950E-03
  272.50      1.48110E-03
  273.50      1.44640E-03
  274.50      1.46740E-03
  275.50      1.46010E-03
  276.50      1.45170E-03
  277.50      1.44570E-03
  278.50      1.43860E-03
  279.50      1.43140E-03
  280.50      1.42450E-03
  281.50      1.41750E-03
  282.50      1.40910E-03
  283.50      1.40330E-03
  284.50      1.39690E-03
  285.50      1.39010E-03
  286.50      1.38330E-03
  287.50      1.37660E-03
  288.50      1.37000E-03
  289.50      1.36330E-03
  291.00      1.35350E-03
  293.00      1.34050E-03
  295.00      1.32650E-03
  297.00      1.31510E-03
  299.00      1.30240E-03
  301.00      1.29030E-03
  303.00      1.27790E-03
  305.00      1.26590E-03
  307.00      1.25440E-03
  309.00      1.24280E-03
  311.00      1.23120E-03
  313.00      1.21990E-03
  315.00      1.20890E-03
  317.00      1.19780E-03
  319.00      1.18480E-03
  321.00      1.16330E-03
  323.00      1.16550E-03
  325.00      1.15500E-03
  327.00      1.14420E-03
  329.00      1.13430E-03
  331.00      1.12440E-03
  333.00      1.11450E-03
  335.00      1.10420E-03
  337.00      1.09490E-03
  339.00      1.08540E-03
  341.00      1.07590E-03
  343.00      1.06710E-03
  345.00      1.05730E-03
  347.00      1.04870E-03
  349.00      1.03920E-03
  351.00      1.03040E-03
  353.00      1.02140E-03
  355.00      1.01260E-03
  357.00      1.00480E-03
  359.00      9.95200E-04
  361.00      9.87350E-04
  363.00      9.78350E-04
  364.00      9.60790E-04
  365.00      8.97530E-04
  367.00      8.91330E-04
  369.00      8.88020E-04
  371.00      8.89540E-04
  373.00      8.93180E-04
  375.00      9.08910E-04
  377.00      9.14720E-04
  379.00      9.20600E-04
  381.00      9.29680E-04
  383.00      8.94550E-04
  385.00      9.24880E-04
  387.00      9.24120E-04
  389.00      8.71660E-04
  391.00      9.12430E-04
  393.00      8.99250E-04
  395.00      8.98800E-04
  397.00      8.42940E-04
  399.00      8.84120E-04
  401.00      8.78020E-04
  403.00      8.59280E-04
  405.00      8.65140E-04
  407.00      8.58310E-04
  409.00      8.42480E-04
  411.00      8.05120E-04
  413.00      8.37460E-04
  415.00      8.30880E-04
  417.00      8.25540E-04
  419.00      8.17890E-04
  421.00      8.05890E-04
  423.00      8.06890E-04
  425.00      8.00770E-04
  427.00      7.94710E-04
  429.00      7.88730E-04
  431.00      7.82790E-04
  433.00      7.64120E-04
  435.00      7.39580E-04
  437.00      7.65360E-04
  439.00      7.57610E-04
  441.00      7.54150E-04
  443.00      7.48440E-04
  445.00      7.43130E-04
  447.00      7.32550E-04
  449.00      7.32330E-04
  451.00      7.27020E-04
  453.00      7.21440E-04
  455.00      7.09240E-04
  457.00      7.11420E-04
  459.00      7.06330E-04
  461.00      7.01290E-04
  463.00      6.96260E-04
  465.00      6.91120E-04
  467.00      6.86180E-04
  469.00      6.64690E-04
  471.00      6.75460E-04
  473.00      6.72140E-04
  475.00      6.67460E-04
  477.00      6.62820E-04
  479.00      6.58230E-04
  481.00      6.53690E-04
  483.00      6.49180E-04
  485.00      6.37310E-04
  487.00      6.10480E-04
  489.00      6.35840E-04
  491.00      6.31650E-04
  493.00      6.24880E-04
  495.00      6.23150E-04
  497.00      6.18960E-04
  499.00      6.14810E-04
  501.00      6.09250E-04
  503.00      6.06630E-04
  505.00      6.02240E-04
  507.00      5.98610E-04
  509.00      5.94660E-04
  511.00      5.90740E-04
  513.00      5.86870E-04
  515.00      5.83030E-04
  517.00      5.79220E-04
  519.00      5.75460E-04
  521.00      5.71730E-04
  523.00      5.68030E-04
  525.00      5.64370E-04
  527.00      5.60740E-04
  529.00      5.57150E-04
  531.00      5.53600E-04
  533.00      5.50070E-04
  535.00      5.46580E-04
  537.00      5.43120E-04
  539.00      5.39700E-04
  541.00      5.30230E-04
  543.00      5.32930E-04
  545.00      5.29610E-04
  547.00      5.26310E-04
  549.00      5.23040E-04
  551.00      5.19790E-04
  553.00      5.16590E-04
  555.00      5.13400E-04
  557.00      5.10250E-04
  559.00      5.07090E-04
  561.00      5.04030E-04
  563.00      5.00960E-04
  565.00      4.97920E-04
  567.00      4.94910E-04
  569.00      4.87710E-04
  571.00      4.66060E-04
  573.00      4.63430E-04
  575.00      4.60840E-04
  577.00      4.58370E-04
  579.00      4.56200E-04
  581.00      4.54580E-04
  583.00      4.53290E-04
  585.00      4.52340E-04
  587.00      4.48420E-04
  589.00      4.50910E-04
  591.00      4.50540E-04
  593.00      4.50450E-04
  595.00      4.50690E-04
  597.00      4.50430E-04
  599.00      4.49840E-04
  601.00      4.47950E-04
  603.00      4.45350E-04
  605.00      4.43120E-04
  607.00      4.40090E-04
  609.00      4.38150E-04
  611.00      4.35180E-04
  613.00      4.32790E-04
  615.00      4.30740E-04
  617.00      4.27180E-04
  619.00      4.25890E-04
  621.00      4.23510E-04
  623.00      4.19820E-04
  625.00      4.18630E-04
  627.00      4.16450E-04
  629.00      4.14140E-04
  631.00      4.10080E-04
  633.00      4.09560E-04
  635.00      4.07320E-04
  637.00      4.05080E-04
  639.00      4.02850E-04
  641.00      3.98520E-04
  643.00      3.98470E-04
  645.00      3.96300E-04
  647.00      3.94150E-04
  649.00      3.92020E-04
  651.00      3.89900E-04
  653.00      3.85040E-04
  655.00      3.83100E-04
  657.00      3.64280E-04
  659.00      3.81380E-04
  661.00      3.79580E-04
  663.00      3.77560E-04
  665.00      3.75580E-04
  667.00      3.72500E-04
  669.00      3.67800E-04
  671.00      3.69670E-04
  673.00      3.67740E-04
  675.00      3.65810E-04
  677.00      3.63900E-04
  679.00      3.62010E-04
  681.00      3.60130E-04
  683.00      3.58260E-04
  685.00      3.56410E-04
  687.00      3.54570E-04
  689.00      3.49850E-04
  691.00      3.50930E-04
  693.00      3.49140E-04
  695.00      3.47360E-04
  697.00      3.45600E-04
  699.00      3.43840E-04
  701.00      3.42100E-04
  703.00      3.40370E-04
  705.00      3.38650E-04
  707.00      3.35470E-04
  709.00      3.35260E-04
  711.00      3.33580E-04
  713.00      3.31920E-04
  715.00      3.30270E-04
  717.00      3.26640E-04
  719.00      3.26110E-04
  721.00      3.25380E-04
  723.00      3.23780E-04
  725.00      3.22180E-04
  727.00      3.20600E-04
  729.00      3.18440E-04
  731.00      3.17470E-04
  733.00      3.15930E-04
  735.00      3.14390E-04
  737.00      3.12870E-04
  739.00      3.11360E-04
  741.00      3.09850E-04
  743.00      3.08360E-04
  745.00      3.06880E-04
  747.00      3.05410E-04
  749.00      3.03950E-04
  751.00      3.02500E-04
  753.00      3.01070E-04
  755.00      2.99640E-04
  757.00      2.98220E-04
  759.00      2.94130E-04
  761.00      2.95380E-04
  763.00      2.94020E-04
  765.00      2.92640E-04
  767.00      2.91270E-04
  769.00      2.89910E-04
  771.00      2.88560E-04
  773.00      2.87210E-04
  775.00      2.85880E-04
  777.00      2.84560E-04
  779.00      2.83240E-04
  781.00      2.81930E-04
  783.00      2.80640E-04
  785.00      2.79390E-04
  787.00      2.78110E-04
  789.00      2.76840E-04
  791.00      2.75580E-04
  793.00      2.74320E-04
  795.00      2.73080E-04
  797.00      2.71840E-04
  799.00      2.70620E-04
  801.00      2.69400E-04
  803.00      2.68190E-04
  805.00      2.66980E-04
  807.00      2.65790E-04
  809.00      2.64600E-04
  811.00      2.63420E-04
  813.00      2.62250E-04
  815.00      2.61080E-04
  817.00      2.59930E-04
  819.00      2.58000E-04
  821.00      2.50370E-04
  823.00      2.48230E-04
  825.00      2.48150E-04
  827.00      2.47180E-04
  829.00      2.46230E-04
  831.00      2.45200E-04
  833.00      2.44170E-04
  835.00      2.43080E-04
  837.00      2.42190E-04
  839.00      2.41280E-04
  841.00      2.40440E-04
  843.00      2.39600E-04
  845.00      2.38650E-04
  847.00      2.37960E-04
  849.00      2.37220E-04
  851.00      2.36350E-04
  853.00      2.35790E-04
  855.00      2.34530E-04
  857.00      2.34690E-04
  859.00      2.32920E-04
  861.00      2.32320E-04
  863.00      2.32980E-04
  865.00      2.31660E-04
  867.00      2.28430E-04
  869.00      2.31170E-04
  871.00      2.31060E-04
  873.00      2.29720E-04
  875.00      2.23670E-04
  877.00      2.27670E-04
  879.00      2.28670E-04
  881.00      2.27980E-04
  883.00      2.27090E-04
  885.00      2.23240E-04
  887.00      2.17310E-04
  889.00      2.23810E-04
  891.00      2.23890E-04
  893.00      2.22790E-04
  895.00      2.22180E-04
  897.00      2.21270E-04
  899.00      2.19210E-04
  901.00      2.10970E-04
  903.00      2.14180E-04
  905.00      2.17240E-04
  907.00      2.16420E-04
  909.00      2.15830E-04
  911.00      2.14720E-04
  913.00      2.14200E-04
  915.00      2.13350E-04
  917.00      2.12420E-04
  919.00      2.11510E-04
  921.00      2.08770E-04
  923.00      1.99570E-04
  925.00      2.07040E-04
  927.00      2.08110E-04
  929.00      2.07470E-04
  931.00      2.06530E-04
  933.00      2.05830E-04
  935.00      2.02350E-04
  937.00      2.03550E-04
  939.00      2.03420E-04
  941.00      2.02620E-04
  943.00      2.01830E-04
  945.00      2.01040E-04
  947.00      2.00100E-04
  949.00      1.99480E-04
  951.00      1.98150E-04
  953.00      1.95460E-04
  955.00      1.87010E-04
  957.00      1.95030E-04
  959.00      1.95580E-04
  961.00      1.94860E-04
  963.00      1.94030E-04
  965.00      1.93420E-04
  967.00      1.92680E-04
  969.00      1.91930E-04
  971.00      1.91140E-04
  973.00      1.90490E-04
  975.00      1.89680E-04
  977.00      1.88190E-04
  979.00      1.88330E-04
  981.00      1.87630E-04
  983.00      1.86920E-04
  985.00      1.86220E-04
  987.00      1.85520E-04
  989.00      1.84830E-04
  991.00      1.84140E-04
  993.00      1.83450E-04
  995.00      1.82770E-04
  997.00      1.82090E-04
  999.00      1.81410E-04
  1002.5      1.78090E-04
  1007.5      1.75350E-04
  1012.5      1.75040E-04
  1017.5      1.75340E-04
  1022.5      1.73740E-04
  1027.5      1.72190E-04
  1032.5      1.70480E-04
  1037.5      1.69110E-04
  1042.5      1.67100E-04
  1047.5      1.66120E-04
  1052.5      1.64660E-04
  1057.5      1.63210E-04
  1062.5      1.61780E-04
  1067.5      1.60340E-04
  1072.5      1.58980E-04
  1077.5      1.57610E-04
  1082.5      1.55760E-04
  1087.5      1.54910E-04
  1092.5      1.49410E-04
  1097.5      1.51570E-04
  1102.5      1.50900E-04
  1107.5      1.49730E-04
  1112.5      1.48480E-04
  1117.5      1.47290E-04
  1122.5      1.46050E-04
  1127.5      1.44850E-04
  1132.5      1.43660E-04
  1137.5      1.42480E-04
  1142.5      1.41310E-04
  1147.5      1.40160E-04
  1152.5      1.39020E-04
  1157.5      1.37900E-04
  1162.5      1.35970E-04
  1167.5      1.35160E-04
  1172.5      1.34610E-04
  1177.5      1.33540E-04
  1182.5      1.32480E-04
  1187.5      1.31430E-04
  1192.5      1.30400E-04
  1197.5      1.29130E-04
  1202.5      1.28370E-04
  1207.5      1.27370E-04
  1212.5      1.26380E-04
  1217.5      1.25410E-04
  1222.5      1.24440E-04
  1227.5      1.23490E-04
  1232.5      1.22550E-04
  1237.5      1.21620E-04
  1242.5      1.20700E-04
  1247.5      1.19780E-04
  1252.5      1.18840E-04
  1257.5      1.17990E-04
  1262.5      1.17110E-04
  1267.5      1.16240E-04
  1272.5      1.15380E-04
  1277.5      1.14040E-04
  1282.5      1.10440E-04
  1287.5      1.12770E-04
  1292.5      1.12030E-04
  1297.5      1.11100E-04
  1302.5      1.10410E-04
  1307.5      1.09610E-04
  1312.5      1.08830E-04
  1317.5      1.08050E-04
  1322.5      1.07270E-04
  1327.5      1.06510E-04
  1332.5      1.05750E-04
  1337.5      1.05010E-04
  1342.5      1.04250E-04
  1347.5      1.03540E-04
  1352.5      1.02810E-04
  1357.5      1.02090E-04
  1362.5      1.01380E-04
  1367.5      1.00680E-04
  1372.5      9.99880E-05
  1377.5      9.93000E-05
  1382.5      9.86200E-05
  1387.5      9.79460E-05
  1392.5      9.72790E-05
  1397.5      9.66190E-05
