 Castelli and Kurucz 2004-2012 Atmosphere
 T     36000.     G    5.00000 [-2.5a] N(He)/Ntot=0.0784 VTURB=2  L/H=1.25 NOVE
 Wavelength  Eddington Hnu
   (nm)    (ergs/s/cm2/Hz/sr)
  9.0900      4.46080E-27
  9.3500      2.13890E-26
  9.6100      9.45570E-26
  9.7700      2.27370E-25
  9.9600      6.22460E-25
  10.200      2.11110E-24
  10.380      5.09770E-24
  10.560      1.19640E-23
  10.770      3.12920E-23
  11.040      1.02410E-22
  11.400      4.58310E-22
  11.780      2.03400E-21
  12.130      7.42520E-21
  12.480      2.53300E-20
  12.710      5.48040E-20
  12.840      8.37980E-20
  13.050      1.63650E-19
  13.240      2.94820E-19
  13.390      4.64040E-19
  13.660      1.02580E-18
  13.980      2.53020E-18
  14.330      6.50320E-18
  14.720      1.76990E-17
  15.100      4.47860E-17
  15.520      1.18790E-16
  15.880      2.63510E-16
  16.200      5.20000E-16
  16.600      1.17360E-15
  17.030      2.70100E-15
  17.340      4.80420E-15
  17.680      8.83080E-15
  18.020      1.58690E-14
  18.170      2.04120E-14
  18.610      4.17470E-14
  19.100      8.91070E-14
  19.390      1.37090E-13
  19.840      2.60910E-13
  20.180      4.16190E-13
  20.500      6.36730E-13
  21.050      1.28330E-12
  21.620      2.55360E-12
  21.980      3.86990E-12
  22.300      5.53620E-12
  22.680      8.35850E-12
  23.000      2.56060E-10
  23.400      1.62520E-09
  24.000      7.06930E-09
  24.650      3.05810E-08
  25.240      7.01480E-08
  25.680      4.60210E-08
  26.000      1.79270E-07
  26.400      3.08420E-07
  26.850      5.15650E-07
  27.350      7.33540E-07
  27.850      8.56760E-07
  28.400      1.17660E-06
  29.000      1.32100E-06
  29.600      9.91910E-07
  30.100      2.96320E-07
  30.800      6.71100E-07
  31.800      1.73970E-06
  32.800      2.08500E-06
  33.800      2.34100E-06
  34.800      2.77690E-06
  35.700      3.07200E-06
  36.600      3.60730E-06
  37.500      4.03970E-06
  38.500      4.79900E-06
  39.500      5.66730E-06
  40.500      6.65390E-06
  41.400      7.74860E-06
  42.200      8.69270E-06
  43.000      9.78160E-06
  44.100      1.16500E-05
  45.100      1.35010E-05
  46.000      1.52340E-05
  47.000      1.77070E-05
  48.000      2.02410E-05
  49.000      2.27420E-05
  50.000      2.61840E-05
  50.600      7.89020E-05
  51.200      2.19990E-04
  52.000      2.22390E-04
  53.000      2.37730E-04
  54.000      2.26480E-04
  55.000      2.46110E-04
  56.000      2.62880E-04
  57.000      2.72050E-04
  58.000      2.67770E-04
  59.000      2.85980E-04
  60.000      2.88260E-04
  61.000      2.94360E-04
  62.000      3.11010E-04
  63.000      3.19400E-04
  64.000      3.26160E-04
  65.000      3.33600E-04
  65.800      3.34760E-04
  66.500      3.44540E-04
  67.500      3.57400E-04
  68.500      3.55960E-04
  69.500      3.76080E-04
  70.500      3.73550E-04
  71.600      3.94760E-04
  72.600      4.03980E-04
  73.500      4.15360E-04
  74.500      4.20920E-04
  75.500      4.29440E-04
  76.500      4.37780E-04
  77.500      4.49600E-04
  78.500      4.60460E-04
  79.500      4.69540E-04
  80.500      4.78110E-04
  81.500      4.88670E-04
  82.500      5.01810E-04
  83.500      4.93250E-04
  84.500      5.20300E-04
  85.500      5.29450E-04
  86.500      5.40690E-04
  87.500      5.50170E-04
  88.500      5.59700E-04
  89.500      5.69260E-04
  90.500      5.76540E-04
  91.500      5.63150E-04
  92.500      1.19730E-03
  93.500      1.78160E-03
  94.500      2.72010E-03
  95.500      3.09910E-03
  96.500      3.86970E-03
  97.500      2.64030E-03
  98.500      4.00090E-03
  99.500      3.71460E-03
  100.50      4.03010E-03
  101.50      3.95980E-03
  102.50      2.58450E-03
  103.50      3.85750E-03
  104.50      3.96860E-03
  105.50      3.95420E-03
  106.50      3.86310E-03
  107.50      3.84150E-03
  108.50      3.59850E-03
  109.50      3.84140E-03
  110.50      3.79230E-03
  111.50      3.75750E-03
  112.50      3.67360E-03
  113.50      3.73080E-03
  114.50      3.69840E-03
  115.50      3.65210E-03
  116.50      3.64060E-03
  117.50      3.36780E-03
  118.50      3.57340E-03
  119.50      3.54120E-03
  120.50      3.42770E-03
  121.50      2.35970E-03
  122.50      3.38710E-03
  123.50      3.44270E-03
  124.50      3.40190E-03
  125.50      3.41540E-03
  126.50      3.39210E-03
  127.50      3.36810E-03
  128.50      3.34400E-03
  129.50      3.28650E-03
  130.50      3.28130E-03
  131.50      3.27020E-03
  132.50      3.24360E-03
  133.50      3.21090E-03
  134.50      3.19750E-03
  135.50      3.17400E-03
  136.50      3.14880E-03
  137.50      3.12310E-03
  138.50      3.10260E-03
  139.50      3.02680E-03
  140.50      3.00730E-03
  141.50      3.03330E-03
  142.50      3.00540E-03
  143.50      2.98950E-03
  144.20      2.97470E-03
  144.70      2.96360E-03
  145.50      2.94470E-03
  146.50      2.92430E-03
  147.50      2.90240E-03
  148.50      2.88400E-03
  149.50      2.86160E-03
  150.50      2.84100E-03
  151.20      2.82850E-03
  151.70      2.81690E-03
  152.50      2.79850E-03
  153.50      2.76650E-03
  154.50      2.69790E-03
  155.50      2.68870E-03
  156.50      2.70520E-03
  157.50      2.69340E-03
  158.50      2.67760E-03
  159.50      2.65840E-03
  160.50      2.62780E-03
  161.50      2.60740E-03
  162.50      2.58370E-03
  163.50      2.52120E-03
  164.50      2.40730E-03
  165.50      2.54440E-03
  166.50      2.52670E-03
  167.20      2.51050E-03
  167.70      2.51260E-03
  168.50      2.49720E-03
  169.50      2.48010E-03
  170.50      2.46150E-03
  171.50      2.43030E-03
  172.50      2.41540E-03
  173.50      2.41450E-03
  174.50      2.39640E-03
  175.50      2.37790E-03
  176.50      2.36450E-03
  177.50      2.34920E-03
  178.50      2.33340E-03
  179.50      2.31690E-03
  180.50      2.30210E-03
  181.50      2.28630E-03
  182.50      2.27060E-03
  183.50      2.25630E-03
  184.50      2.24010E-03
  185.50      2.22370E-03
  186.50      2.20900E-03
  187.50      2.19500E-03
  188.50      2.18020E-03
  189.50      2.16590E-03
  190.50      2.15300E-03
  191.50      2.13770E-03
  192.50      2.12010E-03
  193.50      2.11040E-03
  194.50      2.09720E-03
  195.50      2.08210E-03
  196.70      2.06720E-03
  197.60      2.05550E-03
  198.40      2.04440E-03
  199.50      2.02940E-03
  200.50      2.01740E-03
  201.50      2.00460E-03
  202.50      1.99170E-03
  203.50      1.97900E-03
  204.50      1.96640E-03
  205.50      1.63910E-03
  206.50      1.59680E-03
  207.40      1.60170E-03
  207.80      1.61910E-03
  208.50      1.66760E-03
  209.50      1.78610E-03
  210.50      1.87860E-03
  211.50      1.88480E-03
  212.50      1.87370E-03
  213.50      1.86010E-03
  214.50      1.84980E-03
  215.50      1.85000E-03
  216.50      1.81570E-03
  217.50      1.83580E-03
  218.50      1.79000E-03
  219.50      1.81370E-03
  220.50      1.80540E-03
  221.50      1.75170E-03
  222.50      1.78280E-03
  223.50      1.77290E-03
  224.50      1.76000E-03
  225.50      1.70750E-03
  226.50      1.74020E-03
  227.50      1.72960E-03
  228.50      1.71830E-03
  229.50      1.69290E-03
  230.50      1.65610E-03
  231.50      1.68620E-03
  232.50      1.67750E-03
  233.50      1.66740E-03
  234.50      1.65730E-03
  235.50      1.64740E-03
  236.50      1.63750E-03
  237.50      1.62760E-03
  238.50      1.57890E-03
  239.50      1.60690E-03
  240.50      1.59880E-03
  241.50      1.58940E-03
  242.50      1.58000E-03
  243.50      1.57060E-03
  244.50      1.56150E-03
  245.50      1.55220E-03
  246.50      1.54330E-03
  247.50      1.53430E-03
  248.50      1.52540E-03
  249.50      1.48450E-03
  250.50      1.50330E-03
  251.30      1.42830E-03
  251.80      1.49220E-03
  252.50      1.49050E-03
  253.50      1.48210E-03
  254.50      1.47350E-03
  255.50      1.46510E-03
  256.50      1.45690E-03
  257.50      1.44870E-03
  258.50      1.44060E-03
  259.50      1.43240E-03
  260.50      1.42760E-03
  261.50      1.41960E-03
  262.50      1.41170E-03
  263.50      1.40380E-03
  264.50      1.39570E-03
  265.50      1.38740E-03
  266.50      1.37860E-03
  267.50      1.36980E-03
  268.50      1.36540E-03
  269.50      1.35360E-03
  270.50      1.35050E-03
  271.50      1.34310E-03
  272.50      1.33010E-03
  273.50      1.30150E-03
  274.50      1.32130E-03
  275.50      1.31420E-03
  276.50      1.30070E-03
  277.50      1.30010E-03
  278.50      1.29310E-03
  279.50      1.28560E-03
  280.50      1.27920E-03
  281.50      1.27250E-03
  282.50      1.25860E-03
  283.50      1.25520E-03
  284.50      1.25240E-03
  285.50      1.24580E-03
  286.50      1.23930E-03
  287.50      1.23280E-03
  288.50      1.22630E-03
  289.50      1.21990E-03
  291.00      1.21040E-03
  293.00      1.19790E-03
  295.00      1.17990E-03
  297.00      1.17350E-03
  299.00      1.16140E-03
  301.00      1.14970E-03
  303.00      1.13810E-03
  305.00      1.12670E-03
  307.00      1.11560E-03
  309.00      1.10430E-03
  311.00      1.09360E-03
  313.00      1.08330E-03
  315.00      1.07260E-03
  317.00      1.06220E-03
  319.00      1.04530E-03
  321.00      1.03180E-03
  323.00      1.03150E-03
  325.00      1.02150E-03
  327.00      1.01220E-03
  329.00      1.00200E-03
  331.00      9.93340E-04
  333.00      9.83990E-04
  335.00      9.73740E-04
  337.00      9.65770E-04
  339.00      9.56880E-04
  341.00      9.48080E-04
  343.00      9.37470E-04
  345.00      9.26880E-04
  347.00      9.20140E-04
  349.00      9.11870E-04
  351.00      9.04060E-04
  353.00      8.96870E-04
  355.00      8.88360E-04
  357.00      8.84080E-04
  359.00      8.71470E-04
  361.00      8.66420E-04
  363.00      8.56080E-04
  364.00      8.52480E-04
  365.00      8.23490E-04
  367.00      8.18300E-04
  369.00      8.12190E-04
  371.00      8.00840E-04
  373.00      7.94410E-04
  375.00      7.91440E-04
  377.00      7.80160E-04
  379.00      7.95590E-04
  381.00      8.18720E-04
  383.00      7.52870E-04
  385.00      8.33090E-04
  387.00      8.46260E-04
  389.00      7.26290E-04
  391.00      8.39580E-04
  393.00      8.37580E-04
  395.00      8.27890E-04
  397.00      6.99500E-04
  399.00      8.09970E-04
  401.00      8.12520E-04
  403.00      7.80320E-04
  405.00      8.05190E-04
  407.00      7.96000E-04
  409.00      7.48640E-04
  411.00      6.84780E-04
  413.00      7.70250E-04
  415.00      7.68500E-04
  417.00      7.67040E-04
  419.00      7.59340E-04
  421.00      7.50460E-04
  423.00      7.49220E-04
  425.00      7.43090E-04
  427.00      7.36980E-04
  429.00      7.30550E-04
  431.00      7.21010E-04
  433.00      6.70840E-04
  435.00      6.32560E-04
  437.00      7.02550E-04
  439.00      6.88860E-04
  441.00      6.96910E-04
  443.00      6.90350E-04
  445.00      6.86230E-04
  447.00      6.58840E-04
  449.00      6.75340E-04
  451.00      6.70480E-04
  453.00      6.64750E-04
  455.00      6.53990E-04
  457.00      6.55210E-04
  459.00      6.50180E-04
  461.00      6.45290E-04
  463.00      6.40390E-04
  465.00      6.34920E-04
  467.00      6.30640E-04
  469.00      6.13220E-04
  471.00      6.16470E-04
  473.00      6.16970E-04
  475.00      6.12420E-04
  477.00      6.07930E-04
  479.00      6.03470E-04
  481.00      5.98400E-04
  483.00      5.91090E-04
  485.00      5.57260E-04
  487.00      5.17360E-04
  489.00      5.76480E-04
  491.00      5.75880E-04
  493.00      5.62910E-04
  495.00      5.69500E-04
  497.00      5.65520E-04
  499.00      5.61520E-04
  501.00      5.52950E-04
  503.00      5.53640E-04
  505.00      5.47980E-04
  507.00      5.45950E-04
  509.00      5.42150E-04
  511.00      5.38400E-04
  513.00      5.34690E-04
  515.00      5.31010E-04
  517.00      5.27370E-04
  519.00      5.23770E-04
  521.00      5.20200E-04
  523.00      5.16680E-04
  525.00      5.13180E-04
  527.00      5.09720E-04
  529.00      5.06300E-04
  531.00      5.02920E-04
  533.00      4.99560E-04
  535.00      4.96240E-04
  537.00      4.92950E-04
  539.00      4.89700E-04
  541.00      4.81840E-04
  543.00      4.83280E-04
  545.00      4.80120E-04
  547.00      4.76990E-04
  549.00      4.73900E-04
  551.00      4.70830E-04
  553.00      4.67790E-04
  555.00      4.64780E-04
  557.00      4.61790E-04
  559.00      4.58830E-04
  561.00      4.55920E-04
  563.00      4.53020E-04
  565.00      4.50150E-04
  567.00      4.47300E-04
  569.00      4.43110E-04
  571.00      4.34510E-04
  573.00      4.31890E-04
  575.00      4.29280E-04
  577.00      4.26720E-04
  579.00      4.24170E-04
  581.00      4.21650E-04
  583.00      4.19180E-04
  585.00      4.16800E-04
  587.00      4.05640E-04
  589.00      4.11780E-04
  591.00      4.10510E-04
  593.00      4.08620E-04
  595.00      4.06750E-04
  597.00      4.04950E-04
  599.00      4.03210E-04
  601.00      4.01430E-04
  603.00      3.99610E-04
  605.00      3.98130E-04
  607.00      3.95770E-04
  609.00      3.93420E-04
  611.00      3.91100E-04
  613.00      3.88800E-04
  615.00      3.86510E-04
  617.00      3.84250E-04
  619.00      3.82000E-04
  621.00      3.79780E-04
  623.00      3.77570E-04
  625.00      3.75390E-04
  627.00      3.73220E-04
  629.00      3.71070E-04
  631.00      3.68940E-04
  633.00      3.66830E-04
  635.00      3.64740E-04
  637.00      3.62660E-04
  639.00      3.60600E-04
  641.00      3.58550E-04
  643.00      3.56540E-04
  645.00      3.54530E-04
  647.00      3.52540E-04
  649.00      3.50570E-04
  651.00      3.48310E-04
  653.00      3.44630E-04
  655.00      3.33820E-04
  657.00      3.07860E-04
  659.00      3.37990E-04
  661.00      3.38560E-04
  663.00      3.37210E-04
  665.00      3.35460E-04
  667.00      3.30890E-04
  669.00      3.28630E-04
  671.00      3.29990E-04
  673.00      3.28220E-04
  675.00      3.26450E-04
  677.00      3.24690E-04
  679.00      3.22950E-04
  681.00      3.21220E-04
  683.00      3.19500E-04
  685.00      3.17790E-04
  687.00      3.16100E-04
  689.00      3.13920E-04
  691.00      3.12760E-04
  693.00      3.11110E-04
  695.00      3.09480E-04
  697.00      3.07850E-04
  699.00      3.06240E-04
  701.00      3.04640E-04
  703.00      3.03060E-04
  705.00      3.01480E-04
  707.00      2.96680E-04
  709.00      2.98370E-04
  711.00      2.96840E-04
  713.00      2.95310E-04
  715.00      2.93800E-04
  717.00      2.91890E-04
  719.00      2.90560E-04
  721.00      2.89330E-04
  723.00      2.87860E-04
  725.00      2.86400E-04
  727.00      2.84960E-04
  729.00      2.81950E-04
  731.00      2.82090E-04
  733.00      2.80680E-04
  735.00      2.79280E-04
  737.00      2.77890E-04
  739.00      2.76510E-04
  741.00      2.75140E-04
  743.00      2.73770E-04
  745.00      2.72440E-04
  747.00      2.71100E-04
  749.00      2.69770E-04
  751.00      2.68400E-04
  753.00      2.67140E-04
  755.00      2.65830E-04
  757.00      2.64540E-04
  759.00      2.62540E-04
  761.00      2.61980E-04
  763.00      2.60720E-04
  765.00      2.59460E-04
  767.00      2.58220E-04
  769.00      2.56980E-04
  771.00      2.55750E-04
  773.00      2.54530E-04
  775.00      2.53320E-04
  777.00      2.52110E-04
  779.00      2.50920E-04
  781.00      2.49670E-04
  783.00      2.48560E-04
  785.00      2.47520E-04
  787.00      2.46350E-04
  789.00      2.45200E-04
  791.00      2.44060E-04
  793.00      2.42920E-04
  795.00      2.41790E-04
  797.00      2.40640E-04
  799.00      2.39550E-04
  801.00      2.38440E-04
  803.00      2.37350E-04
  805.00      2.36250E-04
  807.00      2.35170E-04
  809.00      2.33980E-04
  811.00      2.32930E-04
  813.00      2.31960E-04
  815.00      2.30750E-04
  817.00      2.29840E-04
  819.00      2.28490E-04
  821.00      2.25880E-04
  823.00      2.24500E-04
  825.00      2.23970E-04
  827.00      2.22750E-04
  829.00      2.22170E-04
  831.00      2.21250E-04
  833.00      2.20200E-04
  835.00      2.18790E-04
  837.00      2.18170E-04
  839.00      2.17360E-04
  841.00      2.16430E-04
  843.00      2.15430E-04
  845.00      2.13820E-04
  847.00      2.13620E-04
  849.00      2.12530E-04
  851.00      2.11810E-04
  853.00      2.10610E-04
  855.00      2.09790E-04
  857.00      2.09280E-04
  859.00      2.06640E-04
  861.00      2.06900E-04
  863.00      2.07120E-04
  865.00      2.04780E-04
  867.00      2.02460E-04
  869.00      2.04570E-04
  871.00      2.04660E-04
  873.00      2.01600E-04
  875.00      1.96190E-04
  877.00      1.98850E-04
  879.00      2.01730E-04
  881.00      2.01630E-04
  883.00      1.99990E-04
  885.00      1.93010E-04
  887.00      1.87960E-04
  889.00      1.96000E-04
  891.00      1.97820E-04
  893.00      1.97590E-04
  895.00      1.97080E-04
  897.00      1.95670E-04
  899.00      1.91430E-04
  901.00      1.80270E-04
  903.00      1.83960E-04
  905.00      1.90900E-04
  907.00      1.90720E-04
  909.00      1.91440E-04
  911.00      1.91130E-04
  913.00      1.90620E-04
  915.00      1.89560E-04
  917.00      1.88200E-04
  919.00      1.86520E-04
  921.00      1.80150E-04
  923.00      1.68350E-04
  925.00      1.78470E-04
  927.00      1.83240E-04
  929.00      1.83820E-04
  931.00      1.83080E-04
  933.00      1.83090E-04
  935.00      1.81080E-04
  937.00      1.81690E-04
  939.00      1.80960E-04
  941.00      1.80230E-04
  943.00      1.79510E-04
  945.00      1.78780E-04
  947.00      1.77020E-04
  949.00      1.76560E-04
  951.00      1.73640E-04
  953.00      1.67310E-04
  955.00      1.56600E-04
  957.00      1.68470E-04
  959.00      1.72130E-04
  961.00      1.72310E-04
  963.00      1.71720E-04
  965.00      1.71850E-04
  967.00      1.71180E-04
  969.00      1.70430E-04
  971.00      1.69560E-04
  973.00      1.69190E-04
  975.00      1.68530E-04
  977.00      1.67880E-04
  979.00      1.67230E-04
  981.00      1.66590E-04
  983.00      1.65940E-04
  985.00      1.65310E-04
  987.00      1.64670E-04
  989.00      1.64040E-04
  991.00      1.63410E-04
  993.00      1.62790E-04
  995.00      1.62170E-04
  997.00      1.61340E-04
  999.00      1.60290E-04
  1002.5      1.53680E-04
  1007.5      1.50830E-04
  1012.5      1.55320E-04
  1017.5      1.55440E-04
  1022.5      1.53970E-04
  1027.5      1.52580E-04
  1032.5      1.50720E-04
  1037.5      1.49800E-04
  1042.5      1.48440E-04
  1047.5      1.47100E-04
  1052.5      1.45770E-04
  1057.5      1.44460E-04
  1062.5      1.43170E-04
  1067.5      1.41740E-04
  1072.5      1.40640E-04
  1077.5      1.39400E-04
  1082.5      1.37280E-04
  1087.5      1.36310E-04
  1092.5      1.27030E-04
  1097.5      1.31370E-04
  1102.5      1.32730E-04
  1107.5      1.32180E-04
  1112.5      1.31170E-04
  1117.5      1.30060E-04
  1122.5      1.28920E-04
  1127.5      1.27870E-04
  1132.5      1.26790E-04
  1137.5      1.25730E-04
  1142.5      1.24680E-04
  1147.5      1.23650E-04
  1152.5      1.22630E-04
  1157.5      1.21620E-04
  1162.5      1.20310E-04
  1167.5      1.19580E-04
  1172.5      1.18660E-04
  1177.5      1.17700E-04
  1182.5      1.16750E-04
  1187.5      1.15810E-04
  1192.5      1.14880E-04
  1197.5      1.13020E-04
  1202.5      1.13060E-04
  1207.5      1.12170E-04
  1212.5      1.11290E-04
  1217.5      1.10410E-04
  1222.5      1.09550E-04
  1227.5      1.08700E-04
  1232.5      1.07860E-04
  1237.5      1.07020E-04
  1242.5      1.06200E-04
  1247.5      1.05380E-04
  1252.5      1.04440E-04
  1257.5      1.03780E-04
  1262.5      1.03000E-04
  1267.5      1.02220E-04
  1272.5      1.01320E-04
  1277.5      9.90020E-05
  1282.5      9.34980E-05
  1287.5      9.83560E-05
  1292.5      9.83770E-05
  1297.5      9.72500E-05
  1302.5      9.70160E-05
  1307.5      9.63060E-05
  1312.5      9.56030E-05
  1317.5      9.49070E-05
  1322.5      9.42190E-05
  1327.5      9.35390E-05
  1332.5      9.28660E-05
  1337.5      9.22000E-05
  1342.5      9.14960E-05
  1347.5      9.08890E-05
  1352.5      9.02440E-05
  1357.5      8.96060E-05
  1362.5      8.89750E-05
  1367.5      8.83500E-05
  1372.5      8.77320E-05
  1377.5      8.71210E-05
  1382.5      8.65150E-05
  1387.5      8.59170E-05
  1392.5      8.53240E-05
  1397.5      8.47370E-05
