 Castelli and Kurucz 2004-2012 Atmosphere
 T     47000.     G    4.50000 [-2.5a] N(He)/Ntot=0.0784 VTURB=2  L/H=1.25 NOVE
 Wavelength  Eddington Hnu
   (nm)    (ergs/s/cm2/Hz/sr)
  9.0900      2.60290E-19
  9.3500      7.45800E-19
  9.6100      2.02120E-18
  9.7700      3.64730E-18
  9.9600      7.17340E-18
  10.200      1.63000E-17
  10.380      2.94940E-17
  10.560      5.23660E-17
  10.770      1.00030E-16
  11.040      2.22310E-16
  11.400      6.10670E-16
  11.780      1.67000E-15
  12.130      4.00840E-15
  12.480      9.19410E-15
  12.710      1.55070E-14
  12.840      2.06870E-14
  13.050      3.25640E-14
  13.240      4.85470E-14
  13.390      6.60510E-14
  13.660      1.13230E-13
  13.980      2.09340E-13
  14.330      3.98170E-13
  14.720      7.86520E-13
  15.100      1.48600E-12
  15.520      2.89610E-12
  15.880      4.99870E-12
  16.200      7.98000E-12
  16.600      1.39640E-11
  17.030      2.47400E-11
  17.340      3.67700E-11
  17.680      5.60170E-11
  18.020      8.39770E-11
  18.170      9.95590E-11
  18.610      1.63830E-10
  19.100      2.76720E-10
  19.390      3.73320E-10
  19.840      5.83070E-10
  20.180      8.06460E-10
  20.500      1.08370E-09
  21.050      1.76340E-09
  21.620      2.84550E-09
  21.980      3.80180E-09
  22.300      4.87830E-09
  22.680      6.49400E-09
  23.000      1.98670E-07
  23.400      1.80410E-06
  24.000      2.30400E-05
  24.650      1.19160E-04
  25.240      2.27070E-04
  25.680      1.50350E-04
  26.000      3.38690E-04
  26.400      4.27330E-04
  26.850      4.78590E-04
  27.350      5.53260E-04
  27.850      5.77620E-04
  28.400      6.42400E-04
  29.000      7.10890E-04
  29.600      6.47940E-04
  30.100      2.98630E-04
  30.800      4.34620E-04
  31.800      7.12320E-04
  32.800      7.94590E-04
  33.800      8.10600E-04
  34.800      8.57720E-04
  35.700      9.94020E-04
  36.600      1.09570E-03
  37.500      1.14710E-03
  38.500      1.10060E-03
  39.500      1.25640E-03
  40.500      1.35750E-03
  41.400      1.40570E-03
  42.200      1.41030E-03
  43.000      1.45770E-03
  44.100      1.55540E-03
  45.100      1.60540E-03
  46.000      1.60820E-03
  47.000      1.64090E-03
  48.000      1.71370E-03
  49.000      1.70470E-03
  50.000      1.81280E-03
  50.600      1.77480E-03
  51.200      1.93800E-03
  52.000      1.95040E-03
  53.000      2.00550E-03
  54.000      1.97030E-03
  55.000      1.94740E-03
  56.000      2.09590E-03
  57.000      2.15870E-03
  58.000      2.17120E-03
  59.000      2.22860E-03
  60.000      2.22070E-03
  61.000      2.18700E-03
  62.000      2.28120E-03
  63.000      2.28340E-03
  64.000      2.35510E-03
  65.000      2.35390E-03
  65.800      2.32320E-03
  66.500      2.40770E-03
  67.500      2.44340E-03
  68.500      2.41230E-03
  69.500      2.49290E-03
  70.500      2.43280E-03
  71.600      2.52990E-03
  72.600      2.56440E-03
  73.500      2.58170E-03
  74.500      2.58720E-03
  75.500      2.59020E-03
  76.500      2.57420E-03
  77.500      2.63680E-03
  78.500      2.61980E-03
  79.500      2.64540E-03
  80.500      2.67850E-03
  81.500      2.69460E-03
  82.500      2.71750E-03
  83.500      2.65810E-03
  84.500      2.73540E-03
  85.500      2.72550E-03
  86.500      2.76450E-03
  87.500      2.78140E-03
  88.500      2.78510E-03
  89.500      2.79220E-03
  90.500      2.77280E-03
  91.500      2.21660E-03
  92.500      3.66110E-03
  93.500      4.50220E-03
  94.500      5.25560E-03
  95.500      5.60960E-03
  96.500      6.08660E-03
  97.500      5.26100E-03
  98.500      6.01320E-03
  99.500      5.74410E-03
  100.50      5.98420E-03
  101.50      5.94060E-03
  102.50      5.15330E-03
  103.50      5.86700E-03
  104.50      5.87090E-03
  105.50      5.83750E-03
  106.50      5.75440E-03
  107.50      5.74700E-03
  108.50      5.52060E-03
  109.50      5.68640E-03
  110.50      5.63740E-03
  111.50      5.59340E-03
  112.50      5.51490E-03
  113.50      5.53610E-03
  114.50      5.49910E-03
  115.50      5.44040E-03
  116.50      5.39740E-03
  117.50      5.23980E-03
  118.50      5.34430E-03
  119.50      5.28940E-03
  120.50      5.25970E-03
  121.50      4.56850E-03
  122.50      5.18230E-03
  123.50      5.11440E-03
  124.50      5.07770E-03
  125.50      5.08760E-03
  126.50      5.05100E-03
  127.50      5.01470E-03
  128.50      4.97820E-03
  129.50      4.94310E-03
  130.50      4.90420E-03
  131.50      4.86960E-03
  132.50      4.82970E-03
  133.50      4.79920E-03
  134.50      4.76730E-03
  135.50      4.72590E-03
  136.50      4.68260E-03
  137.50      4.61950E-03
  138.50      4.61750E-03
  139.50      4.55860E-03
  140.50      4.50730E-03
  141.50      4.52280E-03
  142.50      4.48960E-03
  143.50      4.46100E-03
  144.20      4.42360E-03
  144.70      4.41200E-03
  145.50      4.38470E-03
  146.50      4.35440E-03
  147.50      4.33070E-03
  148.50      4.30700E-03
  149.50      4.27440E-03
  150.50      4.24580E-03
  151.20      4.22560E-03
  151.70      4.20730E-03
  152.50      4.18550E-03
  153.50      4.15160E-03
  154.50      4.05620E-03
  155.50      4.03240E-03
  156.50      4.06220E-03
  157.50      4.03600E-03
  158.50      4.00440E-03
  159.50      3.97740E-03
  160.50      3.94630E-03
  161.50      3.91920E-03
  162.50      3.88570E-03
  163.50      3.80170E-03
  164.50      3.64290E-03
  165.50      3.81150E-03
  166.50      3.78590E-03
  167.20      3.76270E-03
  167.70      3.75460E-03
  168.50      3.73380E-03
  169.50      3.70800E-03
  170.50      3.68150E-03
  171.50      3.62980E-03
  172.50      3.62200E-03
  173.50      3.60610E-03
  174.50      3.58050E-03
  175.50      3.55550E-03
  176.50      3.53130E-03
  177.50      3.50750E-03
  178.50      3.48340E-03
  179.50      3.45920E-03
  180.50      3.43560E-03
  181.50      3.41220E-03
  182.50      3.38890E-03
  183.50      3.36590E-03
  184.50      3.34300E-03
  185.50      3.32010E-03
  186.50      3.29770E-03
  187.50      3.27540E-03
  188.50      3.25340E-03
  189.50      3.23190E-03
  190.50      3.21020E-03
  191.50      3.18860E-03
  192.50      3.16640E-03
  193.50      3.14640E-03
  194.50      3.12550E-03
  195.50      3.10480E-03
  196.70      3.08020E-03
  197.60      3.06160E-03
  198.40      3.04580E-03
  199.50      3.02370E-03
  200.50      3.00410E-03
  201.50      2.98450E-03
  202.50      2.96500E-03
  203.50      2.94580E-03
  204.50      2.92610E-03
  205.50      2.30680E-03
  206.50      2.24480E-03
  207.40      2.29770E-03
  207.80      2.35280E-03
  208.50      2.51360E-03
  209.50      2.76410E-03
  210.50      2.81570E-03
  211.50      2.80590E-03
  212.50      2.78940E-03
  213.50      2.76670E-03
  214.50      2.75410E-03
  215.50      2.77820E-03
  216.50      2.70310E-03
  217.50      2.76000E-03
  218.50      2.66930E-03
  219.50      2.72460E-03
  220.50      2.71060E-03
  221.50      2.61810E-03
  222.50      2.67650E-03
  223.50      2.66030E-03
  224.50      2.64250E-03
  225.50      2.55640E-03
  226.50      2.61110E-03
  227.50      2.59500E-03
  228.50      2.57870E-03
  229.50      2.55670E-03
  230.50      2.48120E-03
  231.50      2.53060E-03
  232.50      2.51650E-03
  233.50      2.50120E-03
  234.50      2.48600E-03
  235.50      2.47100E-03
  236.50      2.45610E-03
  237.50      2.44120E-03
  238.50      2.36470E-03
  239.50      2.41110E-03
  240.50      2.39750E-03
  241.50      2.38310E-03
  242.50      2.36920E-03
  243.50      2.35520E-03
  244.50      2.34130E-03
  245.50      2.32690E-03
  246.50      2.31380E-03
  247.50      2.30020E-03
  248.50      2.28670E-03
  249.50      2.24750E-03
  250.50      2.25380E-03
  251.30      2.12490E-03
  251.80      2.24020E-03
  252.50      2.23310E-03
  253.50      2.22110E-03
  254.50      2.20830E-03
  255.50      2.19560E-03
  256.50      2.18300E-03
  257.50      2.17060E-03
  258.50      2.15810E-03
  259.50      2.14510E-03
  260.50      2.13380E-03
  261.50      2.12150E-03
  262.50      2.10980E-03
  263.50      2.09790E-03
  264.50      2.08610E-03
  265.50      2.07440E-03
  266.50      2.06280E-03
  267.50      2.05080E-03
  268.50      2.03980E-03
  269.50      2.02830E-03
  270.50      2.01730E-03
  271.50      2.00620E-03
  272.50      1.99460E-03
  273.50      1.93500E-03
  274.50      1.97320E-03
  275.50      1.96250E-03
  276.50      1.95140E-03
  277.50      1.94110E-03
  278.50      1.93060E-03
  279.50      1.92000E-03
  280.50      1.90980E-03
  281.50      1.89950E-03
  282.50      1.88880E-03
  283.50      1.87900E-03
  284.50      1.86910E-03
  285.50      1.85910E-03
  286.50      1.84930E-03
  287.50      1.83940E-03
  288.50      1.82970E-03
  289.50      1.82000E-03
  291.00      1.80560E-03
  293.00      1.78680E-03
  295.00      1.76780E-03
  297.00      1.74980E-03
  299.00      1.73150E-03
  301.00      1.71390E-03
  303.00      1.69620E-03
  305.00      1.67900E-03
  307.00      1.66180E-03
  309.00      1.64550E-03
  311.00      1.62900E-03
  313.00      1.61270E-03
  315.00      1.59680E-03
  317.00      1.58090E-03
  319.00      1.56450E-03
  321.00      1.52890E-03
  323.00      1.53500E-03
  325.00      1.52010E-03
  327.00      1.50490E-03
  329.00      1.49090E-03
  331.00      1.47660E-03
  333.00      1.46260E-03
  335.00      1.44850E-03
  337.00      1.43500E-03
  339.00      1.42150E-03
  341.00      1.40800E-03
  343.00      1.39520E-03
  345.00      1.38210E-03
  347.00      1.36950E-03
  349.00      1.35690E-03
  351.00      1.34450E-03
  353.00      1.33210E-03
  355.00      1.31990E-03
  357.00      1.30820E-03
  359.00      1.29610E-03
  361.00      1.28470E-03
  363.00      1.27290E-03
  364.00      1.24420E-03
  365.00      1.14640E-03
  367.00      1.13770E-03
  369.00      1.13180E-03
  371.00      1.13350E-03
  373.00      1.14010E-03
  375.00      1.15700E-03
  377.00      1.16930E-03
  379.00      1.18130E-03
  381.00      1.19140E-03
  383.00      1.14970E-03
  385.00      1.18360E-03
  387.00      1.18560E-03
  389.00      1.11230E-03
  391.00      1.16860E-03
  393.00      1.15180E-03
  395.00      1.15090E-03
  397.00      1.07410E-03
  399.00      1.13080E-03
  401.00      1.12510E-03
  403.00      1.09890E-03
  405.00      1.10730E-03
  407.00      1.09810E-03
  409.00      1.07210E-03
  411.00      1.02440E-03
  413.00      1.07000E-03
  415.00      1.06210E-03
  417.00      1.05390E-03
  419.00      1.04170E-03
  421.00      1.02430E-03
  423.00      1.02860E-03
  425.00      1.02030E-03
  427.00      1.01220E-03
  429.00      1.00420E-03
  431.00      9.96000E-04
  433.00      9.66950E-04
  435.00      9.37000E-04
  437.00      9.72240E-04
  439.00      9.64550E-04
  441.00      9.57820E-04
  443.00      9.50360E-04
  445.00      9.43080E-04
  447.00      9.32550E-04
  449.00      9.28670E-04
  451.00      9.21590E-04
  453.00      9.13580E-04
  455.00      8.94610E-04
  457.00      9.00820E-04
  459.00      8.94060E-04
  461.00      8.87360E-04
  463.00      8.80700E-04
  465.00      8.74090E-04
  467.00      8.67040E-04
  469.00      8.36270E-04
  471.00      8.54450E-04
  473.00      8.48730E-04
  475.00      8.42530E-04
  477.00      8.36410E-04
  479.00      8.30340E-04
  481.00      8.24340E-04
  483.00      8.18260E-04
  485.00      7.99880E-04
  487.00      7.66820E-04
  489.00      8.00200E-04
  491.00      7.95310E-04
  493.00      7.88470E-04
  495.00      7.84130E-04
  497.00      7.78630E-04
  499.00      7.73180E-04
  501.00      7.67200E-04
  503.00      7.62450E-04
  505.00      7.57070E-04
  507.00      7.51940E-04
  509.00      7.46760E-04
  511.00      7.41640E-04
  513.00      7.36570E-04
  515.00      7.31550E-04
  517.00      7.26590E-04
  519.00      7.21670E-04
  521.00      7.16800E-04
  523.00      7.11980E-04
  525.00      7.07200E-04
  527.00      7.02470E-04
  529.00      6.97800E-04
  531.00      6.93170E-04
  533.00      6.88580E-04
  535.00      6.84040E-04
  537.00      6.79550E-04
  539.00      6.75090E-04
  541.00      6.60240E-04
  543.00      6.66300E-04
  545.00      6.61990E-04
  547.00      6.57710E-04
  549.00      6.53470E-04
  551.00      6.49260E-04
  553.00      6.45110E-04
  555.00      6.40990E-04
  557.00      6.36900E-04
  559.00      6.32830E-04
  561.00      6.28850E-04
  563.00      6.24890E-04
  565.00      6.20960E-04
  567.00      6.17060E-04
  569.00      6.06630E-04
  571.00      5.73800E-04
  573.00      5.70470E-04
  575.00      5.67190E-04
  577.00      5.64030E-04
  579.00      5.61160E-04
  581.00      5.58690E-04
  583.00      5.56940E-04
  585.00      5.55670E-04
  587.00      5.52900E-04
  589.00      5.53980E-04
  591.00      5.53650E-04
  593.00      5.53740E-04
  595.00      5.54320E-04
  597.00      5.54890E-04
  599.00      5.55990E-04
  601.00      5.54200E-04
  603.00      5.52050E-04
  605.00      5.50420E-04
  607.00      5.46480E-04
  609.00      5.44090E-04
  611.00      5.40310E-04
  613.00      5.37170E-04
  615.00      5.34800E-04
  617.00      5.29840E-04
  619.00      5.28510E-04
  621.00      5.25540E-04
  623.00      5.20390E-04
  625.00      5.19100E-04
  627.00      5.16520E-04
  629.00      5.13560E-04
  631.00      5.07690E-04
  633.00      5.07520E-04
  635.00      5.04850E-04
  637.00      5.01990E-04
  639.00      4.98970E-04
  641.00      4.92590E-04
  643.00      4.93550E-04
  645.00      4.90790E-04
  647.00      4.88060E-04
  649.00      4.85340E-04
  651.00      4.82450E-04
  653.00      4.75120E-04
  655.00      4.72870E-04
  657.00      4.49640E-04
  659.00      4.71580E-04
  661.00      4.69490E-04
  663.00      4.66930E-04
  665.00      4.64390E-04
  667.00      4.60810E-04
  669.00      4.53840E-04
  671.00      4.56870E-04
  673.00      4.54420E-04
  675.00      4.51970E-04
  677.00      4.49550E-04
  679.00      4.47150E-04
  681.00      4.44760E-04
  683.00      4.42390E-04
  685.00      4.40040E-04
  687.00      4.37710E-04
  689.00      4.30010E-04
  691.00      4.32940E-04
  693.00      4.30840E-04
  695.00      4.28580E-04
  697.00      4.26340E-04
  699.00      4.24120E-04
  701.00      4.21920E-04
  703.00      4.19730E-04
  705.00      4.17560E-04
  707.00      4.14710E-04
  709.00      4.13270E-04
  711.00      4.11150E-04
  713.00      4.09050E-04
  715.00      4.06950E-04
  717.00      4.01360E-04
  719.00      4.00880E-04
  721.00      4.00790E-04
  723.00      3.98760E-04
  725.00      3.96750E-04
  727.00      3.94760E-04
  729.00      3.92600E-04
  731.00      3.90810E-04
  733.00      3.88860E-04
  735.00      3.86930E-04
  737.00      3.85010E-04
  739.00      3.83100E-04
  741.00      3.81200E-04
  743.00      3.79330E-04
  745.00      3.77460E-04
  747.00      3.75610E-04
  749.00      3.73770E-04
  751.00      3.71940E-04
  753.00      3.70130E-04
  755.00      3.68330E-04
  757.00      3.66540E-04
  759.00      3.59840E-04
  761.00      3.62750E-04
  763.00      3.61270E-04
  765.00      3.59530E-04
  767.00      3.57810E-04
  769.00      3.56100E-04
  771.00      3.54410E-04
  773.00      3.52720E-04
  775.00      3.51050E-04
  777.00      3.49390E-04
  779.00      3.47740E-04
  781.00      3.46100E-04
  783.00      3.44470E-04
  785.00      3.42860E-04
  787.00      3.41260E-04
  789.00      3.39670E-04
  791.00      3.38080E-04
  793.00      3.36510E-04
  795.00      3.34950E-04
  797.00      3.33400E-04
  799.00      3.31870E-04
  801.00      3.30340E-04
  803.00      3.28820E-04
  805.00      3.27320E-04
  807.00      3.25820E-04
  809.00      3.24330E-04
  811.00      3.22860E-04
  813.00      3.21390E-04
  815.00      3.19930E-04
  817.00      3.18480E-04
  819.00      3.15830E-04
  821.00      3.04020E-04
  823.00      3.01150E-04
  825.00      3.01120E-04
  827.00      3.00120E-04
  829.00      2.98860E-04
  831.00      2.97590E-04
  833.00      2.96330E-04
  835.00      2.95100E-04
  837.00      2.93910E-04
  839.00      2.92750E-04
  841.00      2.91680E-04
  843.00      2.90630E-04
  845.00      2.89580E-04
  847.00      2.88610E-04
  849.00      2.87760E-04
  851.00      2.86800E-04
  853.00      2.86050E-04
  855.00      2.84940E-04
  857.00      2.84510E-04
  859.00      2.83290E-04
  861.00      2.82480E-04
  863.00      2.82380E-04
  865.00      2.81320E-04
  867.00      2.79200E-04
  869.00      2.80320E-04
  871.00      2.80020E-04
  873.00      2.78960E-04
  875.00      2.74700E-04
  877.00      2.77020E-04
  879.00      2.77660E-04
  881.00      2.77200E-04
  883.00      2.76360E-04
  885.00      2.72510E-04
  887.00      2.67270E-04
  889.00      2.72410E-04
  891.00      2.72350E-04
  893.00      2.71350E-04
  895.00      2.70820E-04
  897.00      2.69400E-04
  899.00      2.67050E-04
  901.00      2.58730E-04
  903.00      2.61200E-04
  905.00      2.64310E-04
  907.00      2.63980E-04
  909.00      2.63030E-04
  911.00      2.61430E-04
  913.00      2.60920E-04
  915.00      2.59860E-04
  917.00      2.58770E-04
  919.00      2.57350E-04
  921.00      2.54240E-04
  923.00      2.44320E-04
  925.00      2.51650E-04
  927.00      2.53100E-04
  929.00      2.52570E-04
  931.00      2.51540E-04
  933.00      2.50350E-04
  935.00      2.44920E-04
  937.00      2.47420E-04
  939.00      2.47530E-04
  941.00      2.46570E-04
  943.00      2.45590E-04
  945.00      2.44610E-04
  947.00      2.43610E-04
  949.00      2.42680E-04
  951.00      2.41140E-04
  953.00      2.37690E-04
  955.00      2.28160E-04
  957.00      2.36760E-04
  959.00      2.37660E-04
  961.00      2.37020E-04
  963.00      2.36080E-04
  965.00      2.35180E-04
  967.00      2.34270E-04
  969.00      2.33360E-04
  971.00      2.32450E-04
  973.00      2.31560E-04
  975.00      2.30390E-04
  977.00      2.28350E-04
  979.00      2.28900E-04
  981.00      2.28020E-04
  983.00      2.27150E-04
  985.00      2.26290E-04
  987.00      2.25420E-04
  989.00      2.24570E-04
  991.00      2.23720E-04
  993.00      2.22870E-04
  995.00      2.22030E-04
  997.00      2.21190E-04
  999.00      2.20350E-04
  1002.5      2.16230E-04
  1007.5      2.12810E-04
  1012.5      2.11920E-04
  1017.5      2.12860E-04
  1022.5      2.10910E-04
  1027.5      2.08980E-04
  1032.5      2.07020E-04
  1037.5      2.05190E-04
  1042.5      2.02370E-04
  1047.5      2.01510E-04
  1052.5      1.99710E-04
  1057.5      1.97930E-04
  1062.5      1.96170E-04
  1067.5      1.94430E-04
  1072.5      1.92730E-04
  1077.5      1.91040E-04
  1082.5      1.89130E-04
  1087.5      1.87690E-04
  1092.5      1.81100E-04
  1097.5      1.83430E-04
  1102.5      1.82910E-04
  1107.5      1.81360E-04
  1112.5      1.79820E-04
  1117.5      1.78390E-04
  1122.5      1.76880E-04
  1127.5      1.75400E-04
  1132.5      1.73930E-04
  1137.5      1.72480E-04
  1142.5      1.71050E-04
  1147.5      1.69640E-04
  1152.5      1.68240E-04
  1157.5      1.66860E-04
  1162.5      1.64040E-04
  1167.5      1.63110E-04
  1172.5      1.62830E-04
  1177.5      1.61510E-04
  1182.5      1.60220E-04
  1187.5      1.58930E-04
  1192.5      1.57670E-04
  1197.5      1.56340E-04
  1202.5      1.55180E-04
  1207.5      1.53960E-04
  1212.5      1.52750E-04
  1217.5      1.51550E-04
  1222.5      1.50370E-04
  1227.5      1.49210E-04
  1232.5      1.48050E-04
  1237.5      1.46910E-04
  1242.5      1.45790E-04
  1247.5      1.44670E-04
  1252.5      1.43560E-04
  1257.5      1.42480E-04
  1262.5      1.41410E-04
  1267.5      1.40340E-04
  1272.5      1.39290E-04
  1277.5      1.37860E-04
  1282.5      1.33090E-04
  1287.5      1.36060E-04
  1292.5      1.35200E-04
  1297.5      1.34180E-04
  1302.5      1.33220E-04
  1307.5      1.32250E-04
  1312.5      1.31280E-04
  1317.5      1.30330E-04
  1322.5      1.29390E-04
  1327.5      1.28460E-04
  1332.5      1.27530E-04
  1337.5      1.26620E-04
  1342.5      1.25720E-04
  1347.5      1.24830E-04
  1352.5      1.23940E-04
  1357.5      1.23070E-04
  1362.5      1.22210E-04
  1367.5      1.21350E-04
  1372.5      1.20500E-04
  1377.5      1.19670E-04
  1382.5      1.18840E-04
  1387.5      1.18020E-04
  1392.5      1.17200E-04
  1397.5      1.16400E-04
