 Castelli and Kurucz 2004-2012 Atmosphere
 T     35000.     G    4.50000 [-2.5a] N(He)/Ntot=0.0784 VTURB=2  L/H=1.25 NOVE
 Wavelength  Eddington Hnu
   (nm)    (ergs/s/cm2/Hz/sr)
  9.0900      2.68660E-28
  9.3500      1.36680E-27
  9.6100      6.39530E-27
  9.7700      1.59130E-26
  9.9600      4.53350E-26
  10.200      1.61480E-25
  10.380      4.04310E-25
  10.560      9.83270E-25
  10.770      2.67870E-24
  11.040      9.23200E-24
  11.400      4.41700E-23
  11.780      2.09820E-22
  12.130      8.14230E-22
  12.480      2.94390E-21
  12.710      6.61360E-21
  12.840      1.03250E-20
  13.050      2.08330E-20
  13.240      3.86300E-20
  13.390      6.21730E-20
  13.660      1.43020E-19
  13.980      3.69040E-19
  14.330      9.93930E-19
  14.720      2.84620E-18
  15.100      7.54550E-18
  15.520      2.10220E-17
  15.880      4.85650E-17
  16.200      9.91020E-17
  16.600      2.33020E-16
  17.030      5.59450E-16
  17.340      1.02400E-15
  17.680      1.93930E-15
  18.020      3.59030E-15
  18.170      4.67760E-15
  18.610      9.91180E-15
  19.100      2.19610E-14
  19.390      3.45260E-14
  19.840      6.78620E-14
  20.180      1.10720E-13
  20.500      1.72960E-13
  21.050      3.61050E-13
  21.620      7.43120E-13
  21.980      1.14910E-12
  22.300      1.67330E-12
  22.680      2.57940E-12
  23.000      1.37360E-10
  23.400      7.79310E-10
  24.000      2.87700E-09
  24.650      1.14460E-08
  25.240      2.61160E-08
  25.680      1.67420E-08
  26.000      7.32560E-08
  26.400      1.40550E-07
  26.850      2.47350E-07
  27.350      3.59230E-07
  27.850      4.18810E-07
  28.400      5.94050E-07
  29.000      6.52930E-07
  29.600      4.40760E-07
  30.100      1.20400E-07
  30.800      3.02230E-07
  31.800      9.29070E-07
  32.800      1.16460E-06
  33.800      1.36260E-06
  34.800      1.64780E-06
  35.700      1.86040E-06
  36.600      2.23270E-06
  37.500      2.54340E-06
  38.500      3.07660E-06
  39.500      3.69770E-06
  40.500      4.40960E-06
  41.400      5.20210E-06
  42.200      5.89440E-06
  43.000      6.69690E-06
  44.100      8.08600E-06
  45.100      9.46710E-06
  46.000      1.07750E-05
  47.000      1.26460E-05
  48.000      1.45850E-05
  49.000      1.65020E-05
  50.000      1.91790E-05
  50.600      6.95620E-05
  51.200      1.78330E-04
  52.000      1.79820E-04
  53.000      1.89300E-04
  54.000      1.81400E-04
  55.000      1.96410E-04
  56.000      2.12860E-04
  57.000      2.21080E-04
  58.000      2.17920E-04
  59.000      2.33570E-04
  60.000      2.35180E-04
  61.000      2.40980E-04
  62.000      2.56950E-04
  63.000      2.64270E-04
  64.000      2.70580E-04
  65.000      2.77220E-04
  65.800      2.77950E-04
  66.500      2.87140E-04
  67.500      2.99140E-04
  68.500      2.97680E-04
  69.500      3.15800E-04
  70.500      3.13420E-04
  71.600      3.33320E-04
  72.600      3.41630E-04
  73.500      3.52100E-04
  74.500      3.56930E-04
  75.500      3.64740E-04
  76.500      3.72250E-04
  77.500      3.83080E-04
  78.500      3.93030E-04
  79.500      4.01640E-04
  80.500      4.09440E-04
  81.500      4.19260E-04
  82.500      4.31540E-04
  83.500      4.23360E-04
  84.500      4.48350E-04
  85.500      4.56910E-04
  86.500      4.67750E-04
  87.500      4.76580E-04
  88.500      4.85510E-04
  89.500      4.94480E-04
  90.500      5.01180E-04
  91.500      5.11330E-04
  92.500      1.24580E-03
  93.500      1.81580E-03
  94.500      2.58160E-03
  95.500      2.85820E-03
  96.500      3.38810E-03
  97.500      2.46780E-03
  98.500      3.40350E-03
  99.500      3.21250E-03
  100.50      3.41540E-03
  101.50      3.39660E-03
  102.50      2.48180E-03
  103.50      3.33720E-03
  104.50      3.39550E-03
  105.50      3.38230E-03
  106.50      3.30990E-03
  107.50      3.29840E-03
  108.50      3.14780E-03
  109.50      3.31060E-03
  110.50      3.27160E-03
  111.50      3.24380E-03
  112.50      3.17540E-03
  113.50      3.23350E-03
  114.50      3.21120E-03
  115.50      3.17420E-03
  116.50      3.17010E-03
  117.50      2.92910E-03
  118.50      3.11910E-03
  119.50      3.10040E-03
  120.50      3.03000E-03
  121.50      2.28100E-03
  122.50      3.01570E-03
  123.50      3.03280E-03
  124.50      2.99470E-03
  125.50      3.01080E-03
  126.50      2.99410E-03
  127.50      2.97620E-03
  128.50      2.95880E-03
  129.50      2.91130E-03
  130.50      2.90930E-03
  131.50      2.90330E-03
  132.50      2.88260E-03
  133.50      2.85680E-03
  134.50      2.84820E-03
  135.50      2.82950E-03
  136.50      2.80940E-03
  137.50      2.78820E-03
  138.50      2.77370E-03
  139.50      2.70750E-03
  140.50      2.69130E-03
  141.50      2.71940E-03
  142.50      2.69540E-03
  143.50      2.68500E-03
  144.20      2.67280E-03
  144.70      2.66410E-03
  145.50      2.64870E-03
  146.50      2.63290E-03
  147.50      2.61570E-03
  148.50      2.60180E-03
  149.50      2.58280E-03
  150.50      2.56720E-03
  151.20      2.55750E-03
  151.70      2.54750E-03
  152.50      2.53170E-03
  153.50      2.50220E-03
  154.50      2.44000E-03
  155.50      2.43420E-03
  156.50      2.45170E-03
  157.50      2.44500E-03
  158.50      2.43260E-03
  159.50      2.41700E-03
  160.50      2.38780E-03
  161.50      2.37160E-03
  162.50      2.34990E-03
  163.50      2.30190E-03
  164.50      2.20100E-03
  165.50      2.32150E-03
  166.50      2.30600E-03
  167.20      2.29140E-03
  167.70      2.29740E-03
  168.50      2.28390E-03
  169.50      2.26980E-03
  170.50      2.25370E-03
  171.50      2.22410E-03
  172.50      2.21260E-03
  173.50      2.21530E-03
  174.50      2.19960E-03
  175.50      2.18340E-03
  176.50      2.17300E-03
  177.50      2.16020E-03
  178.50      2.14680E-03
  179.50      2.13240E-03
  180.50      2.12000E-03
  181.50      2.10660E-03
  182.50      2.09280E-03
  183.50      2.08120E-03
  184.50      2.06710E-03
  185.50      2.05270E-03
  186.50      2.04000E-03
  187.50      2.02820E-03
  188.50      2.01550E-03
  189.50      2.00340E-03
  190.50      1.99250E-03
  191.50      1.97900E-03
  192.50      1.96340E-03
  193.50      1.95550E-03
  194.50      1.94410E-03
  195.50      1.93080E-03
  196.70      1.91800E-03
  197.60      1.90780E-03
  198.40      1.89810E-03
  199.50      1.88480E-03
  200.50      1.87460E-03
  201.50      1.86330E-03
  202.50      1.85210E-03
  203.50      1.84090E-03
  204.50      1.82980E-03
  205.50      1.51700E-03
  206.50      1.47940E-03
  207.40      1.49800E-03
  207.80      1.52290E-03
  208.50      1.59150E-03
  209.50      1.72480E-03
  210.50      1.76570E-03
  211.50      1.76000E-03
  212.50      1.74910E-03
  213.50      1.73710E-03
  214.50      1.72880E-03
  215.50      1.73400E-03
  216.50      1.69870E-03
  217.50      1.72250E-03
  218.50      1.67770E-03
  219.50      1.70130E-03
  220.50      1.69300E-03
  221.50      1.64610E-03
  222.50      1.67280E-03
  223.50      1.66320E-03
  224.50      1.65260E-03
  225.50      1.60820E-03
  226.50      1.63390E-03
  227.50      1.62430E-03
  228.50      1.61420E-03
  229.50      1.59030E-03
  230.50      1.56290E-03
  231.50      1.58600E-03
  232.50      1.57750E-03
  233.50      1.56840E-03
  234.50      1.55930E-03
  235.50      1.55040E-03
  236.50      1.54140E-03
  237.50      1.53260E-03
  238.50      1.49280E-03
  239.50      1.51400E-03
  240.50      1.50650E-03
  241.50      1.49790E-03
  242.50      1.48950E-03
  243.50      1.48100E-03
  244.50      1.47270E-03
  245.50      1.46420E-03
  246.50      1.45620E-03
  247.50      1.44800E-03
  248.50      1.43990E-03
  249.50      1.39720E-03
  250.50      1.42120E-03
  251.30      1.35630E-03
  251.80      1.41010E-03
  252.50      1.40820E-03
  253.50      1.40050E-03
  254.50      1.39270E-03
  255.50      1.38510E-03
  256.50      1.37760E-03
  257.50      1.37010E-03
  258.50      1.36270E-03
  259.50      1.35510E-03
  260.50      1.35060E-03
  261.50      1.34330E-03
  262.50      1.33610E-03
  263.50      1.32860E-03
  264.50      1.32110E-03
  265.50      1.31350E-03
  266.50      1.30560E-03
  267.50      1.29780E-03
  268.50      1.29370E-03
  269.50      1.28320E-03
  270.50      1.28000E-03
  271.50      1.27320E-03
  272.50      1.26190E-03
  273.50      1.23730E-03
  274.50      1.25320E-03
  275.50      1.24660E-03
  276.50      1.23470E-03
  277.50      1.23360E-03
  278.50      1.22720E-03
  279.50      1.22020E-03
  280.50      1.21440E-03
  281.50      1.20820E-03
  282.50      1.19590E-03
  283.50      1.19320E-03
  284.50      1.18970E-03
  285.50      1.18360E-03
  286.50      1.17750E-03
  287.50      1.17150E-03
  288.50      1.16560E-03
  289.50      1.15960E-03
  291.00      1.15090E-03
  293.00      1.13930E-03
  295.00      1.12340E-03
  297.00      1.11660E-03
  299.00      1.10550E-03
  301.00      1.09470E-03
  303.00      1.08380E-03
  305.00      1.07320E-03
  307.00      1.06290E-03
  309.00      1.05240E-03
  311.00      1.04240E-03
  313.00      1.03280E-03
  315.00      1.02290E-03
  317.00      1.01310E-03
  319.00      9.98140E-04
  321.00      9.85240E-04
  323.00      9.84540E-04
  325.00      9.75230E-04
  327.00      9.66390E-04
  329.00      9.56990E-04
  331.00      9.48830E-04
  333.00      9.40100E-04
  335.00      9.30540E-04
  337.00      9.23050E-04
  339.00      9.14720E-04
  341.00      9.06480E-04
  343.00      8.96620E-04
  345.00      8.86790E-04
  347.00      8.80420E-04
  349.00      8.72580E-04
  351.00      8.65900E-04
  353.00      8.58590E-04
  355.00      8.50710E-04
  357.00      8.46300E-04
  359.00      8.35170E-04
  361.00      8.29750E-04
  363.00      8.20740E-04
  364.00      8.15810E-04
  365.00      7.85390E-04
  367.00      7.80480E-04
  369.00      7.74580E-04
  371.00      7.65130E-04
  373.00      7.56930E-04
  375.00      7.61760E-04
  377.00      7.57440E-04
  379.00      7.77290E-04
  381.00      7.98640E-04
  383.00      7.37830E-04
  385.00      8.09310E-04
  387.00      8.15940E-04
  389.00      7.16800E-04
  391.00      8.08950E-04
  393.00      8.01590E-04
  395.00      7.96990E-04
  397.00      6.91170E-04
  399.00      7.81630E-04
  401.00      7.78970E-04
  403.00      7.53030E-04
  405.00      7.71520E-04
  407.00      7.63300E-04
  409.00      7.29990E-04
  411.00      6.72250E-04
  413.00      7.40220E-04
  415.00      7.36550E-04
  417.00      7.33940E-04
  419.00      7.27100E-04
  421.00      7.17920E-04
  423.00      7.17150E-04
  425.00      7.11400E-04
  427.00      7.05700E-04
  429.00      7.00190E-04
  431.00      6.92780E-04
  433.00      6.56140E-04
  435.00      6.20280E-04
  437.00      6.75840E-04
  439.00      6.63630E-04
  441.00      6.68080E-04
  443.00      6.61960E-04
  445.00      6.58000E-04
  447.00      6.37210E-04
  449.00      6.47970E-04
  451.00      6.43120E-04
  453.00      6.37950E-04
  455.00      6.27860E-04
  457.00      6.28730E-04
  459.00      6.23990E-04
  461.00      6.19380E-04
  463.00      6.14740E-04
  465.00      6.09490E-04
  467.00      6.05640E-04
  469.00      5.89280E-04
  471.00      5.92670E-04
  473.00      5.92610E-04
  475.00      5.88310E-04
  477.00      5.84060E-04
  479.00      5.79850E-04
  481.00      5.75670E-04
  483.00      5.69820E-04
  485.00      5.45380E-04
  487.00      5.08150E-04
  489.00      5.56660E-04
  491.00      5.55240E-04
  493.00      5.43750E-04
  495.00      5.47690E-04
  497.00      5.43900E-04
  499.00      5.40120E-04
  501.00      5.32550E-04
  503.00      5.32650E-04
  505.00      5.27450E-04
  507.00      5.25350E-04
  509.00      5.21750E-04
  511.00      5.18190E-04
  513.00      5.14660E-04
  515.00      5.11170E-04
  517.00      5.07710E-04
  519.00      5.04290E-04
  521.00      5.00910E-04
  523.00      4.97560E-04
  525.00      4.94240E-04
  527.00      4.90950E-04
  529.00      4.87700E-04
  531.00      4.84480E-04
  533.00      4.81290E-04
  535.00      4.78130E-04
  537.00      4.75000E-04
  539.00      4.71900E-04
  541.00      4.64800E-04
  543.00      4.65790E-04
  545.00      4.62790E-04
  547.00      4.59810E-04
  549.00      4.56860E-04
  551.00      4.53930E-04
  553.00      4.51040E-04
  555.00      4.48170E-04
  557.00      4.45330E-04
  559.00      4.42490E-04
  561.00      4.39720E-04
  563.00      4.36960E-04
  565.00      4.34220E-04
  567.00      4.31510E-04
  569.00      4.27260E-04
  571.00      4.17980E-04
  573.00      4.15500E-04
  575.00      4.13030E-04
  577.00      4.10610E-04
  579.00      4.08200E-04
  581.00      4.05860E-04
  583.00      4.03630E-04
  585.00      4.01660E-04
  587.00      3.92460E-04
  589.00      3.97660E-04
  591.00      3.96330E-04
  593.00      3.94710E-04
  595.00      3.93140E-04
  597.00      3.91600E-04
  599.00      3.90160E-04
  601.00      3.88780E-04
  603.00      3.86870E-04
  605.00      3.84590E-04
  607.00      3.82330E-04
  609.00      3.80080E-04
  611.00      3.77860E-04
  613.00      3.75650E-04
  615.00      3.73470E-04
  617.00      3.71300E-04
  619.00      3.69150E-04
  621.00      3.67020E-04
  623.00      3.64900E-04
  625.00      3.62810E-04
  627.00      3.60740E-04
  629.00      3.58680E-04
  631.00      3.56630E-04
  633.00      3.54620E-04
  635.00      3.52610E-04
  637.00      3.50630E-04
  639.00      3.48650E-04
  641.00      3.46460E-04
  643.00      3.44760E-04
  645.00      3.42830E-04
  647.00      3.40930E-04
  649.00      3.39030E-04
  651.00      3.37150E-04
  653.00      3.33790E-04
  655.00      3.26270E-04
  657.00      3.02080E-04
  659.00      3.28150E-04
  661.00      3.28000E-04
  663.00      3.26220E-04
  665.00      3.24540E-04
  667.00      3.20610E-04
  669.00      3.18200E-04
  671.00      3.19300E-04
  673.00      3.17590E-04
  675.00      3.15890E-04
  677.00      3.14210E-04
  679.00      3.12530E-04
  681.00      3.10870E-04
  683.00      3.09220E-04
  685.00      3.07590E-04
  687.00      3.05960E-04
  689.00      3.03660E-04
  691.00      3.02750E-04
  693.00      3.01170E-04
  695.00      2.99600E-04
  697.00      2.98040E-04
  699.00      2.96490E-04
  701.00      2.94950E-04
  703.00      2.93430E-04
  705.00      2.91920E-04
  707.00      2.87460E-04
  709.00      2.88930E-04
  711.00      2.87450E-04
  713.00      2.85980E-04
  715.00      2.84530E-04
  717.00      2.82550E-04
  719.00      2.81370E-04
  721.00      2.80230E-04
  723.00      2.78810E-04
  725.00      2.77410E-04
  727.00      2.76020E-04
  729.00      2.73200E-04
  731.00      2.73260E-04
  733.00      2.71910E-04
  735.00      2.70560E-04
  737.00      2.69220E-04
  739.00      2.67890E-04
  741.00      2.66570E-04
  743.00      2.65260E-04
  745.00      2.63980E-04
  747.00      2.62690E-04
  749.00      2.61410E-04
  751.00      2.60090E-04
  753.00      2.58870E-04
  755.00      2.57620E-04
  757.00      2.56370E-04
  759.00      2.54330E-04
  761.00      2.53910E-04
  763.00      2.52690E-04
  765.00      2.51480E-04
  767.00      2.50280E-04
  769.00      2.49090E-04
  771.00      2.47910E-04
  773.00      2.46730E-04
  775.00      2.45560E-04
  777.00      2.44410E-04
  779.00      2.43260E-04
  781.00      2.42050E-04
  783.00      2.40980E-04
  785.00      2.39970E-04
  787.00      2.38850E-04
  789.00      2.37740E-04
  791.00      2.36640E-04
  793.00      2.35540E-04
  795.00      2.34450E-04
  797.00      2.33320E-04
  799.00      2.32300E-04
  801.00      2.31230E-04
  803.00      2.30170E-04
  805.00      2.29120E-04
  807.00      2.28070E-04
  809.00      2.26870E-04
  811.00      2.25860E-04
  813.00      2.24940E-04
  815.00      2.23770E-04
  817.00      2.22940E-04
  819.00      2.21600E-04
  821.00      2.18820E-04
  823.00      2.17480E-04
  825.00      2.17060E-04
  827.00      2.15800E-04
  829.00      2.15260E-04
  831.00      2.14360E-04
  833.00      2.13370E-04
  835.00      2.11970E-04
  837.00      2.11390E-04
  839.00      2.10610E-04
  841.00      2.09730E-04
  843.00      2.08760E-04
  845.00      2.07200E-04
  847.00      2.07000E-04
  849.00      2.05940E-04
  851.00      2.05200E-04
  853.00      2.04170E-04
  855.00      2.03000E-04
  857.00      2.03260E-04
  859.00      2.00050E-04
  861.00      2.00190E-04
  863.00      2.01430E-04
  865.00      1.98780E-04
  867.00      1.94820E-04
  869.00      1.99040E-04
  871.00      1.99420E-04
  873.00      1.96300E-04
  875.00      1.88340E-04
  877.00      1.93380E-04
  879.00      1.96790E-04
  881.00      1.96540E-04
  883.00      1.95180E-04
  885.00      1.88000E-04
  887.00      1.81170E-04
  889.00      1.91390E-04
  891.00      1.92750E-04
  893.00      1.92250E-04
  895.00      1.91740E-04
  897.00      1.90620E-04
  899.00      1.87140E-04
  901.00      1.74980E-04
  903.00      1.79670E-04
  905.00      1.86440E-04
  907.00      1.85770E-04
  909.00      1.86200E-04
  911.00      1.85920E-04
  913.00      1.85240E-04
  915.00      1.84480E-04
  917.00      1.83190E-04
  919.00      1.81920E-04
  921.00      1.76540E-04
  923.00      1.63870E-04
  925.00      1.75110E-04
  927.00      1.78820E-04
  929.00      1.78940E-04
  931.00      1.78080E-04
  933.00      1.77860E-04
  935.00      1.75920E-04
  937.00      1.76440E-04
  939.00      1.75730E-04
  941.00      1.75030E-04
  943.00      1.74340E-04
  945.00      1.73640E-04
  947.00      1.72300E-04
  949.00      1.71900E-04
  951.00      1.69500E-04
  953.00      1.64330E-04
  955.00      1.53090E-04
  957.00      1.65420E-04
  959.00      1.67940E-04
  961.00      1.67760E-04
  963.00      1.67070E-04
  965.00      1.66930E-04
  967.00      1.66280E-04
  969.00      1.65570E-04
  971.00      1.64720E-04
  973.00      1.64360E-04
  975.00      1.63720E-04
  977.00      1.63090E-04
  979.00      1.62460E-04
  981.00      1.61840E-04
  983.00      1.61220E-04
  985.00      1.60600E-04
  987.00      1.59990E-04
  989.00      1.59380E-04
  991.00      1.58770E-04
  993.00      1.58170E-04
  995.00      1.57570E-04
  997.00      1.56970E-04
  999.00      1.56120E-04
  1002.5      1.50530E-04
  1007.5      1.47760E-04
  1012.5      1.51190E-04
  1017.5      1.51060E-04
  1022.5      1.49630E-04
  1027.5      1.48290E-04
  1032.5      1.46550E-04
  1037.5      1.45600E-04
  1042.5      1.44250E-04
  1047.5      1.42980E-04
  1052.5      1.41700E-04
  1057.5      1.40430E-04
  1062.5      1.39190E-04
  1067.5      1.37810E-04
  1072.5      1.36740E-04
  1077.5      1.35540E-04
  1082.5      1.33490E-04
  1087.5      1.32870E-04
  1092.5      1.24600E-04
  1097.5      1.28700E-04
  1102.5      1.29270E-04
  1107.5      1.28590E-04
  1112.5      1.27560E-04
  1117.5      1.26490E-04
  1122.5      1.25380E-04
  1127.5      1.24360E-04
  1132.5      1.23320E-04
  1137.5      1.22290E-04
  1142.5      1.21280E-04
  1147.5      1.20270E-04
  1152.5      1.19280E-04
  1157.5      1.18310E-04
  1162.5      1.17040E-04
  1167.5      1.16310E-04
  1172.5      1.15440E-04
  1177.5      1.14510E-04
  1182.5      1.13590E-04
  1187.5      1.12680E-04
  1192.5      1.11780E-04
  1197.5      1.10140E-04
  1202.5      1.10010E-04
  1207.5      1.09150E-04
  1212.5      1.08290E-04
  1217.5      1.07440E-04
  1222.5      1.06610E-04
  1227.5      1.05780E-04
  1232.5      1.04960E-04
  1237.5      1.04150E-04
  1242.5      1.03350E-04
  1247.5      1.02560E-04
  1252.5      1.01660E-04
  1257.5      1.01010E-04
  1262.5      1.00250E-04
  1267.5      9.94930E-05
  1272.5      9.87450E-05
  1277.5      9.67560E-05
  1282.5      9.18440E-05
  1287.5      9.60570E-05
  1292.5      9.58440E-05
  1297.5      9.47370E-05
  1302.5      9.44420E-05
  1307.5      9.37520E-05
  1312.5      9.30700E-05
  1317.5      9.23950E-05
  1322.5      9.17270E-05
  1327.5      9.10660E-05
  1332.5      9.04130E-05
  1337.5      8.97660E-05
  1342.5      8.90840E-05
  1347.5      8.84940E-05
  1352.5      8.78680E-05
  1357.5      8.72480E-05
  1362.5      8.66350E-05
  1367.5      8.60290E-05
  1372.5      8.54280E-05
  1377.5      8.48350E-05
  1382.5      8.42470E-05
  1387.5      8.36650E-05
  1392.5      8.30890E-05
  1397.5      8.25200E-05
