 Castelli and Kurucz 2004-2012 Atmosphere
 T     35000.     G    5.00000 [-2.5a] N(He)/Ntot=0.0784 VTURB=2  L/H=1.25 NOVE
 Wavelength  Eddington Hnu
   (nm)    (ergs/s/cm2/Hz/sr)
  9.0900      2.11310E-28
  9.3500      1.10450E-27
  9.6100      5.29680E-27
  9.7700      1.33620E-26
  9.9600      3.86350E-26
  10.200      1.39900E-25
  10.380      3.54170E-25
  10.560      8.69720E-25
  10.770      2.39280E-24
  11.040      8.33100E-24
  11.400      4.02870E-23
  11.780      1.92790E-22
  12.130      7.51350E-22
  12.480      2.72190E-21
  12.710      6.11900E-21
  12.840      9.54930E-21
  13.050      1.92670E-20
  13.240      3.57010E-20
  13.390      5.74200E-20
  13.660      1.31830E-19
  13.980      3.39210E-19
  14.330      9.11600E-19
  14.720      2.59980E-18
  15.100      6.86590E-18
  15.520      1.90550E-17
  15.880      4.38190E-17
  16.200      8.92080E-17
  16.600      2.09060E-16
  17.030      5.00010E-16
  17.340      9.12270E-16
  17.680      1.72550E-15
  18.020      3.18620E-15
  18.170      4.14650E-15
  18.610      8.75490E-15
  19.100      1.93700E-14
  19.390      3.04230E-14
  19.840      5.95690E-14
  20.180      9.70870E-14
  20.500      1.51640E-13
  21.050      3.15930E-13
  21.620      6.48520E-13
  21.980      1.00380E-12
  22.300      1.46160E-12
  22.680      2.25000E-12
  23.000      7.97680E-11
  23.400      5.88180E-10
  24.000      2.50310E-09
  24.650      9.31590E-09
  25.240      1.89960E-08
  25.680      1.25020E-08
  26.000      3.98400E-08
  26.400      5.97190E-08
  26.850      9.08130E-08
  27.350      1.21540E-07
  27.850      1.38980E-07
  28.400      1.86730E-07
  29.000      2.09570E-07
  29.600      1.77390E-07
  30.100      8.61470E-08
  30.800      1.46020E-07
  31.800      3.38180E-07
  32.800      4.24380E-07
  33.800      5.33490E-07
  34.800      6.80200E-07
  35.700      8.11390E-07
  36.600      1.02100E-06
  37.500      1.22510E-06
  38.500      1.56460E-06
  39.500      1.94680E-06
  40.500      2.39900E-06
  41.400      2.90620E-06
  42.200      3.37660E-06
  43.000      3.91710E-06
  44.100      4.82140E-06
  45.100      5.76200E-06
  46.000      6.66460E-06
  47.000      7.93200E-06
  48.000      9.27690E-06
  49.000      1.06810E-05
  50.000      1.25170E-05
  50.600      4.38820E-05
  51.200      1.36170E-04
  52.000      1.37860E-04
  53.000      1.48930E-04
  54.000      1.41200E-04
  55.000      1.55420E-04
  56.000      1.65470E-04
  57.000      1.71700E-04
  58.000      1.68430E-04
  59.000      1.81350E-04
  60.000      1.83600E-04
  61.000      1.88730E-04
  62.000      1.99050E-04
  63.000      2.05560E-04
  64.000      2.09850E-04
  65.000      2.16340E-04
  65.800      2.18430E-04
  66.500      2.24620E-04
  67.500      2.33170E-04
  68.500      2.33380E-04
  69.500      2.48050E-04
  70.500      2.47710E-04
  71.600      2.62370E-04
  72.600      2.69450E-04
  73.500      2.78550E-04
  74.500      2.83770E-04
  75.500      2.90680E-04
  76.500      2.97790E-04
  77.500      3.07070E-04
  78.500      3.16330E-04
  79.500      3.23390E-04
  80.500      3.30560E-04
  81.500      3.39040E-04
  82.500      3.49350E-04
  83.500      3.44790E-04
  84.500      3.65190E-04
  85.500      3.73190E-04
  86.500      3.82090E-04
  87.500      3.90140E-04
  88.500      3.98350E-04
  89.500      4.06600E-04
  90.500      4.13400E-04
  91.500      4.17400E-04
  92.500      9.77790E-04
  93.500      1.52710E-03
  94.500      2.45220E-03
  95.500      2.82690E-03
  96.500      3.57920E-03
  97.500      2.34390E-03
  98.500      3.73140E-03
  99.500      3.46580E-03
  100.50      3.76320E-03
  101.50      3.68230E-03
  102.50      2.28350E-03
  103.50      3.57820E-03
  104.50      3.70980E-03
  105.50      3.69810E-03
  106.50      3.60770E-03
  107.50      3.58970E-03
  108.50      3.35970E-03
  109.50      3.59160E-03
  110.50      3.53530E-03
  111.50      3.50830E-03
  112.50      3.42680E-03
  113.50      3.48680E-03
  114.50      3.45320E-03
  115.50      3.41290E-03
  116.50      3.40220E-03
  117.50      3.13200E-03
  118.50      3.33640E-03
  119.50      3.30250E-03
  120.50      3.17900E-03
  121.50      2.08720E-03
  122.50      3.14360E-03
  123.50      3.21400E-03
  124.50      3.17470E-03
  125.50      3.18880E-03
  126.50      3.16740E-03
  127.50      3.14480E-03
  128.50      3.12200E-03
  129.50      3.05650E-03
  130.50      3.05560E-03
  131.50      3.05240E-03
  132.50      3.02660E-03
  133.50      2.98850E-03
  134.50      2.98340E-03
  135.50      2.96180E-03
  136.50      2.93760E-03
  137.50      2.91450E-03
  138.50      2.89450E-03
  139.50      2.81730E-03
  140.50      2.80150E-03
  141.50      2.82850E-03
  142.50      2.80220E-03
  143.50      2.78760E-03
  144.20      2.77440E-03
  144.70      2.76380E-03
  145.50      2.74600E-03
  146.50      2.72670E-03
  147.50      2.70590E-03
  148.50      2.68850E-03
  149.50      2.66720E-03
  150.50      2.64720E-03
  151.20      2.63580E-03
  151.70      2.62520E-03
  152.50      2.60750E-03
  153.50      2.57680E-03
  154.50      2.51420E-03
  155.50      2.50490E-03
  156.50      2.51970E-03
  157.50      2.50880E-03
  158.50      2.49410E-03
  159.50      2.47620E-03
  160.50      2.44690E-03
  161.50      2.42740E-03
  162.50      2.40610E-03
  163.50      2.35150E-03
  164.50      2.24710E-03
  165.50      2.36910E-03
  166.50      2.35230E-03
  167.20      2.33750E-03
  167.70      2.33950E-03
  168.50      2.32490E-03
  169.50      2.30870E-03
  170.50      2.29120E-03
  171.50      2.26330E-03
  172.50      2.24760E-03
  173.50      2.24720E-03
  174.50      2.23020E-03
  175.50      2.21300E-03
  176.50      2.20020E-03
  177.50      2.18580E-03
  178.50      2.17110E-03
  179.50      2.15580E-03
  180.50      2.14200E-03
  181.50      2.12700E-03
  182.50      2.11220E-03
  183.50      2.09900E-03
  184.50      2.08340E-03
  185.50      2.06740E-03
  186.50      2.05390E-03
  187.50      2.04150E-03
  188.50      2.02730E-03
  189.50      2.01330E-03
  190.50      2.00190E-03
  191.50      1.98700E-03
  192.50      1.97040E-03
  193.50      1.96170E-03
  194.50      1.94990E-03
  195.50      1.93520E-03
  196.70      1.92190E-03
  197.60      1.91120E-03
  198.40      1.90060E-03
  199.50      1.88600E-03
  200.50      1.87550E-03
  201.50      1.86360E-03
  202.50      1.85170E-03
  203.50      1.83970E-03
  204.50      1.82790E-03
  205.50      1.56040E-03
  206.50      1.52470E-03
  207.40      1.52650E-03
  207.80      1.53820E-03
  208.50      1.57550E-03
  209.50      1.66870E-03
  210.50      1.74610E-03
  211.50      1.75110E-03
  212.50      1.74090E-03
  213.50      1.72860E-03
  214.50      1.71860E-03
  215.50      1.71620E-03
  216.50      1.68870E-03
  217.50      1.70260E-03
  218.50      1.66510E-03
  219.50      1.68110E-03
  220.50      1.67280E-03
  221.50      1.62990E-03
  222.50      1.65190E-03
  223.50      1.64230E-03
  224.50      1.63090E-03
  225.50      1.58860E-03
  226.50      1.61210E-03
  227.50      1.60220E-03
  228.50      1.59180E-03
  229.50      1.56750E-03
  230.50      1.54070E-03
  231.50      1.56230E-03
  232.50      1.55400E-03
  233.50      1.54460E-03
  234.50      1.53530E-03
  235.50      1.52610E-03
  236.50      1.51690E-03
  237.50      1.50780E-03
  238.50      1.46870E-03
  239.50      1.48880E-03
  240.50      1.48110E-03
  241.50      1.47240E-03
  242.50      1.46370E-03
  243.50      1.45500E-03
  244.50      1.44650E-03
  245.50      1.43800E-03
  246.50      1.42970E-03
  247.50      1.42140E-03
  248.50      1.41320E-03
  249.50      1.37490E-03
  250.50      1.39360E-03
  251.30      1.33410E-03
  251.80      1.38310E-03
  252.50      1.38090E-03
  253.50      1.37310E-03
  254.50      1.36510E-03
  255.50      1.35740E-03
  256.50      1.34990E-03
  257.50      1.34230E-03
  258.50      1.33480E-03
  259.50      1.32720E-03
  260.50      1.32340E-03
  261.50      1.31600E-03
  262.50      1.30870E-03
  263.50      1.30130E-03
  264.50      1.29380E-03
  265.50      1.28600E-03
  266.50      1.27770E-03
  267.50      1.26940E-03
  268.50      1.26590E-03
  269.50      1.25420E-03
  270.50      1.25210E-03
  271.50      1.24530E-03
  272.50      1.23240E-03
  273.50      1.21140E-03
  274.50      1.22510E-03
  275.50      1.21850E-03
  276.50      1.20510E-03
  277.50      1.20550E-03
  278.50      1.19900E-03
  279.50      1.19190E-03
  280.50      1.18620E-03
  281.50      1.18000E-03
  282.50      1.16600E-03
  283.50      1.16330E-03
  284.50      1.16150E-03
  285.50      1.15530E-03
  286.50      1.14930E-03
  287.50      1.14330E-03
  288.50      1.13740E-03
  289.50      1.13140E-03
  291.00      1.12270E-03
  293.00      1.11110E-03
  295.00      1.09370E-03
  297.00      1.08850E-03
  299.00      1.07750E-03
  301.00      1.06670E-03
  303.00      1.05590E-03
  305.00      1.04540E-03
  307.00      1.03510E-03
  309.00      1.02470E-03
  311.00      1.01480E-03
  313.00      1.00540E-03
  315.00      9.95500E-04
  317.00      9.85880E-04
  319.00      9.69520E-04
  321.00      9.59750E-04
  323.00      9.57530E-04
  325.00      9.48280E-04
  327.00      9.39770E-04
  329.00      9.30250E-04
  331.00      9.22360E-04
  333.00      9.13720E-04
  335.00      9.04140E-04
  337.00      8.96910E-04
  339.00      8.88720E-04
  341.00      8.80610E-04
  343.00      8.70480E-04
  345.00      8.60470E-04
  347.00      8.54440E-04
  349.00      8.46820E-04
  351.00      8.39690E-04
  353.00      8.33240E-04
  355.00      8.25360E-04
  357.00      8.21890E-04
  359.00      8.09620E-04
  361.00      8.05360E-04
  363.00      7.95530E-04
  364.00      7.94340E-04
  365.00      7.74370E-04
  367.00      7.69760E-04
  369.00      7.63970E-04
  371.00      7.51730E-04
  373.00      7.43690E-04
  375.00      7.39260E-04
  377.00      7.26210E-04
  379.00      7.41970E-04
  381.00      7.65500E-04
  383.00      6.99040E-04
  385.00      7.82300E-04
  387.00      7.96390E-04
  389.00      6.74360E-04
  391.00      7.91070E-04
  393.00      7.90630E-04
  395.00      7.80150E-04
  397.00      6.49550E-04
  399.00      7.62680E-04
  401.00      7.66340E-04
  403.00      7.34010E-04
  405.00      7.60210E-04
  407.00      7.51110E-04
  409.00      7.02470E-04
  411.00      6.38350E-04
  413.00      7.25980E-04
  415.00      7.24920E-04
  417.00      7.24260E-04
  419.00      7.17540E-04
  421.00      7.10040E-04
  423.00      7.07550E-04
  425.00      7.01740E-04
  427.00      6.95930E-04
  429.00      6.89540E-04
  431.00      6.80280E-04
  433.00      6.28920E-04
  435.00      5.90630E-04
  437.00      6.62640E-04
  439.00      6.48580E-04
  441.00      6.57960E-04
  443.00      6.51690E-04
  445.00      6.48040E-04
  447.00      6.19540E-04
  449.00      6.37580E-04
  451.00      6.33170E-04
  453.00      6.27980E-04
  455.00      6.19160E-04
  457.00      6.18740E-04
  459.00      6.13990E-04
  461.00      6.09390E-04
  463.00      6.04770E-04
  465.00      5.99560E-04
  467.00      5.95670E-04
  469.00      5.81370E-04
  471.00      5.81530E-04
  473.00      5.82650E-04
  475.00      5.78350E-04
  477.00      5.74110E-04
  479.00      5.69900E-04
  481.00      5.64900E-04
  483.00      5.57700E-04
  485.00      5.23060E-04
  487.00      4.83180E-04
  489.00      5.43680E-04
  491.00      5.43560E-04
  493.00      5.30400E-04
  495.00      5.37820E-04
  497.00      5.34070E-04
  499.00      5.30300E-04
  501.00      5.21740E-04
  503.00      5.22870E-04
  505.00      5.17280E-04
  507.00      5.15610E-04
  509.00      5.12030E-04
  511.00      5.08490E-04
  513.00      5.04980E-04
  515.00      5.01520E-04
  517.00      4.98080E-04
  519.00      4.94680E-04
  521.00      4.91320E-04
  523.00      4.87990E-04
  525.00      4.84700E-04
  527.00      4.81440E-04
  529.00      4.78210E-04
  531.00      4.75020E-04
  533.00      4.71850E-04
  535.00      4.68720E-04
  537.00      4.65620E-04
  539.00      4.62540E-04
  541.00      4.56350E-04
  543.00      4.56490E-04
  545.00      4.53510E-04
  547.00      4.50560E-04
  549.00      4.47640E-04
  551.00      4.44740E-04
  553.00      4.41870E-04
  555.00      4.39030E-04
  557.00      4.36220E-04
  559.00      4.33420E-04
  561.00      4.30670E-04
  563.00      4.27930E-04
  565.00      4.25220E-04
  567.00      4.22540E-04
  569.00      4.19050E-04
  571.00      4.13000E-04
  573.00      4.10490E-04
  575.00      4.07980E-04
  577.00      4.05530E-04
  579.00      4.03080E-04
  581.00      4.00660E-04
  583.00      3.98270E-04
  585.00      3.95900E-04
  587.00      3.84170E-04
  589.00      3.90750E-04
  591.00      3.89470E-04
  593.00      3.87460E-04
  595.00      3.85470E-04
  597.00      3.83530E-04
  599.00      3.81630E-04
  601.00      3.79710E-04
  603.00      3.78290E-04
  605.00      3.76100E-04
  607.00      3.73880E-04
  609.00      3.71670E-04
  611.00      3.69470E-04
  613.00      3.67300E-04
  615.00      3.65150E-04
  617.00      3.63010E-04
  619.00      3.60900E-04
  621.00      3.58800E-04
  623.00      3.56720E-04
  625.00      3.54660E-04
  627.00      3.52620E-04
  629.00      3.50590E-04
  631.00      3.48580E-04
  633.00      3.46590E-04
  635.00      3.44620E-04
  637.00      3.42660E-04
  639.00      3.40720E-04
  641.00      3.38790E-04
  643.00      3.36890E-04
  645.00      3.34990E-04
  647.00      3.33120E-04
  649.00      3.31250E-04
  651.00      3.29110E-04
  653.00      3.25710E-04
  655.00      3.14440E-04
  657.00      2.88510E-04
  659.00      3.19040E-04
  661.00      3.19800E-04
  663.00      3.18650E-04
  665.00      3.17020E-04
  667.00      3.12500E-04
  669.00      3.10540E-04
  671.00      3.11870E-04
  673.00      3.10190E-04
  675.00      3.08520E-04
  677.00      3.06860E-04
  679.00      3.05210E-04
  681.00      3.03580E-04
  683.00      3.01960E-04
  685.00      3.00350E-04
  687.00      2.98760E-04
  689.00      2.96980E-04
  691.00      2.95610E-04
  693.00      2.94050E-04
  695.00      2.92510E-04
  697.00      2.90980E-04
  699.00      2.89460E-04
  701.00      2.87950E-04
  703.00      2.86450E-04
  705.00      2.84970E-04
  707.00      2.80120E-04
  709.00      2.82040E-04
  711.00      2.80590E-04
  713.00      2.79150E-04
  715.00      2.77720E-04
  717.00      2.76090E-04
  719.00      2.74790E-04
  721.00      2.73500E-04
  723.00      2.72110E-04
  725.00      2.70740E-04
  727.00      2.69380E-04
  729.00      2.66400E-04
  731.00      2.66670E-04
  733.00      2.65350E-04
  735.00      2.64030E-04
  737.00      2.62710E-04
  739.00      2.61410E-04
  741.00      2.60120E-04
  743.00      2.58830E-04
  745.00      2.57580E-04
  747.00      2.56310E-04
  749.00      2.55060E-04
  751.00      2.53760E-04
  753.00      2.52570E-04
  755.00      2.51340E-04
  757.00      2.50120E-04
  759.00      2.48600E-04
  761.00      2.47710E-04
  763.00      2.46520E-04
  765.00      2.45330E-04
  767.00      2.44160E-04
  769.00      2.42990E-04
  771.00      2.41830E-04
  773.00      2.40670E-04
  775.00      2.39530E-04
  777.00      2.38400E-04
  779.00      2.37270E-04
  781.00      2.36080E-04
  783.00      2.35040E-04
  785.00      2.34070E-04
  787.00      2.32970E-04
  789.00      2.31880E-04
  791.00      2.30810E-04
  793.00      2.29730E-04
  795.00      2.28670E-04
  797.00      2.27560E-04
  799.00      2.26550E-04
  801.00      2.25510E-04
  803.00      2.24470E-04
  805.00      2.23440E-04
  807.00      2.22420E-04
  809.00      2.21240E-04
  811.00      2.20250E-04
  813.00      2.19350E-04
  815.00      2.18180E-04
  817.00      2.17370E-04
  819.00      2.16110E-04
  821.00      2.14240E-04
  823.00      2.13190E-04
  825.00      2.12530E-04
  827.00      2.11240E-04
  829.00      2.10750E-04
  831.00      2.09880E-04
  833.00      2.08880E-04
  835.00      2.07460E-04
  837.00      2.06920E-04
  839.00      2.06180E-04
  841.00      2.05290E-04
  843.00      2.04320E-04
  845.00      2.02680E-04
  847.00      2.02590E-04
  849.00      2.01510E-04
  851.00      2.00840E-04
  853.00      1.99630E-04
  855.00      1.98840E-04
  857.00      1.98410E-04
  859.00      1.95590E-04
  861.00      1.95990E-04
  863.00      1.96360E-04
  865.00      1.93880E-04
  867.00      1.91400E-04
  869.00      1.93840E-04
  871.00      1.94050E-04
  873.00      1.90800E-04
  875.00      1.85010E-04
  877.00      1.88000E-04
  879.00      1.91210E-04
  881.00      1.91170E-04
  883.00      1.89470E-04
  885.00      1.82150E-04
  887.00      1.76870E-04
  889.00      1.85480E-04
  891.00      1.87480E-04
  893.00      1.87310E-04
  895.00      1.86850E-04
  897.00      1.85450E-04
  899.00      1.81090E-04
  901.00      1.69530E-04
  903.00      1.73460E-04
  905.00      1.80780E-04
  907.00      1.80650E-04
  909.00      1.81490E-04
  911.00      1.81270E-04
  913.00      1.80610E-04
  915.00      1.79760E-04
  917.00      1.78410E-04
  919.00      1.76740E-04
  921.00      1.70190E-04
  923.00      1.58040E-04
  925.00      1.68600E-04
  927.00      1.73610E-04
  929.00      1.74290E-04
  931.00      1.73540E-04
  933.00      1.73680E-04
  935.00      1.72200E-04
  937.00      1.72350E-04
  939.00      1.71660E-04
  941.00      1.70970E-04
  943.00      1.70290E-04
  945.00      1.69540E-04
  947.00      1.67800E-04
  949.00      1.67400E-04
  951.00      1.64430E-04
  953.00      1.57950E-04
  955.00      1.46970E-04
  957.00      1.59280E-04
  959.00      1.63120E-04
  961.00      1.63360E-04
  963.00      1.62770E-04
  965.00      1.63030E-04
  967.00      1.62390E-04
  969.00      1.61660E-04
  971.00      1.60800E-04
  973.00      1.60500E-04
  975.00      1.59880E-04
  977.00      1.59260E-04
  979.00      1.58650E-04
  981.00      1.58040E-04
  983.00      1.57430E-04
  985.00      1.56820E-04
  987.00      1.56220E-04
  989.00      1.55620E-04
  991.00      1.55030E-04
  993.00      1.54440E-04
  995.00      1.53850E-04
  997.00      1.52980E-04
  999.00      1.52000E-04
  1002.5      1.45250E-04
  1007.5      1.42450E-04
  1012.5      1.47520E-04
  1017.5      1.47470E-04
  1022.5      1.46070E-04
  1027.5      1.44760E-04
  1032.5      1.42950E-04
  1037.5      1.42130E-04
  1042.5      1.40830E-04
  1047.5      1.39560E-04
  1052.5      1.38300E-04
  1057.5      1.37060E-04
  1062.5      1.35840E-04
  1067.5      1.34460E-04
  1072.5      1.33440E-04
  1077.5      1.32270E-04
  1082.5      1.30140E-04
  1087.5      1.29260E-04
  1092.5      1.19800E-04
  1097.5      1.24350E-04
  1102.5      1.25850E-04
  1107.5      1.25400E-04
  1112.5      1.24460E-04
  1117.5      1.23400E-04
  1122.5      1.22320E-04
  1127.5      1.21320E-04
  1132.5      1.20310E-04
  1137.5      1.19300E-04
  1142.5      1.18310E-04
  1147.5      1.17320E-04
  1152.5      1.16350E-04
  1157.5      1.15400E-04
  1162.5      1.14290E-04
  1167.5      1.13510E-04
  1172.5      1.12590E-04
  1177.5      1.11680E-04
  1182.5      1.10780E-04
  1187.5      1.09890E-04
  1192.5      1.09010E-04
  1197.5      1.07140E-04
  1202.5      1.07290E-04
  1207.5      1.06440E-04
  1212.5      1.05600E-04
  1217.5      1.04770E-04
  1222.5      1.03960E-04
  1227.5      1.03150E-04
  1232.5      1.02350E-04
  1237.5      1.01560E-04
  1242.5      1.00780E-04
  1247.5      1.00000E-04
  1252.5      9.90880E-05
  1257.5      9.84870E-05
  1262.5      9.77400E-05
  1267.5      9.70020E-05
  1272.5      9.61200E-05
  1277.5      9.37860E-05
  1282.5      8.81810E-05
  1287.5      9.32480E-05
  1292.5      9.33300E-05
  1297.5      9.22100E-05
  1302.5      9.20660E-05
  1307.5      9.13920E-05
  1312.5      9.07250E-05
  1317.5      9.00650E-05
  1322.5      8.94130E-05
  1327.5      8.87670E-05
  1332.5      8.81280E-05
  1337.5      8.74970E-05
  1342.5      8.68230E-05
  1347.5      8.62530E-05
  1352.5      8.56420E-05
  1357.5      8.50360E-05
  1362.5      8.44370E-05
  1367.5      8.38450E-05
  1372.5      8.32580E-05
  1377.5      8.26780E-05
  1382.5      8.21040E-05
  1387.5      8.15360E-05
  1392.5      8.09740E-05
  1397.5      8.04170E-05
