 Castelli and Kurucz 2004-2012 Atmosphere
 T     48000.     G    5.00000 [-2.5a] N(He)/Ntot=0.0784 VTURB=2  L/H=1.25 NOVE
 Wavelength  Eddington Hnu
   (nm)    (ergs/s/cm2/Hz/sr)
  9.0900      8.42680E-19
  9.3500      2.38910E-18
  9.6100      6.41120E-18
  9.7700      1.14900E-17
  9.9600      2.24300E-17
  10.200      5.04920E-17
  10.380      9.06990E-17
  10.560      1.59910E-16
  10.770      3.02990E-16
  11.040      6.66420E-16
  11.400      1.80530E-15
  11.780      4.86620E-15
  12.130      1.15240E-14
  12.480      2.60850E-14
  12.710      4.36160E-14
  12.840      5.78930E-14
  13.050      9.04150E-14
  13.240      1.33820E-13
  13.390      1.81020E-13
  13.660      3.07110E-13
  13.980      5.60860E-13
  14.330      1.05250E-12
  14.720      2.04960E-12
  15.100      3.81320E-12
  15.520      7.31180E-12
  15.880      1.24480E-11
  16.200      1.96230E-11
  16.600      3.38160E-11
  17.030      5.89700E-11
  17.340      8.66600E-11
  17.680      1.30370E-10
  18.020      1.93030E-10
  18.170      2.27810E-10
  18.610      3.68840E-10
  19.100      6.12710E-10
  19.390      8.18430E-10
  19.840      1.25980E-09
  20.180      1.72350E-09
  20.500      2.29250E-09
  21.050      3.66910E-09
  21.620      5.82380E-09
  21.980      7.70160E-09
  22.300      9.79520E-09
  22.680      1.29090E-08
  23.000      2.29930E-07
  23.400      1.19750E-06
  24.000      1.39430E-05
  24.650      1.10690E-04
  25.240      2.43810E-04
  25.680      1.60080E-04
  26.000      3.88270E-04
  26.400      5.03630E-04
  26.850      5.82690E-04
  27.350      6.75590E-04
  27.850      7.10270E-04
  28.400      7.87800E-04
  29.000      8.68470E-04
  29.600      7.94970E-04
  30.100      3.74030E-04
  30.800      5.32070E-04
  31.800      8.62960E-04
  32.800      9.56620E-04
  33.800      9.66560E-04
  34.800      1.01540E-03
  35.700      1.15620E-03
  36.600      1.25370E-03
  37.500      1.29880E-03
  38.500      1.25300E-03
  39.500      1.40260E-03
  40.500      1.49080E-03
  41.400      1.53030E-03
  42.200      1.52800E-03
  43.000      1.56930E-03
  44.100      1.65290E-03
  45.100      1.69090E-03
  46.000      1.68940E-03
  47.000      1.71730E-03
  48.000      1.78200E-03
  49.000      1.76840E-03
  50.000      1.86590E-03
  50.600      1.84870E-03
  51.200      2.07620E-03
  52.000      2.08860E-03
  53.000      2.14730E-03
  54.000      2.10910E-03
  55.000      2.10790E-03
  56.000      2.23700E-03
  57.000      2.29590E-03
  58.000      2.29940E-03
  59.000      2.35840E-03
  60.000      2.34950E-03
  61.000      2.32410E-03
  62.000      2.40980E-03
  63.000      2.41840E-03
  64.000      2.48360E-03
  65.000      2.48110E-03
  65.800      2.44900E-03
  66.500      2.52980E-03
  67.500      2.56900E-03
  68.500      2.54010E-03
  69.500      2.61580E-03
  70.500      2.55760E-03
  71.600      2.65430E-03
  72.600      2.68510E-03
  73.500      2.70240E-03
  74.500      2.70790E-03
  75.500      2.71330E-03
  76.500      2.70340E-03
  77.500      2.75820E-03
  78.500      2.74490E-03
  79.500      2.76660E-03
  80.500      2.79860E-03
  81.500      2.81470E-03
  82.500      2.83910E-03
  83.500      2.77920E-03
  84.500      2.85610E-03
  85.500      2.84780E-03
  86.500      2.88480E-03
  87.500      2.89960E-03
  88.500      2.90490E-03
  89.500      2.91180E-03
  90.500      2.89190E-03
  91.500      2.26310E-03
  92.500      3.58100E-03
  93.500      4.48080E-03
  94.500      5.56830E-03
  95.500      6.06220E-03
  96.500      6.92830E-03
  97.500      5.64930E-03
  98.500      6.92650E-03
  99.500      6.48870E-03
  100.50      6.89900E-03
  101.50      6.80740E-03
  102.50      5.46760E-03
  103.50      6.68110E-03
  104.50      6.71580E-03
  105.50      6.66840E-03
  106.50      6.55520E-03
  107.50      6.53570E-03
  108.50      6.15710E-03
  109.50      6.44890E-03
  110.50      6.38190E-03
  111.50      6.32520E-03
  112.50      6.22000E-03
  113.50      6.23760E-03
  114.50      6.18640E-03
  115.50      6.10740E-03
  116.50      6.05210E-03
  117.50      5.85060E-03
  118.50      5.97410E-03
  119.50      5.90710E-03
  120.50      5.84020E-03
  121.50      4.79230E-03
  122.50      5.72940E-03
  123.50      5.68280E-03
  124.50      5.63500E-03
  125.50      5.63860E-03
  126.50      5.59150E-03
  127.50      5.54510E-03
  128.50      5.49880E-03
  129.50      5.45280E-03
  130.50      5.40530E-03
  131.50      5.36120E-03
  132.50      5.31290E-03
  133.50      5.27270E-03
  134.50      5.23110E-03
  135.50      5.18310E-03
  136.50      5.13310E-03
  137.50      5.06470E-03
  138.50      5.05050E-03
  139.50      4.97770E-03
  140.50      4.92280E-03
  141.50      4.93190E-03
  142.50      4.89090E-03
  143.50      4.85500E-03
  144.20      4.81560E-03
  144.70      4.79950E-03
  145.50      4.76740E-03
  146.50      4.73010E-03
  147.50      4.69830E-03
  148.50      4.66680E-03
  149.50      4.62840E-03
  150.50      4.59330E-03
  151.20      4.56870E-03
  151.70      4.54810E-03
  152.50      4.52070E-03
  153.50      4.48090E-03
  154.50      4.37500E-03
  155.50      4.34900E-03
  156.50      4.37490E-03
  157.50      4.34360E-03
  158.50      4.30790E-03
  159.50      4.27550E-03
  160.50      4.23900E-03
  161.50      4.20660E-03
  162.50      4.16860E-03
  163.50      4.05300E-03
  164.50      3.87460E-03
  165.50      4.08170E-03
  166.50      4.05190E-03
  167.20      4.02640E-03
  167.70      4.01600E-03
  168.50      3.99180E-03
  169.50      3.96210E-03
  170.50      3.93160E-03
  171.50      3.87500E-03
  172.50      3.86500E-03
  173.50      3.84520E-03
  174.50      3.81580E-03
  175.50      3.78710E-03
  176.50      3.75970E-03
  177.50      3.73260E-03
  178.50      3.70530E-03
  179.50      3.67780E-03
  180.50      3.65100E-03
  181.50      3.62450E-03
  182.50      3.59810E-03
  183.50      3.57220E-03
  184.50      3.54630E-03
  185.50      3.52050E-03
  186.50      3.49530E-03
  187.50      3.47020E-03
  188.50      3.44540E-03
  189.50      3.42130E-03
  190.50      3.39710E-03
  191.50      3.37290E-03
  192.50      3.34770E-03
  193.50      3.32570E-03
  194.50      3.30250E-03
  195.50      3.27940E-03
  196.70      3.25200E-03
  197.60      3.23150E-03
  198.40      3.21380E-03
  199.50      3.18930E-03
  200.50      3.16750E-03
  201.50      3.14580E-03
  202.50      3.12430E-03
  203.50      3.10300E-03
  204.50      3.08160E-03
  205.50      2.38970E-03
  206.50      2.30870E-03
  207.40      2.34200E-03
  207.80      2.38560E-03
  208.50      2.50740E-03
  209.50      2.77580E-03
  210.50      2.94020E-03
  211.50      2.94740E-03
  212.50      2.92960E-03
  213.50      2.90320E-03
  214.50      2.88950E-03
  215.50      2.91420E-03
  216.50      2.82500E-03
  217.50      2.90050E-03
  218.50      2.78380E-03
  219.50      2.86320E-03
  220.50      2.85140E-03
  221.50      2.72320E-03
  222.50      2.81430E-03
  223.50      2.79930E-03
  224.50      2.77610E-03
  225.50      2.65570E-03
  226.50      2.74470E-03
  227.50      2.72760E-03
  228.50      2.70960E-03
  229.50      2.68430E-03
  230.50      2.57570E-03
  231.50      2.65380E-03
  232.50      2.64150E-03
  233.50      2.62480E-03
  234.50      2.60820E-03
  235.50      2.59180E-03
  236.50      2.57550E-03
  237.50      2.55910E-03
  238.50      2.45180E-03
  239.50      2.52460E-03
  240.50      2.51160E-03
  241.50      2.49590E-03
  242.50      2.48090E-03
  243.50      2.46550E-03
  244.50      2.45040E-03
  245.50      2.43490E-03
  246.50      2.42060E-03
  247.50      2.40580E-03
  248.50      2.39120E-03
  249.50      2.34950E-03
  250.50      2.34900E-03
  251.30      2.18430E-03
  251.80      2.33670E-03
  252.50      2.33320E-03
  253.50      2.32010E-03
  254.50      2.30630E-03
  255.50      2.29260E-03
  256.50      2.27900E-03
  257.50      2.26560E-03
  258.50      2.25220E-03
  259.50      2.23820E-03
  260.50      2.22610E-03
  261.50      2.21290E-03
  262.50      2.20020E-03
  263.50      2.18740E-03
  264.50      2.17470E-03
  265.50      2.16220E-03
  266.50      2.14970E-03
  267.50      2.13670E-03
  268.50      2.12500E-03
  269.50      2.11250E-03
  270.50      2.10090E-03
  271.50      2.08890E-03
  272.50      2.07530E-03
  273.50      1.99810E-03
  274.50      2.05360E-03
  275.50      2.04210E-03
  276.50      2.02990E-03
  277.50      2.01930E-03
  278.50      2.00800E-03
  279.50      1.99670E-03
  280.50      1.98570E-03
  281.50      1.97470E-03
  282.50      1.96310E-03
  283.50      1.95270E-03
  284.50      1.94230E-03
  285.50      1.93170E-03
  286.50      1.92110E-03
  287.50      1.91060E-03
  288.50      1.90020E-03
  289.50      1.88990E-03
  291.00      1.87460E-03
  293.00      1.85450E-03
  295.00      1.83400E-03
  297.00      1.81510E-03
  299.00      1.79570E-03
  301.00      1.77700E-03
  303.00      1.75820E-03
  305.00      1.73990E-03
  307.00      1.72190E-03
  309.00      1.70440E-03
  311.00      1.68690E-03
  313.00      1.66970E-03
  315.00      1.65280E-03
  317.00      1.63610E-03
  319.00      1.61770E-03
  321.00      1.57680E-03
  323.00      1.58760E-03
  325.00      1.57190E-03
  327.00      1.55580E-03
  329.00      1.54100E-03
  331.00      1.52600E-03
  333.00      1.51120E-03
  335.00      1.49630E-03
  337.00      1.48220E-03
  339.00      1.46800E-03
  341.00      1.45390E-03
  343.00      1.44050E-03
  345.00      1.42650E-03
  347.00      1.41340E-03
  349.00      1.40020E-03
  351.00      1.38710E-03
  353.00      1.37400E-03
  355.00      1.36120E-03
  357.00      1.34910E-03
  359.00      1.33610E-03
  361.00      1.32430E-03
  363.00      1.31170E-03
  364.00      1.28120E-03
  365.00      1.17560E-03
  367.00      1.16660E-03
  369.00      1.15890E-03
  371.00      1.15660E-03
  373.00      1.16110E-03
  375.00      1.17350E-03
  377.00      1.18540E-03
  379.00      1.20290E-03
  381.00      1.22040E-03
  383.00      1.17270E-03
  385.00      1.21510E-03
  387.00      1.22180E-03
  389.00      1.12850E-03
  391.00      1.20460E-03
  393.00      1.19140E-03
  395.00      1.18710E-03
  397.00      1.08780E-03
  399.00      1.16500E-03
  401.00      1.16210E-03
  403.00      1.13200E-03
  405.00      1.14610E-03
  407.00      1.13480E-03
  409.00      1.09700E-03
  411.00      1.04190E-03
  413.00      1.10450E-03
  415.00      1.09830E-03
  417.00      1.09000E-03
  419.00      1.07450E-03
  421.00      1.05540E-03
  423.00      1.06340E-03
  425.00      1.05480E-03
  427.00      1.04620E-03
  429.00      1.03770E-03
  431.00      1.02750E-03
  433.00      9.87100E-04
  435.00      9.53470E-04
  437.00      1.00210E-03
  439.00      9.95220E-04
  441.00      9.89020E-04
  443.00      9.81140E-04
  445.00      9.73540E-04
  447.00      9.60180E-04
  449.00      9.58410E-04
  451.00      9.50980E-04
  453.00      9.41300E-04
  455.00      9.18120E-04
  457.00      9.29190E-04
  459.00      9.22100E-04
  461.00      9.15080E-04
  463.00      9.08100E-04
  465.00      9.01100E-04
  467.00      8.93330E-04
  469.00      8.57910E-04
  471.00      8.80040E-04
  473.00      8.74620E-04
  475.00      8.68140E-04
  477.00      8.61730E-04
  479.00      8.55380E-04
  481.00      8.49100E-04
  483.00      8.41420E-04
  485.00      8.15440E-04
  487.00      7.78780E-04
  489.00      8.21940E-04
  491.00      8.18760E-04
  493.00      8.10570E-04
  495.00      8.07090E-04
  497.00      8.01340E-04
  499.00      7.95650E-04
  501.00      7.88990E-04
  503.00      7.84460E-04
  505.00      7.78760E-04
  507.00      7.73500E-04
  509.00      7.68100E-04
  511.00      7.62760E-04
  513.00      7.57480E-04
  515.00      7.52250E-04
  517.00      7.47080E-04
  519.00      7.41960E-04
  521.00      7.36890E-04
  523.00      7.31870E-04
  525.00      7.26900E-04
  527.00      7.21970E-04
  529.00      7.17110E-04
  531.00      7.12290E-04
  533.00      7.07520E-04
  535.00      7.02800E-04
  537.00      6.98120E-04
  539.00      6.93480E-04
  541.00      6.74900E-04
  543.00      6.84050E-04
  545.00      6.79870E-04
  547.00      6.75420E-04
  549.00      6.71020E-04
  551.00      6.66650E-04
  553.00      6.62330E-04
  555.00      6.58050E-04
  557.00      6.53810E-04
  559.00      6.49580E-04
  561.00      6.45460E-04
  563.00      6.41340E-04
  565.00      6.37260E-04
  567.00      6.33220E-04
  569.00      6.22110E-04
  571.00      5.86720E-04
  573.00      5.83300E-04
  575.00      5.79920E-04
  577.00      5.76610E-04
  579.00      5.73450E-04
  581.00      5.70510E-04
  583.00      5.68190E-04
  585.00      5.66290E-04
  587.00      5.62550E-04
  589.00      5.63680E-04
  591.00      5.63040E-04
  593.00      5.62680E-04
  595.00      5.62750E-04
  597.00      5.63100E-04
  599.00      5.64180E-04
  601.00      5.63670E-04
  603.00      5.63320E-04
  605.00      5.62650E-04
  607.00      5.59300E-04
  609.00      5.56500E-04
  611.00      5.53560E-04
  613.00      5.50620E-04
  615.00      5.48060E-04
  617.00      5.43150E-04
  619.00      5.41430E-04
  621.00      5.38470E-04
  623.00      5.33440E-04
  625.00      5.31690E-04
  627.00      5.29140E-04
  629.00      5.26080E-04
  631.00      5.20340E-04
  633.00      5.19680E-04
  635.00      5.17070E-04
  637.00      5.14110E-04
  639.00      5.10810E-04
  641.00      5.04740E-04
  643.00      5.05350E-04
  645.00      5.02550E-04
  647.00      4.99710E-04
  649.00      4.96900E-04
  651.00      4.93490E-04
  653.00      4.86100E-04
  655.00      4.81210E-04
  657.00      4.55960E-04
  659.00      4.81630E-04
  661.00      4.80540E-04
  663.00      4.77890E-04
  665.00      4.75280E-04
  667.00      4.70930E-04
  669.00      4.63890E-04
  671.00      4.67490E-04
  673.00      4.64990E-04
  675.00      4.62460E-04
  677.00      4.59960E-04
  679.00      4.57480E-04
  681.00      4.55020E-04
  683.00      4.52580E-04
  685.00      4.50160E-04
  687.00      4.47740E-04
  689.00      4.39090E-04
  691.00      4.42540E-04
  693.00      4.40660E-04
  695.00      4.38340E-04
  697.00      4.36030E-04
  699.00      4.33740E-04
  701.00      4.31470E-04
  703.00      4.29220E-04
  705.00      4.26980E-04
  707.00      4.23730E-04
  709.00      4.22560E-04
  711.00      4.20370E-04
  713.00      4.18210E-04
  715.00      4.16050E-04
  717.00      4.09670E-04
  719.00      4.09020E-04
  721.00      4.09700E-04
  723.00      4.07610E-04
  725.00      4.05550E-04
  727.00      4.03490E-04
  729.00      4.01150E-04
  731.00      3.99430E-04
  733.00      3.97420E-04
  735.00      3.95430E-04
  737.00      3.93450E-04
  739.00      3.91490E-04
  741.00      3.89540E-04
  743.00      3.87610E-04
  745.00      3.85690E-04
  747.00      3.83780E-04
  749.00      3.81890E-04
  751.00      3.80010E-04
  753.00      3.78150E-04
  755.00      3.76300E-04
  757.00      3.74460E-04
  759.00      3.66350E-04
  761.00      3.70280E-04
  763.00      3.69030E-04
  765.00      3.67250E-04
  767.00      3.65480E-04
  769.00      3.63720E-04
  771.00      3.61980E-04
  773.00      3.60240E-04
  775.00      3.58520E-04
  777.00      3.56820E-04
  779.00      3.55120E-04
  781.00      3.53440E-04
  783.00      3.51770E-04
  785.00      3.50120E-04
  787.00      3.48470E-04
  789.00      3.46830E-04
  791.00      3.45210E-04
  793.00      3.43590E-04
  795.00      3.41990E-04
  797.00      3.40400E-04
  799.00      3.38820E-04
  801.00      3.37250E-04
  803.00      3.35690E-04
  805.00      3.34140E-04
  807.00      3.32600E-04
  809.00      3.31070E-04
  811.00      3.29560E-04
  813.00      3.28050E-04
  815.00      3.26560E-04
  817.00      3.25070E-04
  819.00      3.22310E-04
  821.00      3.10020E-04
  823.00      3.06860E-04
  825.00      3.06880E-04
  827.00      3.06030E-04
  829.00      3.04750E-04
  831.00      3.03450E-04
  833.00      3.02160E-04
  835.00      3.00870E-04
  837.00      2.99630E-04
  839.00      2.98400E-04
  841.00      2.97230E-04
  843.00      2.96060E-04
  845.00      2.94880E-04
  847.00      2.93850E-04
  849.00      2.92880E-04
  851.00      2.91890E-04
  853.00      2.90970E-04
  855.00      2.89900E-04
  857.00      2.89200E-04
  859.00      2.88060E-04
  861.00      2.87260E-04
  863.00      2.86850E-04
  865.00      2.85770E-04
  867.00      2.84190E-04
  869.00      2.84560E-04
  871.00      2.84120E-04
  873.00      2.82970E-04
  875.00      2.79930E-04
  877.00      2.81090E-04
  879.00      2.81610E-04
  881.00      2.81240E-04
  883.00      2.80390E-04
  885.00      2.76810E-04
  887.00      2.72870E-04
  889.00      2.76740E-04
  891.00      2.77090E-04
  893.00      2.76450E-04
  895.00      2.75630E-04
  897.00      2.74210E-04
  899.00      2.71530E-04
  901.00      2.63810E-04
  903.00      2.65590E-04
  905.00      2.68930E-04
  907.00      2.68640E-04
  909.00      2.68060E-04
  911.00      2.66670E-04
  913.00      2.66210E-04
  915.00      2.65120E-04
  917.00      2.63730E-04
  919.00      2.61860E-04
  921.00      2.58090E-04
  923.00      2.48610E-04
  925.00      2.55370E-04
  927.00      2.57500E-04
  929.00      2.57360E-04
  931.00      2.56500E-04
  933.00      2.55010E-04
  935.00      2.48780E-04
  937.00      2.52460E-04
  939.00      2.52350E-04
  941.00      2.51490E-04
  943.00      2.50490E-04
  945.00      2.49490E-04
  947.00      2.48390E-04
  949.00      2.47240E-04
  951.00      2.45200E-04
  953.00      2.40910E-04
  955.00      2.31450E-04
  957.00      2.40140E-04
  959.00      2.41720E-04
  961.00      2.41560E-04
  963.00      2.40700E-04
  965.00      2.39820E-04
  967.00      2.38890E-04
  969.00      2.37950E-04
  971.00      2.37010E-04
  973.00      2.36110E-04
  975.00      2.34840E-04
  977.00      2.33050E-04
  979.00      2.33380E-04
  981.00      2.32490E-04
  983.00      2.31590E-04
  985.00      2.30710E-04
  987.00      2.29820E-04
  989.00      2.28950E-04
  991.00      2.28070E-04
  993.00      2.27200E-04
  995.00      2.26340E-04
  997.00      2.25480E-04
  999.00      2.24500E-04
  1002.5      2.19390E-04
  1007.5      2.15860E-04
  1012.5      2.15540E-04
  1017.5      2.16960E-04
  1022.5      2.14960E-04
  1027.5      2.12980E-04
  1032.5      2.10950E-04
  1037.5      2.09100E-04
  1042.5      2.06190E-04
  1047.5      2.05340E-04
  1052.5      2.03490E-04
  1057.5      2.01670E-04
  1062.5      1.99870E-04
  1067.5      1.98090E-04
  1072.5      1.96350E-04
  1077.5      1.94620E-04
  1082.5      1.92600E-04
  1087.5      1.91020E-04
  1092.5      1.83360E-04
  1097.5      1.86100E-04
  1102.5      1.86280E-04
  1107.5      1.84720E-04
  1112.5      1.83140E-04
  1117.5      1.81680E-04
  1122.5      1.80140E-04
  1127.5      1.78620E-04
  1132.5      1.77120E-04
  1137.5      1.75640E-04
  1142.5      1.74180E-04
  1147.5      1.72740E-04
  1152.5      1.71310E-04
  1157.5      1.69900E-04
  1162.5      1.66680E-04
  1167.5      1.65850E-04
  1172.5      1.65770E-04
  1177.5      1.64430E-04
  1182.5      1.63110E-04
  1187.5      1.61800E-04
  1192.5      1.60510E-04
  1197.5      1.59110E-04
  1202.5      1.57960E-04
  1207.5      1.56720E-04
  1212.5      1.55480E-04
  1217.5      1.54260E-04
  1222.5      1.53060E-04
  1227.5      1.51870E-04
  1232.5      1.50690E-04
  1237.5      1.49530E-04
  1242.5      1.48380E-04
  1247.5      1.47240E-04
  1252.5      1.46100E-04
  1257.5      1.45000E-04
  1262.5      1.43910E-04
  1267.5      1.42820E-04
  1272.5      1.41740E-04
  1277.5      1.39950E-04
  1282.5      1.34540E-04
  1287.5      1.38230E-04
  1292.5      1.37570E-04
  1297.5      1.36520E-04
  1302.5      1.35550E-04
  1307.5      1.34550E-04
  1312.5      1.33570E-04
  1317.5      1.32600E-04
  1322.5      1.31640E-04
  1327.5      1.30690E-04
  1332.5      1.29750E-04
  1337.5      1.28820E-04
  1342.5      1.27890E-04
  1347.5      1.26990E-04
  1352.5      1.26080E-04
  1357.5      1.25190E-04
  1362.5      1.24310E-04
  1367.5      1.23440E-04
  1372.5      1.22570E-04
  1377.5      1.21720E-04
  1382.5      1.20870E-04
  1387.5      1.20040E-04
  1392.5      1.19210E-04
  1397.5      1.18390E-04
