 Castelli and Kurucz 2004-2012 Atmosphere
 T     40000.     G    4.50000 [-2.5a] N(He)/Ntot=0.0784 VTURB=2  L/H=1.25 NOVE
 Wavelength  Eddington Hnu
   (nm)    (ergs/s/cm2/Hz/sr)
  9.0900      2.68070E-23
  9.3500      1.00360E-22
  9.6100      3.52530E-22
  9.7700      7.41990E-22
  9.9600      1.74670E-21
  10.200      4.94910E-21
  10.380      1.05170E-20
  10.560      2.18530E-20
  10.770      4.99040E-20
  11.040      1.38530E-19
  11.400      5.05350E-19
  11.780      1.83570E-18
  12.130      5.64390E-18
  12.480      1.63780E-17
  12.710      3.20290E-17
  12.840      4.63310E-17
  13.050      8.28940E-17
  13.240      1.38240E-16
  13.390      2.05020E-16
  13.660      4.08460E-16
  13.980      8.94670E-16
  14.330      2.02910E-15
  14.720      4.83460E-15
  15.100      1.08070E-14
  15.520      2.51350E-14
  15.880      5.00250E-14
  16.200      8.99500E-14
  16.600      1.81490E-13
  17.030      3.72070E-13
  17.340      6.10650E-13
  17.680      1.03050E-12
  18.020      1.70410E-12
  18.170      2.11410E-12
  18.610      3.90490E-12
  19.100      7.47490E-12
  19.390      1.08070E-11
  19.840      1.87300E-11
  20.180      2.79000E-11
  20.500      4.00960E-11
  21.050      7.28440E-11
  21.620      1.30890E-10
  21.980      1.86470E-10
  22.300      2.52790E-10
  22.680      3.58540E-10
  23.000      1.13550E-08
  23.400      4.39860E-08
  24.000      1.24440E-07
  24.650      1.46730E-06
  25.240      5.41410E-06
  25.680      3.35670E-06
  26.000      1.69570E-05
  26.400      2.96800E-05
  26.850      4.37210E-05
  27.350      5.85770E-05
  27.850      6.51380E-05
  28.400      8.27380E-05
  29.000      9.35150E-05
  29.600      6.89860E-05
  30.100      1.11460E-05
  30.800      3.95890E-05
  31.800      1.03800E-04
  32.800      1.28230E-04
  33.800      1.34900E-04
  34.800      1.49090E-04
  35.700      1.74870E-04
  36.600      1.95620E-04
  37.500      2.05850E-04
  38.500      2.04950E-04
  39.500      2.32090E-04
  40.500      2.49870E-04
  41.400      2.61280E-04
  42.200      2.63110E-04
  43.000      2.70130E-04
  44.100      2.91490E-04
  45.100      3.03410E-04
  46.000      3.08230E-04
  47.000      3.21890E-04
  48.000      3.39540E-04
  49.000      3.42740E-04
  50.000      3.70030E-04
  50.600      4.94970E-04
  51.200      7.30840E-04
  52.000      7.41350E-04
  53.000      7.67930E-04
  54.000      7.52490E-04
  55.000      7.72270E-04
  56.000      8.40960E-04
  57.000      8.73090E-04
  58.000      8.76100E-04
  59.000      9.16330E-04
  60.000      9.17390E-04
  61.000      9.20440E-04
  62.000      9.75660E-04
  63.000      9.91700E-04
  64.000      1.02480E-03
  65.000      1.03280E-03
  65.800      1.02430E-03
  66.500      1.06470E-03
  67.500      1.09960E-03
  68.500      1.09020E-03
  69.500      1.13870E-03
  70.500      1.11800E-03
  71.600      1.18120E-03
  72.600      1.20440E-03
  73.500      1.22260E-03
  74.500      1.23040E-03
  75.500      1.24570E-03
  76.500      1.25520E-03
  77.500      1.28510E-03
  78.500      1.29360E-03
  79.500      1.31440E-03
  80.500      1.33440E-03
  81.500      1.35440E-03
  82.500      1.37890E-03
  83.500      1.34750E-03
  84.500      1.40450E-03
  85.500      1.41310E-03
  86.500      1.44080E-03
  87.500      1.45690E-03
  88.500      1.47000E-03
  89.500      1.48230E-03
  90.500      1.48250E-03
  91.500      1.26280E-03
  92.500      2.25710E-03
  93.500      2.94750E-03
  94.500      3.69320E-03
  95.500      3.99960E-03
  96.500      4.51840E-03
  97.500      3.67480E-03
  98.500      4.48680E-03
  99.500      4.25830E-03
  100.50      4.49530E-03
  101.50      4.47070E-03
  102.50      3.65180E-03
  103.50      4.41630E-03
  104.50      4.43550E-03
  105.50      4.41410E-03
  106.50      4.33830E-03
  107.50      4.32280E-03
  108.50      4.13980E-03
  109.50      4.31360E-03
  110.50      4.27850E-03
  111.50      4.24270E-03
  112.50      4.17270E-03
  113.50      4.20970E-03
  114.50      4.18460E-03
  115.50      4.13250E-03
  116.50      4.11800E-03
  117.50      3.92360E-03
  118.50      4.06960E-03
  119.50      4.03880E-03
  120.50      4.00510E-03
  121.50      3.31540E-03
  122.50      3.95040E-03
  123.50      3.93010E-03
  124.50      3.89450E-03
  125.50      3.90450E-03
  126.50      3.88000E-03
  127.50      3.85570E-03
  128.50      3.83130E-03
  129.50      3.80370E-03
  130.50      3.77900E-03
  131.50      3.75600E-03
  132.50      3.72890E-03
  133.50      3.70650E-03
  134.50      3.68340E-03
  135.50      3.65630E-03
  136.50      3.62820E-03
  137.50      3.59300E-03
  138.50      3.58080E-03
  139.50      3.52350E-03
  140.50      3.49220E-03
  141.50      3.51160E-03
  142.50      3.48440E-03
  143.50      3.46590E-03
  144.20      3.44410E-03
  144.70      3.43420E-03
  145.50      3.41440E-03
  146.50      3.39310E-03
  147.50      3.37300E-03
  148.50      3.35500E-03
  149.50      3.33080E-03
  150.50      3.31060E-03
  151.20      3.29650E-03
  151.70      3.28330E-03
  152.50      3.26560E-03
  153.50      3.23620E-03
  154.50      3.15470E-03
  155.50      3.14520E-03
  156.50      3.17000E-03
  157.50      3.15500E-03
  158.50      3.13420E-03
  159.50      3.11420E-03
  160.50      3.08580E-03
  161.50      3.06600E-03
  162.50      3.03800E-03
  163.50      2.96330E-03
  164.50      2.83480E-03
  165.50      2.99190E-03
  166.50      2.97290E-03
  167.20      2.95370E-03
  167.70      2.95370E-03
  168.50      2.93760E-03
  169.50      2.91910E-03
  170.50      2.89900E-03
  171.50      2.85800E-03
  172.50      2.85340E-03
  173.50      2.84560E-03
  174.50      2.82610E-03
  175.50      2.80640E-03
  176.50      2.79020E-03
  177.50      2.77320E-03
  178.50      2.75560E-03
  179.50      2.73710E-03
  180.50      2.72010E-03
  181.50      2.70270E-03
  182.50      2.68530E-03
  183.50      2.66890E-03
  184.50      2.65170E-03
  185.50      2.63440E-03
  186.50      2.61760E-03
  187.50      2.60110E-03
  188.50      2.58480E-03
  189.50      2.56930E-03
  190.50      2.55340E-03
  191.50      2.53720E-03
  192.50      2.51930E-03
  193.50      2.50580E-03
  194.50      2.49020E-03
  195.50      2.47450E-03
  196.70      2.45630E-03
  197.60      2.44260E-03
  198.40      2.43060E-03
  199.50      2.41410E-03
  200.50      2.39930E-03
  201.50      2.38460E-03
  202.50      2.36990E-03
  203.50      2.35550E-03
  204.50      2.34090E-03
  205.50      1.83010E-03
  206.50      1.77800E-03
  207.40      1.82340E-03
  207.80      1.86990E-03
  208.50      1.99900E-03
  209.50      2.20900E-03
  210.50      2.25970E-03
  211.50      2.25370E-03
  212.50      2.24110E-03
  213.50      2.22400E-03
  214.50      2.21520E-03
  215.50      2.23540E-03
  216.50      2.17400E-03
  217.50      2.22400E-03
  218.50      2.14800E-03
  219.50      2.19660E-03
  220.50      2.18620E-03
  221.50      2.10840E-03
  222.50      2.15970E-03
  223.50      2.14770E-03
  224.50      2.13340E-03
  225.50      2.06120E-03
  226.50      2.10970E-03
  227.50      2.09730E-03
  228.50      2.08450E-03
  229.50      2.06110E-03
  230.50      2.00370E-03
  231.50      2.04700E-03
  232.50      2.03650E-03
  233.50      2.02470E-03
  234.50      2.01300E-03
  235.50      2.00130E-03
  236.50      1.98980E-03
  237.50      1.97820E-03
  238.50      1.91380E-03
  239.50      1.95390E-03
  240.50      1.94440E-03
  241.50      1.93320E-03
  242.50      1.92240E-03
  243.50      1.91140E-03
  244.50      1.90060E-03
  245.50      1.88950E-03
  246.50      1.87930E-03
  247.50      1.86870E-03
  248.50      1.85820E-03
  249.50      1.81530E-03
  250.50      1.83200E-03
  251.30      1.72440E-03
  251.80      1.82020E-03
  252.50      1.81680E-03
  253.50      1.80700E-03
  254.50      1.79700E-03
  255.50      1.78710E-03
  256.50      1.77730E-03
  257.50      1.76750E-03
  258.50      1.75790E-03
  259.50      1.74780E-03
  260.50      1.73950E-03
  261.50      1.73000E-03
  262.50      1.72070E-03
  263.50      1.71140E-03
  264.50      1.70200E-03
  265.50      1.69270E-03
  266.50      1.68330E-03
  267.50      1.67370E-03
  268.50      1.66580E-03
  269.50      1.65590E-03
  270.50      1.64820E-03
  271.50      1.63940E-03
  272.50      1.62890E-03
  273.50      1.58120E-03
  274.50      1.61350E-03
  275.50      1.60500E-03
  276.50      1.59470E-03
  277.50      1.58830E-03
  278.50      1.57990E-03
  279.50      1.57150E-03
  280.50      1.56350E-03
  281.50      1.55540E-03
  282.50      1.54530E-03
  283.50      1.53860E-03
  284.50      1.53150E-03
  285.50      1.52360E-03
  286.50      1.51580E-03
  287.50      1.50800E-03
  288.50      1.50040E-03
  289.50      1.49270E-03
  291.00      1.48130E-03
  293.00      1.46640E-03
  295.00      1.44990E-03
  297.00      1.43710E-03
  299.00      1.42260E-03
  301.00      1.40870E-03
  303.00      1.39450E-03
  305.00      1.38080E-03
  307.00      1.36760E-03
  309.00      1.35430E-03
  311.00      1.34110E-03
  313.00      1.32830E-03
  315.00      1.31560E-03
  317.00      1.30300E-03
  319.00      1.28760E-03
  321.00      1.26140E-03
  323.00      1.26630E-03
  325.00      1.25440E-03
  327.00      1.24220E-03
  329.00      1.23100E-03
  331.00      1.21980E-03
  333.00      1.20860E-03
  335.00      1.19690E-03
  337.00      1.18650E-03
  339.00      1.17570E-03
  341.00      1.16500E-03
  343.00      1.15530E-03
  345.00      1.14410E-03
  347.00      1.13470E-03
  349.00      1.12410E-03
  351.00      1.11390E-03
  353.00      1.10380E-03
  355.00      1.09380E-03
  357.00      1.08540E-03
  359.00      1.07430E-03
  361.00      1.06570E-03
  363.00      1.05550E-03
  364.00      1.03540E-03
  365.00      9.60950E-04
  367.00      9.54090E-04
  369.00      9.48780E-04
  371.00      9.48180E-04
  373.00      9.51950E-04
  375.00      9.64730E-04
  377.00      9.71410E-04
  379.00      9.85250E-04
  381.00      9.98780E-04
  383.00      9.52910E-04
  385.00      9.97340E-04
  387.00      1.00110E-03
  389.00      9.24110E-04
  391.00      9.88680E-04
  393.00      9.75380E-04
  395.00      9.74030E-04
  397.00      8.92390E-04
  399.00      9.56850E-04
  401.00      9.52920E-04
  403.00      9.27070E-04
  405.00      9.39520E-04
  407.00      9.31200E-04
  409.00      9.04480E-04
  411.00      8.56500E-04
  413.00      9.06800E-04
  415.00      9.00430E-04
  417.00      8.94780E-04
  419.00      8.84630E-04
  421.00      8.70060E-04
  423.00      8.73860E-04
  425.00      8.66980E-04
  427.00      8.60180E-04
  429.00      8.53460E-04
  431.00      8.46020E-04
  433.00      8.16420E-04
  435.00      7.86420E-04
  437.00      8.26160E-04
  439.00      8.17390E-04
  441.00      8.14710E-04
  443.00      8.08210E-04
  445.00      8.02380E-04
  447.00      7.88440E-04
  449.00      7.90310E-04
  451.00      7.84380E-04
  453.00      7.77670E-04
  455.00      7.61560E-04
  457.00      7.66990E-04
  459.00      7.61310E-04
  461.00      7.55700E-04
  463.00      7.50090E-04
  465.00      7.44340E-04
  467.00      7.38640E-04
  469.00      7.12300E-04
  471.00      7.26470E-04
  473.00      7.23300E-04
  475.00      7.18100E-04
  477.00      7.12950E-04
  479.00      7.07860E-04
  481.00      7.02820E-04
  483.00      6.97200E-04
  485.00      6.78090E-04
  487.00      6.45710E-04
  489.00      6.81900E-04
  491.00      6.78410E-04
  493.00      6.69860E-04
  495.00      6.69010E-04
  497.00      6.64390E-04
  499.00      6.59810E-04
  501.00      6.53310E-04
  503.00      6.50780E-04
  505.00      6.45800E-04
  507.00      6.41940E-04
  509.00      6.37580E-04
  511.00      6.33270E-04
  513.00      6.29000E-04
  515.00      6.24770E-04
  517.00      6.20580E-04
  519.00      6.16440E-04
  521.00      6.12340E-04
  523.00      6.08270E-04
  525.00      6.04250E-04
  527.00      6.00260E-04
  529.00      5.96320E-04
  531.00      5.92420E-04
  533.00      5.88550E-04
  535.00      5.84720E-04
  537.00      5.80920E-04
  539.00      5.77160E-04
  541.00      5.64730E-04
  543.00      5.69750E-04
  545.00      5.66110E-04
  547.00      5.62490E-04
  549.00      5.58910E-04
  551.00      5.55360E-04
  553.00      5.51850E-04
  555.00      5.48370E-04
  557.00      5.44920E-04
  559.00      5.41460E-04
  561.00      5.38120E-04
  563.00      5.34770E-04
  565.00      5.31450E-04
  567.00      5.28150E-04
  569.00      5.19900E-04
  571.00      4.94460E-04
  573.00      4.91630E-04
  575.00      4.88840E-04
  577.00      4.86120E-04
  579.00      4.83580E-04
  581.00      4.81360E-04
  583.00      4.79630E-04
  585.00      4.78480E-04
  587.00      4.73840E-04
  589.00      4.76720E-04
  591.00      4.76280E-04
  593.00      4.76050E-04
  595.00      4.76100E-04
  597.00      4.76190E-04
  599.00      4.76530E-04
  601.00      4.75220E-04
  603.00      4.73120E-04
  605.00      4.71610E-04
  607.00      4.68700E-04
  609.00      4.66390E-04
  611.00      4.63250E-04
  613.00      4.60650E-04
  615.00      4.58340E-04
  617.00      4.54680E-04
  619.00      4.53080E-04
  621.00      4.50490E-04
  623.00      4.46640E-04
  625.00      4.45170E-04
  627.00      4.42840E-04
  629.00      4.40320E-04
  631.00      4.35970E-04
  633.00      4.35330E-04
  635.00      4.32930E-04
  637.00      4.30500E-04
  639.00      4.28060E-04
  641.00      4.23330E-04
  643.00      4.23340E-04
  645.00      4.21000E-04
  647.00      4.18670E-04
  649.00      4.16360E-04
  651.00      4.13990E-04
  653.00      4.08300E-04
  655.00      4.04490E-04
  657.00      3.82380E-04
  659.00      4.04300E-04
  661.00      4.02900E-04
  663.00      4.00730E-04
  665.00      3.98600E-04
  667.00      3.94890E-04
  669.00      3.89630E-04
  671.00      3.92200E-04
  673.00      3.90120E-04
  675.00      3.88040E-04
  677.00      3.85980E-04
  679.00      3.83940E-04
  681.00      3.81910E-04
  683.00      3.79900E-04
  685.00      3.77900E-04
  687.00      3.75910E-04
  689.00      3.70130E-04
  691.00      3.71930E-04
  693.00      3.70070E-04
  695.00      3.68150E-04
  697.00      3.66240E-04
  699.00      3.64350E-04
  701.00      3.62480E-04
  703.00      3.60610E-04
  705.00      3.58770E-04
  707.00      3.55170E-04
  709.00      3.55120E-04
  711.00      3.53310E-04
  713.00      3.51520E-04
  715.00      3.49740E-04
  717.00      3.45400E-04
  719.00      3.44830E-04
  721.00      3.44490E-04
  723.00      3.42760E-04
  725.00      3.41050E-04
  727.00      3.39350E-04
  729.00      3.36940E-04
  731.00      3.35990E-04
  733.00      3.34330E-04
  735.00      3.32680E-04
  737.00      3.31040E-04
  739.00      3.29410E-04
  741.00      3.27800E-04
  743.00      3.26200E-04
  745.00      3.24610E-04
  747.00      3.23040E-04
  749.00      3.21470E-04
  751.00      3.19910E-04
  753.00      3.18370E-04
  755.00      3.16830E-04
  757.00      3.15310E-04
  759.00      3.10120E-04
  761.00      3.12150E-04
  763.00      3.10810E-04
  765.00      3.09330E-04
  767.00      3.07860E-04
  769.00      3.06400E-04
  771.00      3.04950E-04
  773.00      3.03510E-04
  775.00      3.02090E-04
  777.00      3.00670E-04
  779.00      2.99260E-04
  781.00      2.97860E-04
  783.00      2.96480E-04
  785.00      2.95140E-04
  787.00      2.93770E-04
  789.00      2.92410E-04
  791.00      2.91060E-04
  793.00      2.89720E-04
  795.00      2.88390E-04
  797.00      2.87060E-04
  799.00      2.85750E-04
  801.00      2.84440E-04
  803.00      2.83150E-04
  805.00      2.81860E-04
  807.00      2.80580E-04
  809.00      2.79310E-04
  811.00      2.78050E-04
  813.00      2.76790E-04
  815.00      2.75550E-04
  817.00      2.74310E-04
  819.00      2.72170E-04
  821.00      2.63530E-04
  823.00      2.61030E-04
  825.00      2.61060E-04
  827.00      2.60140E-04
  829.00      2.59150E-04
  831.00      2.58060E-04
  833.00      2.56960E-04
  835.00      2.55770E-04
  837.00      2.54810E-04
  839.00      2.53810E-04
  841.00      2.52860E-04
  843.00      2.51900E-04
  845.00      2.50800E-04
  847.00      2.50060E-04
  849.00      2.49230E-04
  851.00      2.48410E-04
  853.00      2.47630E-04
  855.00      2.46620E-04
  857.00      2.46360E-04
  859.00      2.44730E-04
  861.00      2.44240E-04
  863.00      2.44450E-04
  865.00      2.43050E-04
  867.00      2.40640E-04
  869.00      2.42430E-04
  871.00      2.42340E-04
  873.00      2.40750E-04
  875.00      2.35790E-04
  877.00      2.38650E-04
  879.00      2.40040E-04
  881.00      2.39640E-04
  883.00      2.38710E-04
  885.00      2.34080E-04
  887.00      2.28680E-04
  889.00      2.35070E-04
  891.00      2.35440E-04
  893.00      2.34600E-04
  895.00      2.34170E-04
  897.00      2.32800E-04
  899.00      2.30280E-04
  901.00      2.21230E-04
  903.00      2.24230E-04
  905.00      2.28340E-04
  907.00      2.27820E-04
  909.00      2.27460E-04
  911.00      2.26340E-04
  913.00      2.25800E-04
  915.00      2.24880E-04
  917.00      2.23830E-04
  919.00      2.22390E-04
  921.00      2.18740E-04
  923.00      2.08600E-04
  925.00      2.16700E-04
  927.00      2.18730E-04
  929.00      2.18610E-04
  931.00      2.17580E-04
  933.00      2.16730E-04
  935.00      2.12340E-04
  937.00      2.14440E-04
  939.00      2.14290E-04
  941.00      2.13450E-04
  943.00      2.12600E-04
  945.00      2.11760E-04
  947.00      2.10710E-04
  949.00      2.10100E-04
  951.00      2.08090E-04
  953.00      2.04350E-04
  955.00      1.94940E-04
  957.00      2.04160E-04
  959.00      2.05470E-04
  961.00      2.05130E-04
  963.00      2.04250E-04
  965.00      2.03640E-04
  967.00      2.02860E-04
  969.00      2.02060E-04
  971.00      2.01210E-04
  973.00      2.00520E-04
  975.00      1.99610E-04
  977.00      1.98160E-04
  979.00      1.98230E-04
  981.00      1.97480E-04
  983.00      1.96730E-04
  985.00      1.95980E-04
  987.00      1.95240E-04
  989.00      1.94500E-04
  991.00      1.93770E-04
  993.00      1.93040E-04
  995.00      1.92310E-04
  997.00      1.91590E-04
  999.00      1.90870E-04
  1002.5      1.86360E-04
  1007.5      1.83370E-04
  1012.5      1.83690E-04
  1017.5      1.84410E-04
  1022.5      1.82720E-04
  1027.5      1.81060E-04
  1032.5      1.79230E-04
  1037.5      1.77800E-04
  1042.5      1.75610E-04
  1047.5      1.74630E-04
  1052.5      1.73070E-04
  1057.5      1.71540E-04
  1062.5      1.70020E-04
  1067.5      1.68480E-04
  1072.5      1.67050E-04
  1077.5      1.65590E-04
  1082.5      1.63610E-04
  1087.5      1.62620E-04
  1092.5      1.55820E-04
  1097.5      1.58550E-04
  1102.5      1.58460E-04
  1107.5      1.57230E-04
  1112.5      1.55910E-04
  1117.5      1.54650E-04
  1122.5      1.53340E-04
  1127.5      1.52070E-04
  1132.5      1.50810E-04
  1137.5      1.49560E-04
  1142.5      1.48320E-04
  1147.5      1.47100E-04
  1152.5      1.45900E-04
  1157.5      1.44710E-04
  1162.5      1.42460E-04
  1167.5      1.41670E-04
  1172.5      1.41220E-04
  1177.5      1.40090E-04
  1182.5      1.38970E-04
  1187.5      1.37870E-04
  1192.5      1.36770E-04
  1197.5      1.35350E-04
  1202.5      1.34620E-04
  1207.5      1.33570E-04
  1212.5      1.32530E-04
  1217.5      1.31500E-04
  1222.5      1.30480E-04
  1227.5      1.29470E-04
  1232.5      1.28470E-04
  1237.5      1.27490E-04
  1242.5      1.26520E-04
  1247.5      1.25560E-04
  1252.5      1.24560E-04
  1257.5      1.23670E-04
  1262.5      1.22740E-04
  1267.5      1.21820E-04
  1272.5      1.20910E-04
  1277.5      1.19280E-04
  1282.5      1.14850E-04
  1287.5      1.17990E-04
  1292.5      1.17370E-04
  1297.5      1.16360E-04
  1302.5      1.15660E-04
  1307.5      1.14820E-04
  1312.5      1.13990E-04
  1317.5      1.13170E-04
  1322.5      1.12350E-04
  1327.5      1.11550E-04
  1332.5      1.10750E-04
  1337.5      1.09960E-04
  1342.5      1.09170E-04
  1347.5      1.08410E-04
  1352.5      1.07650E-04
  1357.5      1.06890E-04
  1362.5      1.06140E-04
  1367.5      1.05400E-04
  1372.5      1.04670E-04
  1377.5      1.03950E-04
  1382.5      1.03230E-04
  1387.5      1.02520E-04
  1392.5      1.01820E-04
  1397.5      1.01120E-04
