 Castelli and Kurucz 2004-2012 Atmosphere
 T     35000.     G    4.00000 [-2.5a] N(He)/Ntot=0.0784 VTURB=2  L/H=1.25 NOVE
 Wavelength  Eddington Hnu
   (nm)    (ergs/s/cm2/Hz/sr)
  9.0900      6.95740E-28
  9.3500      3.41280E-27
  9.6100      1.54670E-26
  9.7700      3.78190E-26
  9.9600      1.05740E-25
  10.200      3.68980E-25
  10.380      9.11400E-25
  10.560      2.19010E-24
  10.770      5.89230E-24
  11.040      2.00100E-23
  11.400      9.42930E-23
  11.780      4.41860E-22
  12.130      1.69570E-21
  12.480      6.08360E-21
  12.710      1.35720E-20
  12.840      2.11220E-20
  13.050      4.24290E-20
  13.240      7.84350E-20
  13.390      1.25940E-19
  13.660      2.87780E-19
  13.980      7.35700E-19
  14.330      1.97360E-18
  14.720      5.60590E-18
  15.100      1.47210E-17
  15.520      4.07690E-17
  15.880      9.34510E-17
  16.200      1.89250E-16
  16.600      4.41610E-16
  17.030      1.05190E-15
  17.340      1.91240E-15
  17.680      3.59420E-15
  18.020      6.61090E-15
  18.170      8.58980E-15
  18.610      1.80550E-14
  19.100      3.95810E-14
  19.390      6.18470E-14
  19.840      1.20590E-13
  20.180      1.95640E-13
  20.500      3.03900E-13
  21.050      6.26830E-13
  21.620      1.27790E-12
  21.980      1.96540E-12
  22.300      2.84680E-12
  22.680      4.35440E-12
  23.000      3.56680E-10
  23.400      1.71430E-09
  24.000      5.17590E-09
  24.650      2.06540E-08
  25.240      5.27830E-08
  25.680      3.16780E-08
  26.000      2.08150E-07
  26.400      5.09580E-07
  26.850      9.75100E-07
  27.350      1.48690E-06
  27.850      1.74850E-06
  28.400      2.56910E-06
  29.000      2.82270E-06
  29.600      1.55240E-06
  30.100      1.98250E-07
  30.800      8.97520E-07
  31.800      4.00260E-06
  32.800      5.43180E-06
  33.800      6.20000E-06
  34.800      7.24500E-06
  35.700      8.21930E-06
  36.600      9.50100E-06
  37.500      1.01740E-05
  38.500      1.09920E-05
  39.500      1.25940E-05
  40.500      1.40740E-05
  41.400      1.55960E-05
  42.200      1.66310E-05
  43.000      1.79520E-05
  44.100      2.06960E-05
  45.100      2.30900E-05
  46.000      2.52100E-05
  47.000      2.84900E-05
  48.000      3.18760E-05
  49.000      3.47530E-05
  50.000      3.96100E-05
  50.600      1.19840E-04
  51.200      2.47860E-04
  52.000      2.50630E-04
  53.000      2.59150E-04
  54.000      2.51550E-04
  55.000      2.67080E-04
  56.000      2.96740E-04
  57.000      3.09590E-04
  58.000      3.08010E-04
  59.000      3.28700E-04
  60.000      3.29090E-04
  61.000      3.36670E-04
  62.000      3.63520E-04
  63.000      3.72570E-04
  64.000      3.84680E-04
  65.000      3.91520E-04
  65.800      3.89820E-04
  66.500      4.05750E-04
  67.500      4.24810E-04
  68.500      4.20900E-04
  69.500      4.45580E-04
  70.500      4.38960E-04
  71.600      4.70120E-04
  72.600      4.81770E-04
  73.500      4.94270E-04
  74.500      4.98870E-04
  75.500      5.08450E-04
  76.500      5.16500E-04
  77.500      5.31390E-04
  78.500      5.42000E-04
  79.500      5.53810E-04
  80.500      5.63360E-04
  81.500      5.76020E-04
  82.500      5.91600E-04
  83.500      5.76190E-04
  84.500      6.09980E-04
  85.500      6.18950E-04
  86.500      6.34340E-04
  87.500      6.44830E-04
  88.500      6.54950E-04
  89.500      6.64960E-04
  90.500      6.70570E-04
  91.500      6.75450E-04
  92.500      1.51430E-03
  93.500      2.02040E-03
  94.500      2.49640E-03
  95.500      2.67710E-03
  96.500      2.95920E-03
  97.500      2.41480E-03
  98.500      2.92710E-03
  99.500      2.81840E-03
  100.50      2.93870E-03
  101.50      2.95140E-03
  102.50      2.47640E-03
  103.50      2.92860E-03
  104.50      2.95020E-03
  105.50      2.94350E-03
  106.50      2.89340E-03
  107.50      2.88880E-03
  108.50      2.81110E-03
  109.50      2.90970E-03
  110.50      2.89080E-03
  111.50      2.86720E-03
  112.50      2.81840E-03
  113.50      2.86850E-03
  114.50      2.85700E-03
  115.50      2.82810E-03
  116.50      2.82980E-03
  117.50      2.64330E-03
  118.50      2.79860E-03
  119.50      2.78960E-03
  120.50      2.76350E-03
  121.50      2.32840E-03
  122.50      2.75400E-03
  123.50      2.74650E-03
  124.50      2.71880E-03
  125.50      2.73530E-03
  126.50      2.72460E-03
  127.50      2.71300E-03
  128.50      2.70170E-03
  129.50      2.67910E-03
  130.50      2.67170E-03
  131.50      2.66400E-03
  132.50      2.64950E-03
  133.50      2.63640E-03
  134.50      2.62670E-03
  135.50      2.61220E-03
  136.50      2.59720E-03
  137.50      2.57940E-03
  138.50      2.57210E-03
  139.50      2.52240E-03
  140.50      2.50670E-03
  141.50      2.53330E-03
  142.50      2.51440E-03
  143.50      2.50780E-03
  144.20      2.49700E-03
  144.70      2.49100E-03
  145.50      2.47900E-03
  146.50      2.46770E-03
  147.50      2.45550E-03
  148.50      2.44610E-03
  149.50      2.43070E-03
  150.50      2.42000E-03
  151.20      2.41270E-03
  151.70      2.40410E-03
  152.50      2.39220E-03
  153.50      2.36770E-03
  154.50      2.30770E-03
  155.50      2.30590E-03
  156.50      2.32710E-03
  157.50      2.32380E-03
  158.50      2.31340E-03
  159.50      2.30130E-03
  160.50      2.27610E-03
  161.50      2.26420E-03
  162.50      2.24410E-03
  163.50      2.20480E-03
  164.50      2.11350E-03
  165.50      2.22360E-03
  166.50      2.21060E-03
  167.20      2.19750E-03
  167.70      2.20510E-03
  168.50      2.19380E-03
  169.50      2.18260E-03
  170.50      2.16900E-03
  171.50      2.13970E-03
  172.50      2.13470E-03
  173.50      2.13780E-03
  174.50      2.12450E-03
  175.50      2.11060E-03
  176.50      2.10240E-03
  177.50      2.09170E-03
  178.50      2.08040E-03
  179.50      2.06780E-03
  180.50      2.05740E-03
  181.50      2.04600E-03
  182.50      2.03420E-03
  183.50      2.02440E-03
  184.50      2.01270E-03
  185.50      2.00080E-03
  186.50      1.98940E-03
  187.50      1.97880E-03
  188.50      1.96820E-03
  189.50      1.95830E-03
  190.50      1.94820E-03
  191.50      1.93710E-03
  192.50      1.92380E-03
  193.50      1.91620E-03
  194.50      1.90590E-03
  195.50      1.89470E-03
  196.70      1.88300E-03
  197.60      1.87390E-03
  198.40      1.86570E-03
  199.50      1.85420E-03
  200.50      1.84460E-03
  201.50      1.83460E-03
  202.50      1.82460E-03
  203.50      1.81470E-03
  204.50      1.80470E-03
  205.50      1.47090E-03
  206.50      1.44110E-03
  207.40      1.48300E-03
  207.80      1.52140E-03
  208.50      1.63080E-03
  209.50      1.74690E-03
  210.50      1.74960E-03
  211.50      1.74540E-03
  212.50      1.73640E-03
  213.50      1.72580E-03
  214.50      1.71870E-03
  215.50      1.73060E-03
  216.50      1.69340E-03
  217.50      1.71730E-03
  218.50      1.67620E-03
  219.50      1.69830E-03
  220.50      1.68980E-03
  221.50      1.64900E-03
  222.50      1.67140E-03
  223.50      1.66250E-03
  224.50      1.65330E-03
  225.50      1.61430E-03
  226.50      1.63570E-03
  227.50      1.62690E-03
  228.50      1.61770E-03
  229.50      1.59640E-03
  230.50      1.57230E-03
  231.50      1.59210E-03
  232.50      1.58380E-03
  233.50      1.57540E-03
  234.50      1.56700E-03
  235.50      1.55860E-03
  236.50      1.55040E-03
  237.50      1.54210E-03
  238.50      1.50620E-03
  239.50      1.52470E-03
  240.50      1.51780E-03
  241.50      1.50980E-03
  242.50      1.50190E-03
  243.50      1.49400E-03
  244.50      1.48620E-03
  245.50      1.47820E-03
  246.50      1.47080E-03
  247.50      1.46310E-03
  248.50      1.45550E-03
  249.50      1.41170E-03
  250.50      1.43850E-03
  251.30      1.37450E-03
  251.80      1.42790E-03
  252.50      1.42550E-03
  253.50      1.41830E-03
  254.50      1.41100E-03
  255.50      1.40370E-03
  256.50      1.39660E-03
  257.50      1.38950E-03
  258.50      1.38240E-03
  259.50      1.37510E-03
  260.50      1.36980E-03
  261.50      1.36280E-03
  262.50      1.35590E-03
  263.50      1.34880E-03
  264.50      1.34190E-03
  265.50      1.33480E-03
  266.50      1.32770E-03
  267.50      1.32040E-03
  268.50      1.31550E-03
  269.50      1.30700E-03
  270.50      1.30240E-03
  271.50      1.29590E-03
  272.50      1.28690E-03
  273.50      1.26020E-03
  274.50      1.27670E-03
  275.50      1.27030E-03
  276.50      1.26090E-03
  277.50      1.25780E-03
  278.50      1.25160E-03
  279.50      1.24510E-03
  280.50      1.23930E-03
  281.50      1.23330E-03
  282.50      1.22360E-03
  283.50      1.22030E-03
  284.50      1.21540E-03
  285.50      1.20950E-03
  286.50      1.20360E-03
  287.50      1.19780E-03
  288.50      1.19200E-03
  289.50      1.18620E-03
  291.00      1.17770E-03
  293.00      1.16650E-03
  295.00      1.15260E-03
  297.00      1.14430E-03
  299.00      1.13330E-03
  301.00      1.12280E-03
  303.00      1.11200E-03
  305.00      1.10170E-03
  307.00      1.09170E-03
  309.00      1.08150E-03
  311.00      1.07150E-03
  313.00      1.06190E-03
  315.00      1.05220E-03
  317.00      1.04260E-03
  319.00      1.02930E-03
  321.00      1.01370E-03
  323.00      1.01450E-03
  325.00      1.00530E-03
  327.00      9.96130E-04
  329.00      9.87240E-04
  331.00      9.78850E-04
  333.00      9.70200E-04
  335.00      9.60960E-04
  337.00      9.53230E-04
  339.00      9.44900E-04
  341.00      9.36660E-04
  343.00      9.27580E-04
  345.00      9.18370E-04
  347.00      9.11530E-04
  349.00      9.04230E-04
  351.00      8.96820E-04
  353.00      8.88980E-04
  355.00      8.81250E-04
  357.00      8.75620E-04
  359.00      8.65900E-04
  361.00      8.59590E-04
  363.00      8.51270E-04
  364.00      8.41200E-04
  365.00      7.97310E-04
  367.00      7.92090E-04
  369.00      7.87380E-04
  371.00      7.83800E-04
  373.00      7.80600E-04
  375.00      7.95090E-04
  377.00      7.98260E-04
  379.00      8.09770E-04
  381.00      8.24400E-04
  383.00      7.79080E-04
  385.00      8.25690E-04
  387.00      8.25740E-04
  389.00      7.60800E-04
  391.00      8.16790E-04
  393.00      8.05790E-04
  395.00      8.04790E-04
  397.00      7.34800E-04
  399.00      7.91290E-04
  401.00      7.85690E-04
  403.00      7.66100E-04
  405.00      7.75480E-04
  407.00      7.69160E-04
  409.00      7.50340E-04
  411.00      7.05960E-04
  413.00      7.48970E-04
  415.00      7.43270E-04
  417.00      7.39550E-04
  419.00      7.33010E-04
  421.00      7.22910E-04
  423.00      7.23010E-04
  425.00      7.17480E-04
  427.00      7.12030E-04
  429.00      7.06650E-04
  431.00      7.01050E-04
  433.00      6.79180E-04
  435.00      6.49900E-04
  437.00      6.85220E-04
  439.00      6.75850E-04
  441.00      6.75480E-04
  443.00      6.69970E-04
  445.00      6.65600E-04
  447.00      6.52030E-04
  449.00      6.55880E-04
  451.00      6.51100E-04
  453.00      6.46120E-04
  455.00      6.35800E-04
  457.00      6.37060E-04
  459.00      6.32450E-04
  461.00      6.27930E-04
  463.00      6.23370E-04
  465.00      6.18410E-04
  467.00      6.14370E-04
  469.00      5.96400E-04
  471.00      6.03140E-04
  473.00      6.01700E-04
  475.00      5.97480E-04
  477.00      5.93310E-04
  479.00      5.89180E-04
  481.00      5.85080E-04
  483.00      5.80910E-04
  485.00      5.66420E-04
  487.00      5.35510E-04
  489.00      5.68520E-04
  491.00      5.65220E-04
  493.00      5.56830E-04
  495.00      5.57550E-04
  497.00      5.53790E-04
  499.00      5.50050E-04
  501.00      5.43750E-04
  503.00      5.42680E-04
  505.00      5.38120E-04
  507.00      5.35460E-04
  509.00      5.31900E-04
  511.00      5.28370E-04
  513.00      5.24880E-04
  515.00      5.21430E-04
  517.00      5.18000E-04
  519.00      5.14610E-04
  521.00      5.11250E-04
  523.00      5.07930E-04
  525.00      5.04630E-04
  527.00      5.01370E-04
  529.00      4.98140E-04
  531.00      4.94940E-04
  533.00      4.91770E-04
  535.00      4.88630E-04
  537.00      4.85520E-04
  539.00      4.82430E-04
  541.00      4.74730E-04
  543.00      4.76350E-04
  545.00      4.73360E-04
  547.00      4.70390E-04
  549.00      4.67450E-04
  551.00      4.64530E-04
  553.00      4.61640E-04
  555.00      4.58780E-04
  557.00      4.55950E-04
  559.00      4.53100E-04
  561.00      4.50350E-04
  563.00      4.47590E-04
  565.00      4.44860E-04
  567.00      4.42150E-04
  569.00      4.36800E-04
  571.00      4.22510E-04
  573.00      4.20100E-04
  575.00      4.17710E-04
  577.00      4.15360E-04
  579.00      4.13140E-04
  581.00      4.11250E-04
  583.00      4.09610E-04
  585.00      4.08330E-04
  587.00      4.02060E-04
  589.00      4.05930E-04
  591.00      4.05000E-04
  593.00      4.04140E-04
  595.00      4.03430E-04
  597.00      4.02580E-04
  599.00      4.01620E-04
  601.00      3.99970E-04
  603.00      3.97650E-04
  605.00      3.95360E-04
  607.00      3.93070E-04
  609.00      3.90820E-04
  611.00      3.88440E-04
  613.00      3.86280E-04
  615.00      3.84160E-04
  617.00      3.81590E-04
  619.00      3.79810E-04
  621.00      3.77660E-04
  623.00      3.74960E-04
  625.00      3.73410E-04
  627.00      3.71320E-04
  629.00      3.69250E-04
  631.00      3.66440E-04
  633.00      3.65140E-04
  635.00      3.63120E-04
  637.00      3.61110E-04
  639.00      3.59110E-04
  641.00      3.56130E-04
  643.00      3.55170E-04
  645.00      3.53230E-04
  647.00      3.51300E-04
  649.00      3.49390E-04
  651.00      3.47480E-04
  653.00      3.43940E-04
  655.00      3.40100E-04
  657.00      3.19340E-04
  659.00      3.39560E-04
  661.00      3.38220E-04
  663.00      3.36410E-04
  665.00      3.34670E-04
  667.00      3.31340E-04
  669.00      3.28070E-04
  671.00      3.29360E-04
  673.00      3.27630E-04
  675.00      3.25910E-04
  677.00      3.24200E-04
  679.00      3.22500E-04
  681.00      3.20810E-04
  683.00      3.19140E-04
  685.00      3.17480E-04
  687.00      3.15830E-04
  689.00      3.12630E-04
  691.00      3.12570E-04
  693.00      3.10970E-04
  695.00      3.09370E-04
  697.00      3.07790E-04
  699.00      3.06210E-04
  701.00      3.04650E-04
  703.00      3.03100E-04
  705.00      3.01560E-04
  707.00      2.97690E-04
  709.00      2.98520E-04
  711.00      2.97020E-04
  713.00      2.95530E-04
  715.00      2.94050E-04
  717.00      2.91450E-04
  719.00      2.90640E-04
  721.00      2.89670E-04
  723.00      2.88230E-04
  725.00      2.86810E-04
  727.00      2.85390E-04
  729.00      2.82860E-04
  731.00      2.82580E-04
  733.00      2.81200E-04
  735.00      2.79830E-04
  737.00      2.78460E-04
  739.00      2.77110E-04
  741.00      2.75760E-04
  743.00      2.74420E-04
  745.00      2.73110E-04
  747.00      2.71790E-04
  749.00      2.70480E-04
  751.00      2.69160E-04
  753.00      2.67900E-04
  755.00      2.66620E-04
  757.00      2.65340E-04
  759.00      2.62520E-04
  761.00      2.62820E-04
  763.00      2.61580E-04
  765.00      2.60350E-04
  767.00      2.59120E-04
  769.00      2.57900E-04
  771.00      2.56690E-04
  773.00      2.55490E-04
  775.00      2.54300E-04
  777.00      2.53110E-04
  779.00      2.51940E-04
  781.00      2.50720E-04
  783.00      2.49610E-04
  785.00      2.48540E-04
  787.00      2.47390E-04
  789.00      2.46250E-04
  791.00      2.45130E-04
  793.00      2.44000E-04
  795.00      2.42890E-04
  797.00      2.41740E-04
  799.00      2.40680E-04
  801.00      2.39590E-04
  803.00      2.38500E-04
  805.00      2.37430E-04
  807.00      2.36360E-04
  809.00      2.35190E-04
  811.00      2.34140E-04
  813.00      2.33190E-04
  815.00      2.31980E-04
  817.00      2.31110E-04
  819.00      2.29590E-04
  821.00      2.24980E-04
  823.00      2.23300E-04
  825.00      2.23130E-04
  827.00      2.22000E-04
  829.00      2.21320E-04
  831.00      2.20390E-04
  833.00      2.19420E-04
  835.00      2.18180E-04
  837.00      2.17490E-04
  839.00      2.16670E-04
  841.00      2.15840E-04
  843.00      2.14930E-04
  845.00      2.13690E-04
  847.00      2.13250E-04
  849.00      2.12410E-04
  851.00      2.11520E-04
  853.00      2.10940E-04
  855.00      2.09310E-04
  857.00      2.10190E-04
  859.00      2.07180E-04
  861.00      2.06880E-04
  863.00      2.08580E-04
  865.00      2.06430E-04
  867.00      2.01540E-04
  869.00      2.06560E-04
  871.00      2.06750E-04
  873.00      2.04460E-04
  875.00      1.95950E-04
  877.00      2.01960E-04
  879.00      2.04300E-04
  881.00      2.03720E-04
  883.00      2.02730E-04
  885.00      1.97230E-04
  887.00      1.89940E-04
  889.00      1.99460E-04
  891.00      1.99840E-04
  893.00      1.99080E-04
  895.00      1.98580E-04
  897.00      1.97620E-04
  899.00      1.95090E-04
  901.00      1.84430E-04
  903.00      1.89040E-04
  905.00      1.93770E-04
  907.00      1.92850E-04
  909.00      1.92730E-04
  911.00      1.92080E-04
  913.00      1.91440E-04
  915.00      1.90660E-04
  917.00      1.89700E-04
  919.00      1.88780E-04
  921.00      1.85060E-04
  923.00      1.73690E-04
  925.00      1.83790E-04
  927.00      1.85670E-04
  929.00      1.85370E-04
  931.00      1.84350E-04
  933.00      1.83900E-04
  935.00      1.81430E-04
  937.00      1.82270E-04
  939.00      1.81720E-04
  941.00      1.81010E-04
  943.00      1.80290E-04
  945.00      1.79590E-04
  947.00      1.78480E-04
  949.00      1.78180E-04
  951.00      1.76330E-04
  953.00      1.72900E-04
  955.00      1.62750E-04
  957.00      1.73350E-04
  959.00      1.74450E-04
  961.00      1.73880E-04
  963.00      1.73060E-04
  965.00      1.72730E-04
  967.00      1.72060E-04
  969.00      1.71350E-04
  971.00      1.70550E-04
  973.00      1.70090E-04
  975.00      1.69440E-04
  977.00      1.68500E-04
  979.00      1.68150E-04
  981.00      1.67510E-04
  983.00      1.66880E-04
  985.00      1.66250E-04
  987.00      1.65620E-04
  989.00      1.65000E-04
  991.00      1.64380E-04
  993.00      1.63760E-04
  995.00      1.63140E-04
  997.00      1.62530E-04
  999.00      1.61930E-04
  1002.5      1.57780E-04
  1007.5      1.55080E-04
  1012.5      1.56550E-04
  1017.5      1.56470E-04
  1022.5      1.55020E-04
  1027.5      1.53640E-04
  1032.5      1.51960E-04
  1037.5      1.50880E-04
  1042.5      1.49330E-04
  1047.5      1.48190E-04
  1052.5      1.46870E-04
  1057.5      1.45570E-04
  1062.5      1.44290E-04
  1067.5      1.42930E-04
  1072.5      1.41780E-04
  1077.5      1.40540E-04
  1082.5      1.38590E-04
  1087.5      1.38070E-04
  1092.5      1.31450E-04
  1097.5      1.34630E-04
  1102.5      1.34330E-04
  1107.5      1.33450E-04
  1112.5      1.32340E-04
  1117.5      1.31250E-04
  1122.5      1.30120E-04
  1127.5      1.29060E-04
  1132.5      1.27990E-04
  1137.5      1.26930E-04
  1142.5      1.25890E-04
  1147.5      1.24860E-04
  1152.5      1.23830E-04
  1157.5      1.22830E-04
  1162.5      1.21350E-04
  1167.5      1.20610E-04
  1172.5      1.19880E-04
  1177.5      1.18920E-04
  1182.5      1.17970E-04
  1187.5      1.17030E-04
  1192.5      1.16100E-04
  1197.5      1.14700E-04
  1202.5      1.14280E-04
  1207.5      1.13390E-04
  1212.5      1.12510E-04
  1217.5      1.11630E-04
  1222.5      1.10770E-04
  1227.5      1.09920E-04
  1232.5      1.09070E-04
  1237.5      1.08240E-04
  1242.5      1.07410E-04
  1247.5      1.06600E-04
  1252.5      1.05700E-04
  1257.5      1.05000E-04
  1262.5      1.04210E-04
  1267.5      1.03430E-04
  1272.5      1.02660E-04
  1277.5      1.01110E-04
  1282.5      9.71100E-05
  1287.5      1.00220E-04
  1292.5      9.96620E-05
  1297.5      9.86590E-05
  1302.5      9.82130E-05
  1307.5      9.75000E-05
  1312.5      9.67950E-05
  1317.5      9.60970E-05
  1322.5      9.54070E-05
  1327.5      9.47240E-05
  1332.5      9.40490E-05
  1337.5      9.33800E-05
  1342.5      9.26870E-05
  1347.5      9.20650E-05
  1352.5      9.14180E-05
  1357.5      9.07770E-05
  1362.5      9.01430E-05
  1367.5      8.95160E-05
  1372.5      8.88950E-05
  1377.5      8.82810E-05
  1382.5      8.76730E-05
  1387.5      8.70710E-05
  1392.5      8.64750E-05
  1397.5      8.58860E-05
