 Castelli and Kurucz 2004-2012 Atmosphere
 T     37000.     G    4.00000 [-2.5a] N(He)/Ntot=0.0784 VTURB=2  L/H=1.25 NOVE
 Wavelength  Eddington Hnu
   (nm)    (ergs/s/cm2/Hz/sr)
  9.0900      1.09470E-25
  9.3500      4.72520E-25
  9.6100      1.89820E-24
  9.7700      4.32210E-24
  9.9600      1.11410E-23
  10.200      3.52230E-23
  10.380      8.10080E-23
  10.560      1.81640E-22
  10.770      4.52130E-22
  11.040      1.39650E-21
  11.400      5.83350E-21
  11.780      2.42730E-20
  12.130      8.41160E-20
  12.480      2.73470E-19
  12.710      5.74740E-19
  12.840      8.65570E-19
  13.050      1.65080E-18
  13.240      2.91230E-18
  13.390      4.51090E-18
  13.660      9.69550E-18
  13.980      2.31650E-17
  14.330      5.75940E-17
  14.720      1.51420E-16
  15.100      3.70920E-16
  15.520      9.49080E-16
  15.880      2.04450E-15
  16.200      3.93400E-15
  16.600      8.60880E-15
  17.030      1.91690E-14
  17.340      3.33070E-14
  17.680      5.97050E-14
  18.020      1.04710E-13
  18.170      1.33260E-13
  18.610      2.64280E-13
  19.100      5.45320E-13
  19.390      8.22600E-13
  19.840      1.51950E-12
  20.180      2.37150E-12
  20.500      3.55560E-12
  21.050      6.92440E-12
  21.620      1.33090E-11
  21.980      1.97500E-11
  22.300      2.77410E-11
  22.680      4.09880E-11
  23.000      2.54730E-09
  23.400      1.09310E-08
  24.000      2.91450E-08
  24.650      1.91030E-07
  25.240      6.73780E-07
  25.680      3.80180E-07
  26.000      2.71390E-06
  26.400      5.79180E-06
  26.850      9.61330E-06
  27.350      1.37280E-05
  27.850      1.55350E-05
  28.400      2.12360E-05
  29.000      2.36750E-05
  29.600      1.42920E-05
  30.100      1.33090E-06
  30.800      7.69010E-06
  31.800      2.92820E-05
  32.800      3.93370E-05
  33.800      4.35040E-05
  34.800      4.96190E-05
  35.700      5.93110E-05
  36.600      6.81910E-05
  37.500      7.27080E-05
  38.500      7.36120E-05
  39.500      8.45830E-05
  40.500      9.24140E-05
  41.400      9.81570E-05
  42.200      9.98940E-05
  43.000      1.03180E-04
  44.100      1.13610E-04
  45.100      1.20220E-04
  46.000      1.23860E-04
  47.000      1.31630E-04
  48.000      1.40990E-04
  49.000      1.44560E-04
  50.000      1.58990E-04
  50.600      2.72210E-04
  51.200      4.42660E-04
  52.000      4.49700E-04
  53.000      4.64100E-04
  54.000      4.54600E-04
  55.000      4.69820E-04
  56.000      5.23390E-04
  57.000      5.46920E-04
  58.000      5.49110E-04
  59.000      5.80050E-04
  60.000      5.80180E-04
  61.000      5.86570E-04
  62.000      6.31170E-04
  63.000      6.44070E-04
  64.000      6.68200E-04
  65.000      6.76060E-04
  65.800      6.71320E-04
  66.500      7.00600E-04
  67.500      7.29520E-04
  68.500      7.22870E-04
  69.500      7.60720E-04
  70.500      7.46520E-04
  71.600      7.97010E-04
  72.600      8.15940E-04
  73.500      8.31780E-04
  74.500      8.38210E-04
  75.500      8.51480E-04
  76.500      8.60320E-04
  77.500      8.84500E-04
  78.500      8.94090E-04
  79.500      9.12290E-04
  80.500      9.27450E-04
  81.500      9.45300E-04
  82.500      9.66280E-04
  83.500      9.41290E-04
  84.500      9.89430E-04
  85.500      9.98900E-04
  86.500      1.02210E-03
  87.500      1.03650E-03
  88.500      1.04880E-03
  89.500      1.06040E-03
  90.500      1.06360E-03
  91.500      9.74280E-04
  92.500      1.89530E-03
  93.500      2.42570E-03
  94.500      2.86730E-03
  95.500      3.05510E-03
  96.500      3.31720E-03
  97.500      2.82040E-03
  98.500      3.27770E-03
  99.500      3.16390E-03
  100.50      3.29080E-03
  101.50      3.29810E-03
  102.50      2.86480E-03
  103.50      3.27930E-03
  104.50      3.28940E-03
  105.50      3.28140E-03
  106.50      3.23240E-03
  107.50      3.22660E-03
  108.50      3.14470E-03
  109.50      3.24160E-03
  110.50      3.22340E-03
  111.50      3.20000E-03
  112.50      3.15380E-03
  113.50      3.19420E-03
  114.50      3.18240E-03
  115.50      3.14970E-03
  116.50      3.14840E-03
  117.50      2.98810E-03
  118.50      3.12100E-03
  119.50      3.10580E-03
  120.50      3.09370E-03
  121.50      2.68180E-03
  122.50      3.06980E-03
  123.50      3.05090E-03
  124.50      3.02610E-03
  125.50      3.04010E-03
  126.50      3.02700E-03
  127.50      3.01380E-03
  128.50      3.00040E-03
  129.50      2.98340E-03
  130.50      2.96970E-03
  131.50      2.95720E-03
  132.50      2.94090E-03
  133.50      2.92820E-03
  134.50      2.91520E-03
  135.50      2.89820E-03
  136.50      2.88060E-03
  137.50      2.85820E-03
  138.50      2.85240E-03
  139.50      2.80820E-03
  140.50      2.78710E-03
  141.50      2.80980E-03
  142.50      2.79110E-03
  143.50      2.78120E-03
  144.20      2.76680E-03
  144.70      2.76070E-03
  145.50      2.74760E-03
  146.50      2.73450E-03
  147.50      2.72190E-03
  148.50      2.71130E-03
  149.50      2.69470E-03
  150.50      2.68240E-03
  151.20      2.67370E-03
  151.70      2.66420E-03
  152.50      2.65230E-03
  153.50      2.62950E-03
  154.50      2.56340E-03
  155.50      2.55970E-03
  156.50      2.58450E-03
  157.50      2.57740E-03
  158.50      2.56350E-03
  159.50      2.55030E-03
  160.50      2.52720E-03
  161.50      2.51440E-03
  162.50      2.49260E-03
  163.50      2.44630E-03
  164.50      2.34650E-03
  165.50      2.46520E-03
  166.50      2.45150E-03
  167.20      2.43680E-03
  167.70      2.44100E-03
  168.50      2.42910E-03
  169.50      2.41640E-03
  170.50      2.40180E-03
  171.50      2.36920E-03
  172.50      2.36740E-03
  173.50      2.36520E-03
  174.50      2.35090E-03
  175.50      2.33620E-03
  176.50      2.32550E-03
  177.50      2.31340E-03
  178.50      2.30070E-03
  179.50      2.28710E-03
  180.50      2.27490E-03
  181.50      2.26230E-03
  182.50      2.24940E-03
  183.50      2.23780E-03
  184.50      2.22500E-03
  185.50      2.21220E-03
  186.50      2.19970E-03
  187.50      2.18750E-03
  188.50      2.17570E-03
  189.50      2.16430E-03
  190.50      2.15250E-03
  191.50      2.14050E-03
  192.50      2.12670E-03
  193.50      2.11700E-03
  194.50      2.10540E-03
  195.50      2.09350E-03
  196.70      2.07980E-03
  197.60      2.06950E-03
  198.40      2.06050E-03
  199.50      2.04790E-03
  200.50      2.03680E-03
  201.50      2.02560E-03
  202.50      2.01450E-03
  203.50      2.00350E-03
  204.50      1.99230E-03
  205.50      1.59790E-03
  206.50      1.56760E-03
  207.40      1.62000E-03
  207.80      1.66840E-03
  208.50      1.80210E-03
  209.50      1.93040E-03
  210.50      1.93070E-03
  211.50      1.92730E-03
  212.50      1.91760E-03
  213.50      1.90550E-03
  214.50      1.89830E-03
  215.50      1.91340E-03
  216.50      1.87030E-03
  217.50      1.89890E-03
  218.50      1.85140E-03
  219.50      1.87770E-03
  220.50      1.86830E-03
  221.50      1.82150E-03
  222.50      1.84800E-03
  223.50      1.83810E-03
  224.50      1.82800E-03
  225.50      1.78330E-03
  226.50      1.80850E-03
  227.50      1.79880E-03
  228.50      1.78880E-03
  229.50      1.76850E-03
  230.50      1.73690E-03
  231.50      1.76030E-03
  232.50      1.75110E-03
  233.50      1.74180E-03
  234.50      1.73250E-03
  235.50      1.72330E-03
  236.50      1.71410E-03
  237.50      1.70500E-03
  238.50      1.66390E-03
  239.50      1.68590E-03
  240.50      1.67810E-03
  241.50      1.66920E-03
  242.50      1.66060E-03
  243.50      1.65180E-03
  244.50      1.64320E-03
  245.50      1.63430E-03
  246.50      1.62610E-03
  247.50      1.61760E-03
  248.50      1.60920E-03
  249.50      1.56770E-03
  250.50      1.59030E-03
  251.30      1.51600E-03
  251.80      1.57960E-03
  252.50      1.57590E-03
  253.50      1.56810E-03
  254.50      1.56000E-03
  255.50      1.55200E-03
  256.50      1.54410E-03
  257.50      1.53620E-03
  258.50      1.52840E-03
  259.50      1.52020E-03
  260.50      1.51350E-03
  261.50      1.50570E-03
  262.50      1.49820E-03
  263.50      1.49060E-03
  264.50      1.48300E-03
  265.50      1.47530E-03
  266.50      1.46770E-03
  267.50      1.46000E-03
  268.50      1.45350E-03
  269.50      1.44530E-03
  270.50      1.43910E-03
  271.50      1.43190E-03
  272.50      1.42350E-03
  273.50      1.39050E-03
  274.50      1.41080E-03
  275.50      1.40380E-03
  276.50      1.39510E-03
  277.50      1.39000E-03
  278.50      1.38310E-03
  279.50      1.37620E-03
  280.50      1.36960E-03
  281.50      1.36290E-03
  282.50      1.35420E-03
  283.50      1.34920E-03
  284.50      1.34310E-03
  285.50      1.33660E-03
  286.50      1.33010E-03
  287.50      1.32370E-03
  288.50      1.31730E-03
  289.50      1.31100E-03
  291.00      1.30150E-03
  293.00      1.28910E-03
  295.00      1.27520E-03
  297.00      1.26470E-03
  299.00      1.25250E-03
  301.00      1.24090E-03
  303.00      1.22900E-03
  305.00      1.21760E-03
  307.00      1.20650E-03
  309.00      1.19540E-03
  311.00      1.18430E-03
  313.00      1.17350E-03
  315.00      1.16290E-03
  317.00      1.15220E-03
  319.00      1.13920E-03
  321.00      1.11930E-03
  323.00      1.12130E-03
  325.00      1.11120E-03
  327.00      1.10090E-03
  329.00      1.09140E-03
  331.00      1.08190E-03
  333.00      1.07240E-03
  335.00      1.06240E-03
  337.00      1.05360E-03
  339.00      1.04440E-03
  341.00      1.03530E-03
  343.00      1.02710E-03
  345.00      1.01740E-03
  347.00      1.00930E-03
  349.00      1.00020E-03
  351.00      9.91550E-04
  353.00      9.82890E-04
  355.00      9.74430E-04
  357.00      9.67240E-04
  359.00      9.57660E-04
  361.00      9.50270E-04
  363.00      9.41460E-04
  364.00      9.25830E-04
  365.00      8.67220E-04
  367.00      8.61290E-04
  369.00      8.57660E-04
  371.00      8.58090E-04
  373.00      8.60240E-04
  375.00      8.75560E-04
  377.00      8.80740E-04
  379.00      8.88030E-04
  381.00      8.98550E-04
  383.00      8.60880E-04
  385.00      8.95310E-04
  387.00      8.94800E-04
  389.00      8.39400E-04
  391.00      8.83810E-04
  393.00      8.71270E-04
  395.00      8.70840E-04
  397.00      8.11540E-04
  399.00      8.56420E-04
  401.00      8.50550E-04
  403.00      8.31590E-04
  405.00      8.38410E-04
  407.00      8.31770E-04
  409.00      8.15330E-04
  411.00      7.76260E-04
  413.00      8.11230E-04
  415.00      8.04830E-04
  417.00      8.00000E-04
  419.00      7.92640E-04
  421.00      7.81080E-04
  423.00      7.81970E-04
  425.00      7.76040E-04
  427.00      7.70180E-04
  429.00      7.64380E-04
  431.00      7.58630E-04
  433.00      7.39120E-04
  435.00      7.13520E-04
  437.00      7.41670E-04
  439.00      7.33440E-04
  441.00      7.30870E-04
  443.00      7.25240E-04
  445.00      7.20200E-04
  447.00      7.08860E-04
  449.00      7.09730E-04
  451.00      7.04590E-04
  453.00      6.99190E-04
  455.00      6.87400E-04
  457.00      6.89470E-04
  459.00      6.84530E-04
  461.00      6.79650E-04
  463.00      6.74770E-04
  465.00      6.69720E-04
  467.00      6.65020E-04
  469.00      6.44280E-04
  471.00      6.54210E-04
  473.00      6.51410E-04
  475.00      6.46870E-04
  477.00      6.42380E-04
  479.00      6.37930E-04
  481.00      6.33520E-04
  483.00      6.29150E-04
  485.00      6.16620E-04
  487.00      5.88850E-04
  489.00      6.16080E-04
  491.00      6.12160E-04
  493.00      6.04980E-04
  495.00      6.03920E-04
  497.00      5.99860E-04
  499.00      5.95840E-04
  501.00      5.90080E-04
  503.00      5.87900E-04
  505.00      5.83490E-04
  507.00      5.80130E-04
  509.00      5.76300E-04
  511.00      5.72500E-04
  513.00      5.68740E-04
  515.00      5.65020E-04
  517.00      5.61330E-04
  519.00      5.57680E-04
  521.00      5.54060E-04
  523.00      5.50480E-04
  525.00      5.46930E-04
  527.00      5.43410E-04
  529.00      5.39940E-04
  531.00      5.36490E-04
  533.00      5.33070E-04
  535.00      5.29690E-04
  537.00      5.26330E-04
  539.00      5.23010E-04
  541.00      5.13910E-04
  543.00      5.16450E-04
  545.00      5.13230E-04
  547.00      5.10030E-04
  549.00      5.06860E-04
  551.00      5.03710E-04
  553.00      5.00600E-04
  555.00      4.97520E-04
  557.00      4.94460E-04
  559.00      4.91390E-04
  561.00      4.88430E-04
  563.00      4.85450E-04
  565.00      4.82510E-04
  567.00      4.79580E-04
  569.00      4.72840E-04
  571.00      4.52920E-04
  573.00      4.50370E-04
  575.00      4.47840E-04
  577.00      4.45410E-04
  579.00      4.43220E-04
  581.00      4.41560E-04
  583.00      4.40210E-04
  585.00      4.39230E-04
  587.00      4.34720E-04
  589.00      4.37640E-04
  591.00      4.37150E-04
  593.00      4.36890E-04
  595.00      4.36900E-04
  597.00      4.36540E-04
  599.00      4.35860E-04
  601.00      4.34110E-04
  603.00      4.31580E-04
  605.00      4.29350E-04
  607.00      4.26510E-04
  609.00      4.24480E-04
  611.00      4.21720E-04
  613.00      4.19330E-04
  615.00      4.17300E-04
  617.00      4.14040E-04
  619.00      4.12600E-04
  621.00      4.10290E-04
  623.00      4.06860E-04
  625.00      4.05620E-04
  627.00      4.03450E-04
  629.00      4.01200E-04
  631.00      3.97460E-04
  633.00      3.96760E-04
  635.00      3.94580E-04
  637.00      3.92410E-04
  639.00      3.90250E-04
  641.00      3.86280E-04
  643.00      3.86000E-04
  645.00      3.83910E-04
  647.00      3.81820E-04
  649.00      3.79750E-04
  651.00      3.77700E-04
  653.00      3.73190E-04
  655.00      3.70730E-04
  657.00      3.51480E-04
  659.00      3.69400E-04
  661.00      3.67690E-04
  663.00      3.65730E-04
  665.00      3.63820E-04
  667.00      3.60670E-04
  669.00      3.56350E-04
  671.00      3.58080E-04
  673.00      3.56210E-04
  675.00      3.54350E-04
  677.00      3.52500E-04
  679.00      3.50660E-04
  681.00      3.48840E-04
  683.00      3.47030E-04
  685.00      3.45230E-04
  687.00      3.43450E-04
  689.00      3.39090E-04
  691.00      3.39920E-04
  693.00      3.38190E-04
  695.00      3.36460E-04
  697.00      3.34750E-04
  699.00      3.33040E-04
  701.00      3.31360E-04
  703.00      3.29680E-04
  705.00      3.28020E-04
  707.00      3.24620E-04
  709.00      3.24730E-04
  711.00      3.23100E-04
  713.00      3.21490E-04
  715.00      3.19890E-04
  717.00      3.16490E-04
  719.00      3.15960E-04
  721.00      3.15150E-04
  723.00      3.13600E-04
  725.00      3.12050E-04
  727.00      3.10520E-04
  729.00      3.08250E-04
  731.00      3.07480E-04
  733.00      3.05990E-04
  735.00      3.04500E-04
  737.00      3.03020E-04
  739.00      3.01560E-04
  741.00      3.00100E-04
  743.00      2.98650E-04
  745.00      2.97220E-04
  747.00      2.95800E-04
  749.00      2.94380E-04
  751.00      2.92970E-04
  753.00      2.91580E-04
  755.00      2.90190E-04
  757.00      2.88820E-04
  759.00      2.85010E-04
  761.00      2.86090E-04
  763.00      2.84750E-04
  765.00      2.83410E-04
  767.00      2.82080E-04
  769.00      2.80760E-04
  771.00      2.79450E-04
  773.00      2.78150E-04
  775.00      2.76860E-04
  777.00      2.75580E-04
  779.00      2.74310E-04
  781.00      2.73020E-04
  783.00      2.71780E-04
  785.00      2.70580E-04
  787.00      2.69340E-04
  789.00      2.68110E-04
  791.00      2.66890E-04
  793.00      2.65670E-04
  795.00      2.64470E-04
  797.00      2.63260E-04
  799.00      2.62080E-04
  801.00      2.60890E-04
  803.00      2.59720E-04
  805.00      2.58550E-04
  807.00      2.57390E-04
  809.00      2.56240E-04
  811.00      2.55100E-04
  813.00      2.53960E-04
  815.00      2.52790E-04
  817.00      2.51710E-04
  819.00      2.49880E-04
  821.00      2.42990E-04
  823.00      2.40930E-04
  825.00      2.40870E-04
  827.00      2.39870E-04
  829.00      2.38990E-04
  831.00      2.37990E-04
  833.00      2.36980E-04
  835.00      2.35860E-04
  837.00      2.35020E-04
  839.00      2.34130E-04
  841.00      2.33300E-04
  843.00      2.32450E-04
  845.00      2.31440E-04
  847.00      2.30810E-04
  849.00      2.30060E-04
  851.00      2.29190E-04
  853.00      2.28640E-04
  855.00      2.27300E-04
  857.00      2.27640E-04
  859.00      2.25570E-04
  861.00      2.25050E-04
  863.00      2.25960E-04
  865.00      2.24450E-04
  867.00      2.20820E-04
  869.00      2.24120E-04
  871.00      2.24090E-04
  873.00      2.22510E-04
  875.00      2.15830E-04
  877.00      2.20350E-04
  879.00      2.21700E-04
  881.00      2.21030E-04
  883.00      2.20120E-04
  885.00      2.15850E-04
  887.00      2.09570E-04
  889.00      2.16860E-04
  891.00      2.17000E-04
  893.00      2.16010E-04
  895.00      2.15420E-04
  897.00      2.14540E-04
  899.00      2.12330E-04
  901.00      2.03460E-04
  903.00      2.07040E-04
  905.00      2.10540E-04
  907.00      2.09680E-04
  909.00      2.09240E-04
  911.00      2.08260E-04
  913.00      2.07690E-04
  915.00      2.06860E-04
  917.00      2.05940E-04
  919.00      2.05030E-04
  921.00      2.02010E-04
  923.00      1.92250E-04
  925.00      2.00420E-04
  927.00      2.01710E-04
  929.00      2.01150E-04
  931.00      2.00200E-04
  933.00      1.99560E-04
  935.00      1.96290E-04
  937.00      1.97460E-04
  939.00      1.97220E-04
  941.00      1.96450E-04
  943.00      1.95680E-04
  945.00      1.94910E-04
  947.00      1.93930E-04
  949.00      1.93400E-04
  951.00      1.91920E-04
  953.00      1.89050E-04
  955.00      1.80140E-04
  957.00      1.88860E-04
  959.00      1.89560E-04
  961.00      1.88870E-04
  963.00      1.88040E-04
  965.00      1.87510E-04
  967.00      1.86790E-04
  969.00      1.86060E-04
  971.00      1.85270E-04
  973.00      1.84670E-04
  975.00      1.83890E-04
  977.00      1.82560E-04
  979.00      1.82570E-04
  981.00      1.81890E-04
  983.00      1.81200E-04
  985.00      1.80520E-04
  987.00      1.79840E-04
  989.00      1.79170E-04
  991.00      1.78500E-04
  993.00      1.77830E-04
  995.00      1.77170E-04
  997.00      1.76510E-04
  999.00      1.75850E-04
  1002.5      1.72320E-04
  1007.5      1.69600E-04
  1012.5      1.69730E-04
  1017.5      1.69960E-04
  1022.5      1.68410E-04
  1027.5      1.66900E-04
  1032.5      1.65200E-04
  1037.5      1.63920E-04
  1042.5      1.62030E-04
  1047.5      1.61010E-04
  1052.5      1.59590E-04
  1057.5      1.58190E-04
  1062.5      1.56800E-04
  1067.5      1.55380E-04
  1072.5      1.54080E-04
  1077.5      1.52750E-04
  1082.5      1.50870E-04
  1087.5      1.50130E-04
  1092.5      1.44320E-04
  1097.5      1.46770E-04
  1102.5      1.46190E-04
  1107.5      1.45100E-04
  1112.5      1.43890E-04
  1117.5      1.42730E-04
  1122.5      1.41520E-04
  1127.5      1.40360E-04
  1132.5      1.39200E-04
  1137.5      1.38060E-04
  1142.5      1.36930E-04
  1147.5      1.35810E-04
  1152.5      1.34700E-04
  1157.5      1.33610E-04
  1162.5      1.31790E-04
  1167.5      1.31010E-04
  1172.5      1.30420E-04
  1177.5      1.29380E-04
  1182.5      1.28350E-04
  1187.5      1.27340E-04
  1192.5      1.26340E-04
  1197.5      1.25020E-04
  1202.5      1.24370E-04
  1207.5      1.23400E-04
  1212.5      1.22440E-04
  1217.5      1.21490E-04
  1222.5      1.20560E-04
  1227.5      1.19630E-04
  1232.5      1.18720E-04
  1237.5      1.17820E-04
  1242.5      1.16920E-04
  1247.5      1.16040E-04
  1252.5      1.15110E-04
  1257.5      1.14300E-04
  1262.5      1.13450E-04
  1267.5      1.12600E-04
  1272.5      1.11770E-04
  1277.5      1.10380E-04
  1282.5      1.06670E-04
  1287.5      1.09200E-04
  1292.5      1.08520E-04
  1297.5      1.07570E-04
  1302.5      1.06950E-04
  1307.5      1.06180E-04
  1312.5      1.05410E-04
  1317.5      1.04650E-04
  1322.5      1.03910E-04
  1327.5      1.03170E-04
  1332.5      1.02430E-04
  1337.5      1.01710E-04
  1342.5      1.00970E-04
  1347.5      1.00280E-04
  1352.5      9.95790E-05
  1357.5      9.88840E-05
  1362.5      9.81960E-05
  1367.5      9.75160E-05
  1372.5      9.68420E-05
  1377.5      9.61750E-05
  1382.5      9.55150E-05
  1387.5      9.48620E-05
  1392.5      9.42160E-05
  1397.5      9.35760E-05
