 Castelli and Kurucz 2004-2012 Atmosphere
 T     50000.     G    5.00000 [-2.5a] N(He)/Ntot=0.0784 VTURB=2  L/H=1.25 NOVE
 Wavelength  Eddington Hnu
   (nm)    (ergs/s/cm2/Hz/sr)
  9.0900      6.08920E-18
  9.3500      1.64960E-17
  9.6100      4.23040E-17
  9.7700      7.38040E-17
  9.9600      1.39530E-16
  10.200      3.01760E-16
  10.380      5.26310E-16
  10.560      9.01140E-16
  10.770      1.65090E-15
  11.040      3.48010E-15
  11.400      8.92340E-15
  11.780      2.27370E-14
  12.130      5.12440E-14
  12.480      1.10550E-13
  12.710      1.79340E-13
  12.840      2.34150E-13
  13.050      3.56040E-13
  13.240      5.14800E-13
  13.390      6.83870E-13
  13.660      1.12400E-12
  13.980      1.97940E-12
  14.330      3.57630E-12
  14.720      6.68250E-12
  15.100      1.19870E-11
  15.520      2.21030E-11
  15.880      3.64410E-11
  16.200      5.59440E-11
  16.600      9.33560E-11
  17.030      1.57380E-10
  17.340      2.26060E-10
  17.680      3.32150E-10
  18.020      4.80700E-10
  18.170      5.60770E-10
  18.610      8.84360E-10
  19.100      1.42560E-09
  19.390      1.87410E-09
  19.840      2.81340E-09
  20.180      3.78080E-09
  20.500      4.94830E-09
  21.050      7.71020E-09
  21.620      1.19240E-08
  21.980      1.55270E-08
  22.300      1.94820E-08
  22.680      2.52720E-08
  23.000      4.26500E-07
  23.400      3.44880E-06
  24.000      4.34120E-05
  24.650      2.25660E-04
  25.240      4.37010E-04
  25.680      2.98060E-04
  26.000      6.27360E-04
  26.400      7.78270E-04
  26.850      8.64120E-04
  27.350      9.78630E-04
  27.850      1.02110E-03
  28.400      1.10870E-03
  29.000      1.21350E-03
  29.600      1.13720E-03
  30.100      6.32590E-04
  30.800      7.88190E-04
  31.800      1.19780E-03
  32.800      1.30400E-03
  33.800      1.31410E-03
  34.800      1.37270E-03
  35.700      1.54600E-03
  36.600      1.66960E-03
  37.500      1.72550E-03
  38.500      1.65190E-03
  39.500      1.84600E-03
  40.500      1.96050E-03
  41.400      2.00660E-03
  42.200      2.00180E-03
  43.000      2.05850E-03
  44.100      2.16200E-03
  45.100      2.20930E-03
  46.000      2.20290E-03
  47.000      2.23080E-03
  48.000      2.31070E-03
  49.000      2.29370E-03
  50.000      2.41220E-03
  50.600      2.35660E-03
  51.200      2.55580E-03
  52.000      2.56490E-03
  53.000      2.62890E-03
  54.000      2.58190E-03
  55.000      2.56520E-03
  56.000      2.71510E-03
  57.000      2.77860E-03
  58.000      2.78320E-03
  59.000      2.84510E-03
  60.000      2.83000E-03
  61.000      2.79210E-03
  62.000      2.88490E-03
  63.000      2.88510E-03
  64.000      2.96110E-03
  65.000      2.95350E-03
  65.800      2.91310E-03
  66.500      3.00620E-03
  67.500      3.04160E-03
  68.500      3.00490E-03
  69.500      3.08690E-03
  70.500      3.01470E-03
  71.600      3.11710E-03
  72.600      3.14980E-03
  73.500      3.16490E-03
  74.500      3.16870E-03
  75.500      3.16610E-03
  76.500      3.14420E-03
  77.500      3.20930E-03
  78.500      3.18690E-03
  79.500      3.20710E-03
  80.500      3.24250E-03
  81.500      3.25440E-03
  82.500      3.27610E-03
  83.500      3.20710E-03
  84.500      3.28750E-03
  85.500      3.27140E-03
  86.500      3.30970E-03
  87.500      3.32270E-03
  88.500      3.32350E-03
  89.500      3.32750E-03
  90.500      3.30010E-03
  91.500      2.55660E-03
  92.500      4.00530E-03
  93.500      4.95860E-03
  94.500      6.07670E-03
  95.500      6.58990E-03
  96.500      7.45890E-03
  97.500      6.15680E-03
  98.500      7.44030E-03
  99.500      6.98230E-03
  100.50      7.39400E-03
  101.50      7.29640E-03
  102.50      5.94360E-03
  103.50      7.15910E-03
  104.50      7.19060E-03
  105.50      7.13800E-03
  106.50      7.01950E-03
  107.50      7.00100E-03
  108.50      6.60580E-03
  109.50      6.89720E-03
  110.50      6.82450E-03
  111.50      6.76300E-03
  112.50      6.65360E-03
  113.50      6.66630E-03
  114.50      6.61000E-03
  115.50      6.52880E-03
  116.50      6.46260E-03
  117.50      6.27570E-03
  118.50      6.38090E-03
  119.50      6.30590E-03
  120.50      6.23830E-03
  121.50      5.17440E-03
  122.50      6.11890E-03
  123.50      6.05660E-03
  124.50      6.00770E-03
  125.50      6.01110E-03
  126.50      5.95960E-03
  127.50      5.90870E-03
  128.50      5.85810E-03
  129.50      5.80880E-03
  130.50      5.75650E-03
  131.50      5.70850E-03
  132.50      5.65560E-03
  133.50      5.61220E-03
  134.50      5.56740E-03
  135.50      5.51450E-03
  136.50      5.45920E-03
  137.50      5.38020E-03
  138.50      5.37000E-03
  139.50      5.29590E-03
  140.50      5.23400E-03
  141.50      5.24190E-03
  142.50      5.19820E-03
  143.50      5.15900E-03
  144.20      5.11470E-03
  144.70      5.09770E-03
  145.50      5.06300E-03
  146.50      5.02240E-03
  147.50      4.98910E-03
  148.50      4.95560E-03
  149.50      4.91430E-03
  150.50      4.87630E-03
  151.20      4.84970E-03
  151.70      4.82750E-03
  152.50      4.79820E-03
  153.50      4.75580E-03
  154.50      4.64660E-03
  155.50      4.61610E-03
  156.50      4.64210E-03
  157.50      4.60730E-03
  158.50      4.56850E-03
  159.50      4.53360E-03
  160.50      4.49540E-03
  161.50      4.46040E-03
  162.50      4.42030E-03
  163.50      4.30250E-03
  164.50      4.11560E-03
  165.50      4.32480E-03
  166.50      4.29300E-03
  167.20      4.26570E-03
  167.70      4.25350E-03
  168.50      4.22760E-03
  169.50      4.19550E-03
  170.50      4.16280E-03
  171.50      4.10270E-03
  172.50      4.09080E-03
  173.50      4.06950E-03
  174.50      4.03810E-03
  175.50      4.00740E-03
  176.50      3.97770E-03
  177.50      3.94840E-03
  178.50      3.91900E-03
  179.50      3.88950E-03
  180.50      3.86070E-03
  181.50      3.83210E-03
  182.50      3.80380E-03
  183.50      3.77590E-03
  184.50      3.74820E-03
  185.50      3.72060E-03
  186.50      3.69350E-03
  187.50      3.66660E-03
  188.50      3.64000E-03
  189.50      3.61410E-03
  190.50      3.58810E-03
  191.50      3.56220E-03
  192.50      3.53550E-03
  193.50      3.51160E-03
  194.50      3.48670E-03
  195.50      3.46200E-03
  196.70      3.43270E-03
  197.60      3.41060E-03
  198.40      3.39180E-03
  199.50      3.36550E-03
  200.50      3.34220E-03
  201.50      3.31890E-03
  202.50      3.29590E-03
  203.50      3.27310E-03
  204.50      3.25020E-03
  205.50      2.52960E-03
  206.50      2.44490E-03
  207.40      2.47940E-03
  207.80      2.52450E-03
  208.50      2.65110E-03
  209.50      2.92880E-03
  210.50      3.09900E-03
  211.50      3.10570E-03
  212.50      3.08630E-03
  213.50      3.05830E-03
  214.50      3.04330E-03
  215.50      3.06820E-03
  216.50      2.97540E-03
  217.50      3.05240E-03
  218.50      2.93140E-03
  219.50      3.01260E-03
  220.50      3.00020E-03
  221.50      2.86700E-03
  222.50      2.96030E-03
  223.50      2.94420E-03
  224.50      2.91970E-03
  225.50      2.79500E-03
  226.50      2.88610E-03
  227.50      2.86790E-03
  228.50      2.84880E-03
  229.50      2.82400E-03
  230.50      2.70950E-03
  231.50      2.78960E-03
  232.50      2.77640E-03
  233.50      2.75860E-03
  234.50      2.74100E-03
  235.50      2.72350E-03
  236.50      2.70620E-03
  237.50      2.68880E-03
  238.50      2.57760E-03
  239.50      2.65240E-03
  240.50      2.63830E-03
  241.50      2.62170E-03
  242.50      2.60570E-03
  243.50      2.58940E-03
  244.50      2.57340E-03
  245.50      2.55690E-03
  246.50      2.54170E-03
  247.50      2.52610E-03
  248.50      2.51060E-03
  249.50      2.46950E-03
  250.50      2.46660E-03
  251.30      2.29540E-03
  251.80      2.45330E-03
  252.50      2.44890E-03
  253.50      2.43520E-03
  254.50      2.42060E-03
  255.50      2.40600E-03
  256.50      2.39160E-03
  257.50      2.37730E-03
  258.50      2.36310E-03
  259.50      2.34830E-03
  260.50      2.33540E-03
  261.50      2.32130E-03
  262.50      2.30800E-03
  263.50      2.29440E-03
  264.50      2.28100E-03
  265.50      2.26770E-03
  266.50      2.25440E-03
  267.50      2.24080E-03
  268.50      2.22840E-03
  269.50      2.21530E-03
  270.50      2.20280E-03
  271.50      2.19010E-03
  272.50      2.17600E-03
  273.50      2.09560E-03
  274.50      2.15280E-03
  275.50      2.14060E-03
  276.50      2.12800E-03
  277.50      2.11640E-03
  278.50      2.10450E-03
  279.50      2.09250E-03
  280.50      2.08090E-03
  281.50      2.06930E-03
  282.50      2.05720E-03
  283.50      2.04610E-03
  284.50      2.03500E-03
  285.50      2.02370E-03
  286.50      2.01250E-03
  287.50      2.00150E-03
  288.50      1.99050E-03
  289.50      1.97960E-03
  291.00      1.96340E-03
  293.00      1.94210E-03
  295.00      1.92080E-03
  297.00      1.90050E-03
  299.00      1.88010E-03
  301.00      1.86030E-03
  303.00      1.84040E-03
  305.00      1.82110E-03
  307.00      1.80200E-03
  309.00      1.78360E-03
  311.00      1.76520E-03
  313.00      1.74690E-03
  315.00      1.72920E-03
  317.00      1.71150E-03
  319.00      1.69260E-03
  321.00      1.64940E-03
  323.00      1.66040E-03
  325.00      1.64380E-03
  327.00      1.62690E-03
  329.00      1.61130E-03
  331.00      1.59550E-03
  333.00      1.57980E-03
  335.00      1.56420E-03
  337.00      1.54930E-03
  339.00      1.53430E-03
  341.00      1.51940E-03
  343.00      1.50520E-03
  345.00      1.49060E-03
  347.00      1.47670E-03
  349.00      1.46280E-03
  351.00      1.44900E-03
  353.00      1.43540E-03
  355.00      1.42190E-03
  357.00      1.40900E-03
  359.00      1.39560E-03
  361.00      1.38300E-03
  363.00      1.37000E-03
  364.00      1.33760E-03
  365.00      1.22690E-03
  367.00      1.21730E-03
  369.00      1.20920E-03
  371.00      1.20680E-03
  373.00      1.21150E-03
  375.00      1.22450E-03
  377.00      1.23740E-03
  379.00      1.25510E-03
  381.00      1.27260E-03
  383.00      1.22490E-03
  385.00      1.26590E-03
  387.00      1.27220E-03
  389.00      1.17820E-03
  391.00      1.25380E-03
  393.00      1.23980E-03
  395.00      1.23540E-03
  397.00      1.13550E-03
  399.00      1.21240E-03
  401.00      1.20900E-03
  403.00      1.17890E-03
  405.00      1.19210E-03
  407.00      1.18020E-03
  409.00      1.14220E-03
  411.00      1.08630E-03
  413.00      1.14890E-03
  415.00      1.14220E-03
  417.00      1.13330E-03
  419.00      1.11720E-03
  421.00      1.09730E-03
  423.00      1.10550E-03
  425.00      1.09640E-03
  427.00      1.08750E-03
  429.00      1.07860E-03
  431.00      1.06810E-03
  433.00      1.02750E-03
  435.00      9.93240E-04
  437.00      1.04180E-03
  439.00      1.03490E-03
  441.00      1.02780E-03
  443.00      1.01960E-03
  445.00      1.01160E-03
  447.00      9.99100E-04
  449.00      9.95830E-04
  451.00      9.88080E-04
  453.00      9.78020E-04
  455.00      9.54220E-04
  457.00      9.65340E-04
  459.00      9.57940E-04
  461.00      9.50620E-04
  463.00      9.43360E-04
  465.00      9.36110E-04
  467.00      9.27960E-04
  469.00      8.91580E-04
  471.00      9.14380E-04
  473.00      9.08410E-04
  475.00      9.01650E-04
  477.00      8.94960E-04
  479.00      8.88340E-04
  481.00      8.81800E-04
  483.00      8.73890E-04
  485.00      8.47830E-04
  487.00      8.10450E-04
  489.00      8.53810E-04
  491.00      8.50150E-04
  493.00      8.42400E-04
  495.00      8.37990E-04
  497.00      8.32000E-04
  499.00      8.26070E-04
  501.00      8.19460E-04
  503.00      8.14400E-04
  505.00      8.08540E-04
  507.00      8.02970E-04
  509.00      7.97350E-04
  511.00      7.91790E-04
  513.00      7.86280E-04
  515.00      7.80830E-04
  517.00      7.75440E-04
  519.00      7.70100E-04
  521.00      7.64810E-04
  523.00      7.59580E-04
  525.00      7.54410E-04
  527.00      7.49280E-04
  529.00      7.44210E-04
  531.00      7.39190E-04
  533.00      7.34220E-04
  535.00      7.29300E-04
  537.00      7.24430E-04
  539.00      7.19590E-04
  541.00      7.00400E-04
  543.00      7.09770E-04
  545.00      7.05420E-04
  547.00      7.00790E-04
  549.00      6.96200E-04
  551.00      6.91650E-04
  553.00      6.87150E-04
  555.00      6.82690E-04
  557.00      6.78280E-04
  559.00      6.73870E-04
  561.00      6.69580E-04
  563.00      6.65290E-04
  565.00      6.61040E-04
  567.00      6.56840E-04
  569.00      6.45270E-04
  571.00      6.08430E-04
  573.00      6.04860E-04
  575.00      6.01340E-04
  577.00      5.97890E-04
  579.00      5.94600E-04
  581.00      5.91510E-04
  583.00      5.89120E-04
  585.00      5.87140E-04
  587.00      5.83720E-04
  589.00      5.84430E-04
  591.00      5.83750E-04
  593.00      5.83380E-04
  595.00      5.83460E-04
  597.00      5.83850E-04
  599.00      5.85020E-04
  601.00      5.84430E-04
  603.00      5.84200E-04
  605.00      5.83340E-04
  607.00      5.79840E-04
  609.00      5.76960E-04
  611.00      5.73920E-04
  613.00      5.70860E-04
  615.00      5.68200E-04
  617.00      5.63060E-04
  619.00      5.61310E-04
  621.00      5.58230E-04
  623.00      5.52960E-04
  625.00      5.51160E-04
  627.00      5.48530E-04
  629.00      5.45340E-04
  631.00      5.39330E-04
  633.00      5.38680E-04
  635.00      5.35970E-04
  637.00      5.32900E-04
  639.00      5.29460E-04
  641.00      5.23090E-04
  643.00      5.23740E-04
  645.00      5.20870E-04
  647.00      5.17930E-04
  649.00      5.15000E-04
  651.00      5.11550E-04
  653.00      5.03750E-04
  655.00      4.99030E-04
  657.00      4.73200E-04
  659.00      4.99300E-04
  661.00      4.97990E-04
  663.00      4.95240E-04
  665.00      4.92510E-04
  667.00      4.88180E-04
  669.00      4.80810E-04
  671.00      4.84440E-04
  673.00      4.81810E-04
  675.00      4.79190E-04
  677.00      4.76600E-04
  679.00      4.74020E-04
  681.00      4.71460E-04
  683.00      4.68920E-04
  685.00      4.66400E-04
  687.00      4.63900E-04
  689.00      4.54830E-04
  691.00      4.58480E-04
  693.00      4.56540E-04
  695.00      4.54120E-04
  697.00      4.51730E-04
  699.00      4.49350E-04
  701.00      4.46990E-04
  703.00      4.44640E-04
  705.00      4.42320E-04
  707.00      4.39220E-04
  709.00      4.37730E-04
  711.00      4.35460E-04
  713.00      4.33200E-04
  715.00      4.30970E-04
  717.00      4.24300E-04
  719.00      4.23630E-04
  721.00      4.24370E-04
  723.00      4.22200E-04
  725.00      4.20050E-04
  727.00      4.17920E-04
  729.00      4.15590E-04
  731.00      4.13700E-04
  733.00      4.11610E-04
  735.00      4.09540E-04
  737.00      4.07490E-04
  739.00      4.05450E-04
  741.00      4.03430E-04
  743.00      4.01420E-04
  745.00      3.99420E-04
  747.00      3.97450E-04
  749.00      3.95480E-04
  751.00      3.93530E-04
  753.00      3.91600E-04
  755.00      3.89670E-04
  757.00      3.87760E-04
  759.00      3.79310E-04
  761.00      3.83420E-04
  763.00      3.82130E-04
  765.00      3.80280E-04
  767.00      3.78440E-04
  769.00      3.76620E-04
  771.00      3.74800E-04
  773.00      3.73000E-04
  775.00      3.71220E-04
  777.00      3.69450E-04
  779.00      3.67690E-04
  781.00      3.65940E-04
  783.00      3.64200E-04
  785.00      3.62480E-04
  787.00      3.60770E-04
  789.00      3.59070E-04
  791.00      3.57390E-04
  793.00      3.55710E-04
  795.00      3.54050E-04
  797.00      3.52390E-04
  799.00      3.50750E-04
  801.00      3.49120E-04
  803.00      3.47510E-04
  805.00      3.45900E-04
  807.00      3.44300E-04
  809.00      3.42720E-04
  811.00      3.41140E-04
  813.00      3.39580E-04
  815.00      3.38030E-04
  817.00      3.36490E-04
  819.00      3.33610E-04
  821.00      3.20710E-04
  823.00      3.17470E-04
  825.00      3.17460E-04
  827.00      3.16570E-04
  829.00      3.15240E-04
  831.00      3.13890E-04
  833.00      3.12550E-04
  835.00      3.11220E-04
  837.00      3.09930E-04
  839.00      3.08650E-04
  841.00      3.07430E-04
  843.00      3.06230E-04
  845.00      3.05010E-04
  847.00      3.03940E-04
  849.00      3.02940E-04
  851.00      3.01910E-04
  853.00      3.00960E-04
  855.00      2.99850E-04
  857.00      2.99130E-04
  859.00      2.97990E-04
  861.00      2.97140E-04
  863.00      2.96690E-04
  865.00      2.95610E-04
  867.00      2.94020E-04
  869.00      2.94330E-04
  871.00      2.93860E-04
  873.00      2.92740E-04
  875.00      2.89720E-04
  877.00      2.90850E-04
  879.00      2.91300E-04
  881.00      2.90930E-04
  883.00      2.90070E-04
  885.00      2.86540E-04
  887.00      2.82570E-04
  889.00      2.86330E-04
  891.00      2.86630E-04
  893.00      2.85980E-04
  895.00      2.85080E-04
  897.00      2.83620E-04
  899.00      2.80960E-04
  901.00      2.73270E-04
  903.00      2.74980E-04
  905.00      2.78210E-04
  907.00      2.77910E-04
  909.00      2.77290E-04
  911.00      2.75780E-04
  913.00      2.75290E-04
  915.00      2.74160E-04
  917.00      2.72790E-04
  919.00      2.70850E-04
  921.00      2.67130E-04
  923.00      2.57560E-04
  925.00      2.64300E-04
  927.00      2.66330E-04
  929.00      2.66140E-04
  931.00      2.65290E-04
  933.00      2.63680E-04
  935.00      2.57230E-04
  937.00      2.61030E-04
  939.00      2.60930E-04
  941.00      2.60040E-04
  943.00      2.59000E-04
  945.00      2.57960E-04
  947.00      2.56880E-04
  949.00      2.55700E-04
  951.00      2.53640E-04
  953.00      2.49350E-04
  955.00      2.39750E-04
  957.00      2.48470E-04
  959.00      2.49970E-04
  961.00      2.49810E-04
  963.00      2.48880E-04
  965.00      2.47950E-04
  967.00      2.46980E-04
  969.00      2.46020E-04
  971.00      2.45050E-04
  973.00      2.44100E-04
  975.00      2.42740E-04
  977.00      2.40900E-04
  979.00      2.41280E-04
  981.00      2.40350E-04
  983.00      2.39430E-04
  985.00      2.38510E-04
  987.00      2.37590E-04
  989.00      2.36680E-04
  991.00      2.35780E-04
  993.00      2.34880E-04
  995.00      2.33990E-04
  997.00      2.33100E-04
  999.00      2.32120E-04
  1002.5      2.26970E-04
  1007.5      2.23330E-04
  1012.5      2.22820E-04
  1017.5      2.24270E-04
  1022.5      2.22200E-04
  1027.5      2.20150E-04
  1032.5      2.18070E-04
  1037.5      2.16130E-04
  1042.5      2.13090E-04
  1047.5      2.12230E-04
  1052.5      2.10320E-04
  1057.5      2.08440E-04
  1062.5      2.06570E-04
  1067.5      2.04730E-04
  1072.5      2.02920E-04
  1077.5      2.01140E-04
  1082.5      1.99120E-04
  1087.5      1.97420E-04
  1092.5      1.89700E-04
  1097.5      1.92410E-04
  1102.5      1.92520E-04
  1107.5      1.90880E-04
  1112.5      1.89250E-04
  1117.5      1.87740E-04
  1122.5      1.86150E-04
  1127.5      1.84580E-04
  1132.5      1.83020E-04
  1137.5      1.81490E-04
  1142.5      1.79980E-04
  1147.5      1.78480E-04
  1152.5      1.77000E-04
  1157.5      1.75540E-04
  1162.5      1.72200E-04
  1167.5      1.71290E-04
  1172.5      1.71270E-04
  1177.5      1.69890E-04
  1182.5      1.68510E-04
  1187.5      1.67160E-04
  1192.5      1.65820E-04
  1197.5      1.64420E-04
  1202.5      1.63190E-04
  1207.5      1.61900E-04
  1212.5      1.60620E-04
  1217.5      1.59360E-04
  1222.5      1.58110E-04
  1227.5      1.56880E-04
  1232.5      1.55660E-04
  1237.5      1.54460E-04
  1242.5      1.53270E-04
  1247.5      1.52090E-04
  1252.5      1.50920E-04
  1257.5      1.49780E-04
  1262.5      1.48640E-04
  1267.5      1.47520E-04
  1272.5      1.46400E-04
  1277.5      1.44630E-04
  1282.5      1.39090E-04
  1287.5      1.42820E-04
  1292.5      1.42080E-04
  1297.5      1.41020E-04
  1302.5      1.40000E-04
  1307.5      1.38970E-04
  1312.5      1.37950E-04
  1317.5      1.36950E-04
  1322.5      1.35950E-04
  1327.5      1.34970E-04
  1332.5      1.34000E-04
  1337.5      1.33030E-04
  1342.5      1.32080E-04
  1347.5      1.31140E-04
  1352.5      1.30210E-04
  1357.5      1.29290E-04
  1362.5      1.28370E-04
  1367.5      1.27470E-04
  1372.5      1.26580E-04
  1377.5      1.25690E-04
  1382.5      1.24820E-04
  1387.5      1.23950E-04
  1392.5      1.23100E-04
  1397.5      1.22250E-04
