 Castelli and Kurucz 2004-2012 Atmosphere
 T     38000.     G    4.50000 [-2.5a] N(He)/Ntot=0.0784 VTURB=2  L/H=1.25 NOVE
 Wavelength  Eddington Hnu
   (nm)    (ergs/s/cm2/Hz/sr)
  9.0900      6.83760E-25
  9.3500      2.84690E-24
  9.6100      1.10440E-23
  9.7700      2.46240E-23
  9.9600      6.18860E-23
  10.200      1.89580E-22
  10.380      4.25870E-22
  10.560      9.33030E-22
  10.770      2.26020E-21
  11.040      6.73850E-21
  11.400      2.68660E-20
  11.780      1.06470E-19
  12.130      3.52720E-19
  12.480      1.09810E-18
  12.710      2.24420E-18
  12.840      3.32580E-18
  13.050      6.18230E-18
  13.240      1.06640E-17
  13.390      1.62330E-17
  13.660      3.38450E-17
  13.980      7.81150E-17
  14.330      1.87210E-16
  14.720      4.72920E-16
  15.100      1.11680E-15
  15.520      2.75370E-15
  15.880      5.75300E-15
  16.200      1.07810E-14
  16.600      2.28590E-14
  17.030      4.93630E-14
  17.340      8.39870E-14
  17.680      1.47260E-13
  18.020      2.52770E-13
  18.170      3.18730E-13
  18.610      6.16010E-13
  19.100      1.23820E-12
  19.390      1.84070E-12
  19.840      3.32670E-12
  20.180      5.11020E-12
  20.500      7.55250E-12
  21.050      1.43720E-11
  21.620      2.70230E-11
  21.980      3.95680E-11
  22.300      5.49430E-11
  22.680      8.01190E-11
  23.000      2.92630E-09
  23.400      1.20260E-08
  24.000      3.35530E-08
  24.650      2.00310E-07
  25.240      7.47930E-07
  25.680      5.06210E-07
  26.000      3.11890E-06
  26.400      6.38230E-06
  26.850      1.06970E-05
  27.350      1.53160E-05
  27.850      1.76390E-05
  28.400      2.38030E-05
  29.000      2.69430E-05
  29.600      1.82170E-05
  30.100      2.37240E-06
  30.800      1.02960E-05
  31.800      3.21720E-05
  32.800      4.07020E-05
  33.800      4.34580E-05
  34.800      4.90010E-05
  35.700      5.58910E-05
  36.600      6.25780E-05
  37.500      6.55610E-05
  38.500      6.68460E-05
  39.500      7.48360E-05
  40.500      8.05270E-05
  41.400      8.52050E-05
  42.200      8.69330E-05
  43.000      9.01730E-05
  44.100      9.88150E-05
  45.100      1.04890E-04
  46.000      1.09200E-04
  47.000      1.17370E-04
  48.000      1.26060E-04
  49.000      1.31150E-04
  50.000      1.44130E-04
  50.600      2.69180E-04
  51.200      4.87030E-04
  52.000      4.93690E-04
  53.000      5.12880E-04
  54.000      4.99570E-04
  55.000      5.22620E-04
  56.000      5.70190E-04
  57.000      5.92090E-04
  58.000      5.91700E-04
  59.000      6.24010E-04
  60.000      6.25320E-04
  61.000      6.32370E-04
  62.000      6.73700E-04
  63.000      6.87450E-04
  64.000      7.09390E-04
  65.000      7.17550E-04
  65.800      7.13050E-04
  66.500      7.40620E-04
  67.500      7.69140E-04
  68.500      7.62590E-04
  69.500      8.00050E-04
  70.500      7.87310E-04
  71.600      8.35050E-04
  72.600      8.53080E-04
  73.500      8.69040E-04
  74.500      8.75550E-04
  75.500      8.88880E-04
  76.500      8.98990E-04
  77.500      9.21010E-04
  78.500      9.32490E-04
  79.500      9.48950E-04
  80.500      9.63780E-04
  81.500      9.80850E-04
  82.500      1.00200E-03
  83.500      9.78270E-04
  84.500      1.02520E-03
  85.500      1.03490E-03
  86.500      1.05680E-03
  87.500      1.07050E-03
  88.500      1.08290E-03
  89.500      1.09480E-03
  90.500      1.09850E-03
  91.500      9.78420E-04
  92.500      1.87380E-03
  93.500      2.51680E-03
  94.500      3.26350E-03
  95.500      3.55660E-03
  96.500      4.08090E-03
  97.500      3.21920E-03
  98.500      4.06560E-03
  99.500      3.84970E-03
  100.50      4.07650E-03
  101.50      4.05840E-03
  102.50      3.21660E-03
  103.50      4.00460E-03
  104.50      4.03420E-03
  105.50      4.01570E-03
  106.50      3.94170E-03
  107.50      3.92610E-03
  108.50      3.75650E-03
  109.50      3.92810E-03
  110.50      3.89580E-03
  111.50      3.86040E-03
  112.50      3.79160E-03
  113.50      3.83620E-03
  114.50      3.81350E-03
  115.50      3.76550E-03
  116.50      3.75660E-03
  117.50      3.54280E-03
  118.50      3.70650E-03
  119.50      3.68300E-03
  120.50      3.64190E-03
  121.50      2.93980E-03
  122.50      3.59800E-03
  123.50      3.59140E-03
  124.50      3.55520E-03
  125.50      3.56700E-03
  126.50      3.54580E-03
  127.50      3.52450E-03
  128.50      3.50300E-03
  129.50      3.47490E-03
  130.50      3.45530E-03
  131.50      3.43620E-03
  132.50      3.41220E-03
  133.50      3.39130E-03
  134.50      3.37120E-03
  135.50      3.34760E-03
  136.50      3.32330E-03
  137.50      3.29420E-03
  138.50      3.28070E-03
  139.50      3.22180E-03
  140.50      3.19560E-03
  141.50      3.21800E-03
  142.50      3.19180E-03
  143.50      3.17680E-03
  144.20      3.15900E-03
  144.70      3.14950E-03
  145.50      3.13160E-03
  146.50      3.11270E-03
  147.50      3.09370E-03
  148.50      3.07740E-03
  149.50      3.05540E-03
  150.50      3.03750E-03
  151.20      3.02500E-03
  151.70      3.01310E-03
  152.50      2.99610E-03
  153.50      2.96640E-03
  154.50      2.89070E-03
  155.50      2.88380E-03
  156.50      2.90610E-03
  157.50      2.89510E-03
  158.50      2.87790E-03
  159.50      2.85960E-03
  160.50      2.83040E-03
  161.50      2.81230E-03
  162.50      2.78620E-03
  163.50      2.71980E-03
  164.50      2.60080E-03
  165.50      2.74800E-03
  166.50      2.73070E-03
  167.20      2.71300E-03
  167.70      2.71610E-03
  168.50      2.70100E-03
  169.50      2.68440E-03
  170.50      2.66590E-03
  171.50      2.62830E-03
  172.50      2.62200E-03
  173.50      2.61880E-03
  174.50      2.60070E-03
  175.50      2.58240E-03
  176.50      2.56880E-03
  177.50      2.55340E-03
  178.50      2.53770E-03
  179.50      2.52080E-03
  180.50      2.50560E-03
  181.50      2.48980E-03
  182.50      2.47390E-03
  183.50      2.45940E-03
  184.50      2.44360E-03
  185.50      2.42770E-03
  186.50      2.41240E-03
  187.50      2.39750E-03
  188.50      2.38290E-03
  189.50      2.36900E-03
  190.50      2.35470E-03
  191.50      2.34000E-03
  192.50      2.32280E-03
  193.50      2.31150E-03
  194.50      2.29740E-03
  195.50      2.28290E-03
  196.70      2.26660E-03
  197.60      2.25420E-03
  198.40      2.24320E-03
  199.50      2.22820E-03
  200.50      2.21490E-03
  201.50      2.20150E-03
  202.50      2.18820E-03
  203.50      2.17500E-03
  204.50      2.16180E-03
  205.50      1.70710E-03
  206.50      1.65900E-03
  207.40      1.69790E-03
  207.80      1.73910E-03
  208.50      1.85090E-03
  209.50      2.03910E-03
  210.50      2.08780E-03
  211.50      2.08200E-03
  212.50      2.07000E-03
  213.50      2.05470E-03
  214.50      2.04620E-03
  215.50      2.06170E-03
  216.50      2.00860E-03
  217.50      2.05070E-03
  218.50      1.98440E-03
  219.50      2.02570E-03
  220.50      2.01630E-03
  221.50      1.94770E-03
  222.50      1.99190E-03
  223.50      1.98090E-03
  224.50      1.96790E-03
  225.50      1.90400E-03
  226.50      1.94620E-03
  227.50      1.93490E-03
  228.50      1.92310E-03
  229.50      1.89930E-03
  230.50      1.85100E-03
  231.50      1.88900E-03
  232.50      1.87940E-03
  233.50      1.86850E-03
  234.50      1.85780E-03
  235.50      1.84710E-03
  236.50      1.83660E-03
  237.50      1.82590E-03
  238.50      1.76850E-03
  239.50      1.80380E-03
  240.50      1.79510E-03
  241.50      1.78480E-03
  242.50      1.77490E-03
  243.50      1.76480E-03
  244.50      1.75500E-03
  245.50      1.74480E-03
  246.50      1.73540E-03
  247.50      1.72570E-03
  248.50      1.71600E-03
  249.50      1.67160E-03
  250.50      1.69230E-03
  251.30      1.59620E-03
  251.80      1.68090E-03
  252.50      1.67820E-03
  253.50      1.66910E-03
  254.50      1.66000E-03
  255.50      1.65080E-03
  256.50      1.64190E-03
  257.50      1.63290E-03
  258.50      1.62410E-03
  259.50      1.61490E-03
  260.50      1.60790E-03
  261.50      1.59910E-03
  262.50      1.59060E-03
  263.50      1.58200E-03
  264.50      1.57340E-03
  265.50      1.56460E-03
  266.50      1.55580E-03
  267.50      1.54690E-03
  268.50      1.54020E-03
  269.50      1.53020E-03
  270.50      1.52400E-03
  271.50      1.51590E-03
  272.50      1.50530E-03
  273.50      1.46400E-03
  274.50      1.49220E-03
  275.50      1.48440E-03
  276.50      1.47350E-03
  277.50      1.46900E-03
  278.50      1.46130E-03
  279.50      1.45340E-03
  280.50      1.44620E-03
  281.50      1.43880E-03
  282.50      1.42790E-03
  283.50      1.42270E-03
  284.50      1.41680E-03
  285.50      1.40960E-03
  286.50      1.40240E-03
  287.50      1.39520E-03
  288.50      1.38820E-03
  289.50      1.38110E-03
  291.00      1.37070E-03
  293.00      1.35690E-03
  295.00      1.34060E-03
  297.00      1.32990E-03
  299.00      1.31650E-03
  301.00      1.30370E-03
  303.00      1.29070E-03
  305.00      1.27810E-03
  307.00      1.26590E-03
  309.00      1.25360E-03
  311.00      1.24150E-03
  313.00      1.22980E-03
  315.00      1.21810E-03
  317.00      1.20650E-03
  319.00      1.19110E-03
  321.00      1.16910E-03
  323.00      1.17270E-03
  325.00      1.16160E-03
  327.00      1.15060E-03
  329.00      1.14000E-03
  331.00      1.12980E-03
  333.00      1.11950E-03
  335.00      1.10860E-03
  337.00      1.09920E-03
  339.00      1.08920E-03
  341.00      1.07940E-03
  343.00      1.06890E-03
  345.00      1.05810E-03
  347.00      1.04990E-03
  349.00      1.04130E-03
  351.00      1.03210E-03
  353.00      1.02270E-03
  355.00      1.01340E-03
  357.00      1.00640E-03
  359.00      9.95130E-04
  361.00      9.87690E-04
  363.00      9.77730E-04
  364.00      9.62740E-04
  365.00      9.01710E-04
  367.00      8.95470E-04
  369.00      8.89910E-04
  371.00      8.86730E-04
  373.00      8.87210E-04
  375.00      8.97190E-04
  377.00      9.00130E-04
  379.00      9.15700E-04
  381.00      9.31910E-04
  383.00      8.80740E-04
  385.00      9.34230E-04
  387.00      9.38730E-04
  389.00      8.54920E-04
  391.00      9.28150E-04
  393.00      9.16760E-04
  395.00      9.14460E-04
  397.00      8.25180E-04
  399.00      8.98020E-04
  401.00      8.94470E-04
  403.00      8.68450E-04
  405.00      8.82940E-04
  407.00      8.74790E-04
  409.00      8.46290E-04
  411.00      7.94940E-04
  413.00      8.50770E-04
  415.00      8.45240E-04
  417.00      8.40720E-04
  419.00      8.31730E-04
  421.00      8.18700E-04
  423.00      8.21240E-04
  425.00      8.14770E-04
  427.00      8.08370E-04
  429.00      8.02060E-04
  431.00      7.94750E-04
  433.00      7.63160E-04
  435.00      7.31040E-04
  437.00      7.75990E-04
  439.00      7.65970E-04
  441.00      7.65600E-04
  443.00      7.59280E-04
  445.00      7.54050E-04
  447.00      7.37840E-04
  449.00      7.42700E-04
  451.00      7.37140E-04
  453.00      7.30920E-04
  455.00      7.16410E-04
  457.00      7.20780E-04
  459.00      7.15440E-04
  461.00      7.10170E-04
  463.00      7.04880E-04
  465.00      6.99280E-04
  467.00      6.94200E-04
  469.00      6.70530E-04
  471.00      6.81760E-04
  473.00      6.79710E-04
  475.00      6.74820E-04
  477.00      6.69980E-04
  479.00      6.65190E-04
  481.00      6.60450E-04
  483.00      6.54900E-04
  485.00      6.34170E-04
  487.00      5.99980E-04
  489.00      6.40350E-04
  491.00      6.37500E-04
  493.00      6.27760E-04
  495.00      6.28660E-04
  497.00      6.24320E-04
  499.00      6.20000E-04
  501.00      6.13030E-04
  503.00      6.11510E-04
  505.00      6.06450E-04
  507.00      6.03190E-04
  509.00      5.99090E-04
  511.00      5.95030E-04
  513.00      5.91010E-04
  515.00      5.87030E-04
  517.00      5.83090E-04
  519.00      5.79190E-04
  521.00      5.75330E-04
  523.00      5.71510E-04
  525.00      5.67730E-04
  527.00      5.63970E-04
  529.00      5.60270E-04
  531.00      5.56590E-04
  533.00      5.52950E-04
  535.00      5.49350E-04
  537.00      5.45780E-04
  539.00      5.42240E-04
  541.00      5.31230E-04
  543.00      5.35270E-04
  545.00      5.31840E-04
  547.00      5.28440E-04
  549.00      5.25070E-04
  551.00      5.21730E-04
  553.00      5.18430E-04
  555.00      5.15160E-04
  557.00      5.11910E-04
  559.00      5.08660E-04
  561.00      5.05510E-04
  563.00      5.02360E-04
  565.00      4.99230E-04
  567.00      4.96140E-04
  569.00      4.89180E-04
  571.00      4.68890E-04
  573.00      4.66190E-04
  575.00      4.63520E-04
  577.00      4.60900E-04
  579.00      4.58380E-04
  581.00      4.56090E-04
  583.00      4.54190E-04
  585.00      4.52820E-04
  587.00      4.46660E-04
  589.00      4.50450E-04
  591.00      4.49730E-04
  593.00      4.49060E-04
  595.00      4.48560E-04
  597.00      4.48130E-04
  599.00      4.47870E-04
  601.00      4.46520E-04
  603.00      4.44570E-04
  605.00      4.42930E-04
  607.00      4.40370E-04
  609.00      4.37800E-04
  611.00      4.35090E-04
  613.00      4.32570E-04
  615.00      4.30220E-04
  617.00      4.27220E-04
  619.00      4.25280E-04
  621.00      4.22840E-04
  623.00      4.19650E-04
  625.00      4.17980E-04
  627.00      4.15640E-04
  629.00      4.13280E-04
  631.00      4.09830E-04
  633.00      4.08620E-04
  635.00      4.06320E-04
  637.00      4.04040E-04
  639.00      4.01770E-04
  641.00      3.98010E-04
  643.00      3.97310E-04
  645.00      3.95110E-04
  647.00      3.92920E-04
  649.00      3.90750E-04
  651.00      3.88520E-04
  653.00      3.83760E-04
  655.00      3.78610E-04
  657.00      3.55700E-04
  659.00      3.79060E-04
  661.00      3.78090E-04
  663.00      3.76050E-04
  665.00      3.74060E-04
  667.00      3.70230E-04
  669.00      3.66030E-04
  671.00      3.68040E-04
  673.00      3.66090E-04
  675.00      3.64140E-04
  677.00      3.62210E-04
  679.00      3.60280E-04
  681.00      3.58380E-04
  683.00      3.56480E-04
  685.00      3.54610E-04
  687.00      3.52740E-04
  689.00      3.48210E-04
  691.00      3.49050E-04
  693.00      3.47250E-04
  695.00      3.45440E-04
  697.00      3.43650E-04
  699.00      3.41870E-04
  701.00      3.40110E-04
  703.00      3.38360E-04
  705.00      3.36620E-04
  707.00      3.32630E-04
  709.00      3.33190E-04
  711.00      3.31500E-04
  713.00      3.29810E-04
  715.00      3.28140E-04
  717.00      3.24570E-04
  719.00      3.23850E-04
  721.00      3.23200E-04
  723.00      3.21580E-04
  725.00      3.19970E-04
  727.00      3.18370E-04
  729.00      3.15740E-04
  731.00      3.15210E-04
  733.00      3.13650E-04
  735.00      3.12100E-04
  737.00      3.10560E-04
  739.00      3.09030E-04
  741.00      3.07510E-04
  743.00      3.06010E-04
  745.00      3.04520E-04
  747.00      3.03040E-04
  749.00      3.01570E-04
  751.00      3.00080E-04
  753.00      2.98650E-04
  755.00      2.97210E-04
  757.00      2.95780E-04
  759.00      2.91540E-04
  761.00      2.92880E-04
  763.00      2.91550E-04
  765.00      2.90160E-04
  767.00      2.88780E-04
  769.00      2.87400E-04
  771.00      2.86040E-04
  773.00      2.84690E-04
  775.00      2.83350E-04
  777.00      2.82020E-04
  779.00      2.80690E-04
  781.00      2.79350E-04
  783.00      2.78070E-04
  785.00      2.76850E-04
  787.00      2.75560E-04
  789.00      2.74280E-04
  791.00      2.73010E-04
  793.00      2.71750E-04
  795.00      2.70500E-04
  797.00      2.69250E-04
  799.00      2.68020E-04
  801.00      2.66790E-04
  803.00      2.65580E-04
  805.00      2.64360E-04
  807.00      2.63160E-04
  809.00      2.61950E-04
  811.00      2.60780E-04
  813.00      2.59600E-04
  815.00      2.58390E-04
  817.00      2.57270E-04
  819.00      2.55400E-04
  821.00      2.48790E-04
  823.00      2.46500E-04
  825.00      2.46520E-04
  827.00      2.45530E-04
  829.00      2.44680E-04
  831.00      2.43660E-04
  833.00      2.42590E-04
  835.00      2.41340E-04
  837.00      2.40500E-04
  839.00      2.39560E-04
  841.00      2.38620E-04
  843.00      2.37660E-04
  845.00      2.36410E-04
  847.00      2.35850E-04
  849.00      2.34940E-04
  851.00      2.34160E-04
  853.00      2.33290E-04
  855.00      2.32240E-04
  857.00      2.32110E-04
  859.00      2.30000E-04
  861.00      2.29720E-04
  863.00      2.30210E-04
  865.00      2.28410E-04
  867.00      2.25550E-04
  869.00      2.28050E-04
  871.00      2.28100E-04
  873.00      2.25990E-04
  875.00      2.20070E-04
  877.00      2.23590E-04
  879.00      2.25660E-04
  881.00      2.25310E-04
  883.00      2.24220E-04
  885.00      2.18680E-04
  887.00      2.12810E-04
  889.00      2.20540E-04
  891.00      2.21250E-04
  893.00      2.20520E-04
  895.00      2.19950E-04
  897.00      2.18750E-04
  899.00      2.15900E-04
  901.00      2.05730E-04
  903.00      2.09330E-04
  905.00      2.14410E-04
  907.00      2.13770E-04
  909.00      2.13750E-04
  911.00      2.12980E-04
  913.00      2.12310E-04
  915.00      2.11450E-04
  917.00      2.10340E-04
  919.00      2.08920E-04
  921.00      2.04600E-04
  923.00      1.93580E-04
  925.00      2.02810E-04
  927.00      2.05450E-04
  929.00      2.05410E-04
  931.00      2.04430E-04
  933.00      2.03810E-04
  935.00      2.00070E-04
  937.00      2.01890E-04
  939.00      2.01460E-04
  941.00      2.00660E-04
  943.00      1.99870E-04
  945.00      1.99080E-04
  947.00      1.97910E-04
  949.00      1.97390E-04
  951.00      1.95200E-04
  953.00      1.90920E-04
  955.00      1.80880E-04
  957.00      1.91230E-04
  959.00      1.92950E-04
  961.00      1.92650E-04
  963.00      1.91880E-04
  965.00      1.91420E-04
  967.00      1.90680E-04
  969.00      1.89910E-04
  971.00      1.89050E-04
  973.00      1.88480E-04
  975.00      1.87690E-04
  977.00      1.86550E-04
  979.00      1.86320E-04
  981.00      1.85610E-04
  983.00      1.84910E-04
  985.00      1.84200E-04
  987.00      1.83500E-04
  989.00      1.82810E-04
  991.00      1.82110E-04
  993.00      1.81430E-04
  995.00      1.80740E-04
  997.00      1.80060E-04
  999.00      1.79350E-04
  1002.5      1.74370E-04
  1007.5      1.71470E-04
  1012.5      1.72810E-04
  1017.5      1.73300E-04
  1022.5      1.71700E-04
  1027.5      1.70150E-04
  1032.5      1.68320E-04
  1037.5      1.67070E-04
  1042.5      1.65210E-04
  1047.5      1.64080E-04
  1052.5      1.62620E-04
  1057.5      1.61170E-04
  1062.5      1.59740E-04
  1067.5      1.58250E-04
  1072.5      1.56940E-04
  1077.5      1.55570E-04
  1082.5      1.53530E-04
  1087.5      1.52710E-04
  1092.5      1.45350E-04
  1097.5      1.48570E-04
  1102.5      1.48740E-04
  1107.5      1.47670E-04
  1112.5      1.46450E-04
  1117.5      1.45250E-04
  1122.5      1.44010E-04
  1127.5      1.42820E-04
  1132.5      1.41630E-04
  1137.5      1.40450E-04
  1142.5      1.39290E-04
  1147.5      1.38140E-04
  1152.5      1.37010E-04
  1157.5      1.35890E-04
  1162.5      1.33960E-04
  1167.5      1.33230E-04
  1172.5      1.32610E-04
  1177.5      1.31540E-04
  1182.5      1.30490E-04
  1187.5      1.29450E-04
  1192.5      1.28420E-04
  1197.5      1.26890E-04
  1202.5      1.26400E-04
  1207.5      1.25400E-04
  1212.5      1.24420E-04
  1217.5      1.23450E-04
  1222.5      1.22490E-04
  1227.5      1.21550E-04
  1232.5      1.20610E-04
  1237.5      1.19690E-04
  1242.5      1.18770E-04
  1247.5      1.17870E-04
  1252.5      1.16890E-04
  1257.5      1.16090E-04
  1262.5      1.15210E-04
  1267.5      1.14350E-04
  1272.5      1.13490E-04
  1277.5      1.11700E-04
  1282.5      1.07150E-04
  1287.5      1.10660E-04
  1292.5      1.10170E-04
  1297.5      1.09120E-04
  1302.5      1.08560E-04
  1307.5      1.07770E-04
  1312.5      1.06990E-04
  1317.5      1.06210E-04
  1322.5      1.05450E-04
  1327.5      1.04690E-04
  1332.5      1.03940E-04
  1337.5      1.03200E-04
  1342.5      1.02440E-04
  1347.5      1.01740E-04
  1352.5      1.01030E-04
  1357.5      1.00310E-04
  1362.5      9.96120E-05
  1367.5      9.89160E-05
  1372.5      9.82280E-05
  1377.5      9.75470E-05
  1382.5      9.68730E-05
  1387.5      9.62060E-05
  1392.5      9.55450E-05
  1397.5      9.48920E-05
