 Castelli and Kurucz 2004-2012 Atmosphere
 T     49000.     G    4.50000 [-2.5] N(He)/Ntot=0.0784 VTURB=2  L/H=1.25 NOVER
 Wavelength  Eddington Hnu
   (nm)    (ergs/s/cm2/Hz/sr)
  9.0900      3.35780E-18
  9.3500      9.31970E-18
  9.6100      2.44870E-17
  9.7700      4.33230E-17
  9.9600      8.32810E-17
  10.200      1.83880E-16
  10.380      3.25600E-16
  10.560      5.65920E-16
  10.770      1.05470E-15
  11.040      2.27110E-15
  11.400      5.98590E-15
  11.780      1.56800E-14
  12.130      3.61990E-14
  12.480      7.99200E-14
  12.710      1.31530E-13
  12.840      1.73080E-13
  13.050      2.66450E-13
  13.240      3.89490E-13
  13.390      5.21770E-13
  13.660      8.70140E-13
  13.980      1.55720E-12
  14.330      2.86110E-12
  14.720      5.44420E-12
  15.100      9.91160E-12
  15.520      1.85720E-11
  15.880      3.10120E-11
  16.200      4.80890E-11
  16.600      8.12330E-11
  17.030      1.38650E-10
  17.340      2.00820E-10
  17.680      2.97430E-10
  18.020      4.33820E-10
  18.170      5.08320E-10
  18.610      8.08150E-10
  19.100      1.31520E-09
  19.390      1.73670E-09
  19.840      2.62670E-09
  20.180      3.54730E-09
  20.500      4.66520E-09
  21.050      7.32140E-09
  21.620      1.14000E-08
  21.980      1.49000E-08
  22.300      1.87570E-08
  22.680      2.44440E-08
  23.000      4.03390E-07
  23.400      7.59710E-06
  24.000      6.88120E-05
  24.650      2.32290E-04
  25.240      3.94050E-04
  25.680      2.72130E-04
  26.000      5.51560E-04
  26.400      6.58410E-04
  26.850      7.07030E-04
  27.350      7.97570E-04
  27.850      8.40960E-04
  28.400      8.98740E-04
  29.000      9.85220E-04
  29.600      9.28260E-04
  30.100      5.22950E-04
  30.800      6.48280E-04
  31.800      1.07340E-03
  32.800      1.17140E-03
  33.800      1.20790E-03
  34.800      1.27500E-03
  35.700      1.38450E-03
  36.600      1.48100E-03
  37.500      1.52860E-03
  38.500      1.44470E-03
  39.500      1.63520E-03
  40.500      1.75520E-03
  41.400      1.81440E-03
  42.200      1.82230E-03
  43.000      1.89130E-03
  44.100      2.00880E-03
  45.100      2.06950E-03
  46.000      2.07760E-03
  47.000      2.11450E-03
  48.000      2.20120E-03
  49.000      2.20080E-03
  50.000      2.31090E-03
  50.600      2.26130E-03
  51.200      2.39860E-03
  52.000      2.41670E-03
  53.000      2.47060E-03
  54.000      2.42990E-03
  55.000      2.43510E-03
  56.000      2.57050E-03
  57.000      2.62810E-03
  58.000      2.64140E-03
  59.000      2.70210E-03
  60.000      2.69590E-03
  61.000      2.67470E-03
  62.000      2.75390E-03
  63.000      2.75430E-03
  64.000      2.82640E-03
  65.000      2.83050E-03
  65.800      2.80460E-03
  66.500      2.88800E-03
  67.500      2.91450E-03
  68.500      2.88330E-03
  69.500      2.96270E-03
  70.500      2.90760E-03
  71.600      2.99340E-03
  72.600      3.02540E-03
  73.500      3.04080E-03
  74.500      3.04990E-03
  75.500      3.04910E-03
  76.500      3.01990E-03
  77.500      3.08710E-03
  78.500      3.07230E-03
  79.500      3.08970E-03
  80.500      3.12970E-03
  81.500      3.13980E-03
  82.500      3.15730E-03
  83.500      3.10180E-03
  84.500      3.17200E-03
  85.500      3.15830E-03
  86.500      3.19240E-03
  87.500      3.20460E-03
  88.500      3.20670E-03
  89.500      3.21020E-03
  90.500      3.18650E-03
  91.500      2.52370E-03
  92.500      4.09660E-03
  93.500      4.97040E-03
  94.500      5.72930E-03
  95.500      6.06800E-03
  96.500      6.52560E-03
  97.500      5.71030E-03
  98.500      6.44810E-03
  99.500      6.16410E-03
  100.50      6.40080E-03
  101.50      6.35070E-03
  102.50      5.57620E-03
  103.50      6.27560E-03
  104.50      6.27450E-03
  105.50      6.23590E-03
  106.50      6.17190E-03
  107.50      6.15010E-03
  108.50      5.91540E-03
  109.50      6.06970E-03
  110.50      6.01750E-03
  111.50      5.97100E-03
  112.50      5.89580E-03
  113.50      5.90690E-03
  114.50      5.86580E-03
  115.50      5.81650E-03
  116.50      5.75660E-03
  117.50      5.61680E-03
  118.50      5.69800E-03
  119.50      5.64360E-03
  120.50      5.60750E-03
  121.50      4.92110E-03
  122.50      5.52260E-03
  123.50      5.44260E-03
  124.50      5.40600E-03
  125.50      5.41560E-03
  126.50      5.37600E-03
  127.50      5.33630E-03
  128.50      5.29610E-03
  129.50      5.25880E-03
  130.50      5.21600E-03
  131.50      5.17840E-03
  132.50      5.13470E-03
  133.50      5.10200E-03
  134.50      5.06810E-03
  135.50      5.02200E-03
  136.50      4.97410E-03
  137.50      4.90740E-03
  138.50      4.90390E-03
  139.50      4.85190E-03
  140.50      4.79430E-03
  141.50      4.80230E-03
  142.50      4.76680E-03
  143.50      4.73570E-03
  144.20      4.69380E-03
  144.70      4.68130E-03
  145.50      4.65220E-03
  146.50      4.61910E-03
  147.50      4.59500E-03
  148.50      4.56990E-03
  149.50      4.53490E-03
  150.50      4.50390E-03
  151.20      4.48210E-03
  151.70      4.46240E-03
  152.50      4.43910E-03
  153.50      4.40340E-03
  154.50      4.30810E-03
  155.50      4.28000E-03
  156.50      4.30790E-03
  157.50      4.27870E-03
  158.50      4.24510E-03
  159.50      4.21580E-03
  160.50      4.18310E-03
  161.50      4.15390E-03
  162.50      4.11960E-03
  163.50      4.03590E-03
  164.50      3.87090E-03
  165.50      4.03700E-03
  166.50      4.00980E-03
  167.20      3.98520E-03
  167.70      3.97550E-03
  168.50      3.95320E-03
  169.50      3.92550E-03
  170.50      3.89690E-03
  171.50      3.84250E-03
  172.50      3.83570E-03
  173.50      3.81590E-03
  174.50      3.78860E-03
  175.50      3.76180E-03
  176.50      3.73590E-03
  177.50      3.71000E-03
  178.50      3.68410E-03
  179.50      3.65810E-03
  180.50      3.63270E-03
  181.50      3.60750E-03
  182.50      3.58260E-03
  183.50      3.55790E-03
  184.50      3.53350E-03
  185.50      3.50890E-03
  186.50      3.48490E-03
  187.50      3.46110E-03
  188.50      3.43740E-03
  189.50      3.41430E-03
  190.50      3.39110E-03
  191.50      3.36810E-03
  192.50      3.34460E-03
  193.50      3.32280E-03
  194.50      3.30040E-03
  195.50      3.27820E-03
  196.70      3.25190E-03
  197.60      3.23210E-03
  198.40      3.21510E-03
  199.50      3.19150E-03
  200.50      3.17050E-03
  201.50      3.14950E-03
  202.50      3.12870E-03
  203.50      3.10810E-03
  204.50      3.08710E-03
  205.50      2.45090E-03
  206.50      2.38690E-03
  207.40      2.44090E-03
  207.80      2.49770E-03
  208.50      2.66300E-03
  209.50      2.91860E-03
  210.50      2.96860E-03
  211.50      2.95730E-03
  212.50      2.93960E-03
  213.50      2.91530E-03
  214.50      2.90110E-03
  215.50      2.92430E-03
  216.50      2.84850E-03
  217.50      2.90380E-03
  218.50      2.81200E-03
  219.50      2.86570E-03
  220.50      2.85070E-03
  221.50      2.75710E-03
  222.50      2.81460E-03
  223.50      2.79710E-03
  224.50      2.77830E-03
  225.50      2.69090E-03
  226.50      2.74490E-03
  227.50      2.72780E-03
  228.50      2.71070E-03
  229.50      2.68940E-03
  230.50      2.61100E-03
  231.50      2.65960E-03
  232.50      2.64440E-03
  233.50      2.62820E-03
  234.50      2.61210E-03
  235.50      2.59610E-03
  236.50      2.58030E-03
  237.50      2.56460E-03
  238.50      2.48710E-03
  239.50      2.53310E-03
  240.50      2.51810E-03
  241.50      2.50310E-03
  242.50      2.48820E-03
  243.50      2.47330E-03
  244.50      2.45860E-03
  245.50      2.44370E-03
  246.50      2.42940E-03
  247.50      2.41500E-03
  248.50      2.40070E-03
  249.50      2.36820E-03
  250.50      2.36630E-03
  251.30      2.23500E-03
  251.80      2.35260E-03
  252.50      2.34380E-03
  253.50      2.33120E-03
  254.50      2.31770E-03
  255.50      2.30420E-03
  256.50      2.29090E-03
  257.50      2.27770E-03
  258.50      2.26450E-03
  259.50      2.25130E-03
  260.50      2.23870E-03
  261.50      2.22580E-03
  262.50      2.21320E-03
  263.50      2.20070E-03
  264.50      2.18820E-03
  265.50      2.17580E-03
  266.50      2.16350E-03
  267.50      2.15110E-03
  268.50      2.13920E-03
  269.50      2.12710E-03
  270.50      2.11540E-03
  271.50      2.10360E-03
  272.50      2.09170E-03
  273.50      2.03090E-03
  274.50      2.06880E-03
  275.50      2.05740E-03
  276.50      2.04590E-03
  277.50      2.03480E-03
  278.50      2.02370E-03
  279.50      2.01260E-03
  280.50      2.00170E-03
  281.50      1.99080E-03
  282.50      1.97980E-03
  283.50      1.96930E-03
  284.50      1.95870E-03
  285.50      1.94810E-03
  286.50      1.93770E-03
  287.50      1.92730E-03
  288.50      1.91700E-03
  289.50      1.90680E-03
  291.00      1.89160E-03
  293.00      1.87170E-03
  295.00      1.85180E-03
  297.00      1.83260E-03
  299.00      1.81350E-03
  301.00      1.79480E-03
  303.00      1.77630E-03
  305.00      1.75810E-03
  307.00      1.74000E-03
  309.00      1.72260E-03
  311.00      1.70510E-03
  313.00      1.68800E-03
  315.00      1.67110E-03
  317.00      1.65440E-03
  319.00      1.63740E-03
  321.00      1.60040E-03
  323.00      1.60590E-03
  325.00      1.59020E-03
  327.00      1.57450E-03
  329.00      1.55950E-03
  331.00      1.54440E-03
  333.00      1.52960E-03
  335.00      1.51490E-03
  337.00      1.50050E-03
  339.00      1.48630E-03
  341.00      1.47220E-03
  343.00      1.45860E-03
  345.00      1.44480E-03
  347.00      1.43150E-03
  349.00      1.41820E-03
  351.00      1.40510E-03
  353.00      1.39220E-03
  355.00      1.37940E-03
  357.00      1.36690E-03
  359.00      1.35440E-03
  361.00      1.34220E-03
  363.00      1.33000E-03
  364.00      1.30010E-03
  365.00      1.19940E-03
  367.00      1.19010E-03
  369.00      1.18370E-03
  371.00      1.18530E-03
  373.00      1.19200E-03
  375.00      1.20920E-03
  377.00      1.22180E-03
  379.00      1.23310E-03
  381.00      1.24250E-03
  383.00      1.20090E-03
  385.00      1.23330E-03
  387.00      1.23470E-03
  389.00      1.16150E-03
  391.00      1.21660E-03
  393.00      1.19930E-03
  395.00      1.19810E-03
  397.00      1.12150E-03
  399.00      1.17700E-03
  401.00      1.17090E-03
  403.00      1.14460E-03
  405.00      1.15200E-03
  407.00      1.14240E-03
  409.00      1.11650E-03
  411.00      1.06840E-03
  413.00      1.11340E-03
  415.00      1.10490E-03
  417.00      1.09610E-03
  419.00      1.08360E-03
  421.00      1.06570E-03
  423.00      1.06970E-03
  425.00      1.06110E-03
  427.00      1.05260E-03
  429.00      1.04420E-03
  431.00      1.03580E-03
  433.00      1.00670E-03
  435.00      9.76460E-04
  437.00      1.01090E-03
  439.00      1.00320E-03
  441.00      9.95800E-04
  443.00      9.88050E-04
  445.00      9.80410E-04
  447.00      9.70410E-04
  449.00      9.65380E-04
  451.00      9.57980E-04
  453.00      9.49680E-04
  455.00      9.30310E-04
  457.00      9.36310E-04
  459.00      9.29250E-04
  461.00      9.22260E-04
  463.00      9.15340E-04
  465.00      9.08460E-04
  467.00      9.01110E-04
  469.00      8.70150E-04
  471.00      8.88120E-04
  473.00      8.81950E-04
  475.00      8.75500E-04
  477.00      8.69100E-04
  479.00      8.62780E-04
  481.00      8.56520E-04
  483.00      8.50260E-04
  485.00      8.31870E-04
  487.00      7.98540E-04
  489.00      8.31410E-04
  491.00      8.26240E-04
  493.00      8.19600E-04
  495.00      8.14580E-04
  497.00      8.08840E-04
  499.00      8.03150E-04
  501.00      7.97150E-04
  503.00      7.91970E-04
  505.00      7.86400E-04
  507.00      7.81010E-04
  509.00      7.75610E-04
  511.00      7.70270E-04
  513.00      7.64990E-04
  515.00      7.59750E-04
  517.00      7.54580E-04
  519.00      7.49450E-04
  521.00      7.44370E-04
  523.00      7.39350E-04
  525.00      7.34370E-04
  527.00      7.29450E-04
  529.00      7.24580E-04
  531.00      7.19750E-04
  533.00      7.14970E-04
  535.00      7.10240E-04
  537.00      7.05550E-04
  539.00      7.00910E-04
  541.00      6.85780E-04
  543.00      6.91750E-04
  545.00      6.87260E-04
  547.00      6.82800E-04
  549.00      6.78380E-04
  551.00      6.74000E-04
  553.00      6.69670E-04
  555.00      6.65380E-04
  557.00      6.61120E-04
  559.00      6.56900E-04
  561.00      6.52740E-04
  563.00      6.48610E-04
  565.00      6.44520E-04
  567.00      6.40460E-04
  569.00      6.29740E-04
  571.00      5.96220E-04
  573.00      5.92740E-04
  575.00      5.89300E-04
  577.00      5.85990E-04
  579.00      5.82990E-04
  581.00      5.80370E-04
  583.00      5.78530E-04
  585.00      5.77150E-04
  587.00      5.74630E-04
  589.00      5.75270E-04
  591.00      5.74860E-04
  593.00      5.74870E-04
  595.00      5.75420E-04
  597.00      5.75940E-04
  599.00      5.76980E-04
  601.00      5.75000E-04
  603.00      5.72830E-04
  605.00      5.71030E-04
  607.00      5.66940E-04
  609.00      5.64430E-04
  611.00      5.60510E-04
  613.00      5.57250E-04
  615.00      5.54760E-04
  617.00      5.49640E-04
  619.00      5.48220E-04
  621.00      5.45130E-04
  623.00      5.39820E-04
  625.00      5.38440E-04
  627.00      5.35740E-04
  629.00      5.32660E-04
  631.00      5.26620E-04
  633.00      5.26390E-04
  635.00      5.23600E-04
  637.00      5.20620E-04
  639.00      5.17570E-04
  641.00      5.10920E-04
  643.00      5.11850E-04
  645.00      5.08980E-04
  647.00      5.06130E-04
  649.00      5.03300E-04
  651.00      5.00310E-04
  653.00      4.92790E-04
  655.00      4.90610E-04
  657.00      4.67340E-04
  659.00      4.89030E-04
  661.00      4.86820E-04
  663.00      4.84160E-04
  665.00      4.81520E-04
  667.00      4.77960E-04
  669.00      4.70810E-04
  671.00      4.73700E-04
  673.00      4.71140E-04
  675.00      4.68600E-04
  677.00      4.66080E-04
  679.00      4.63580E-04
  681.00      4.61100E-04
  683.00      4.58640E-04
  685.00      4.56200E-04
  687.00      4.53770E-04
  689.00      4.45880E-04
  691.00      4.48820E-04
  693.00      4.46630E-04
  695.00      4.44290E-04
  697.00      4.41960E-04
  699.00      4.39650E-04
  701.00      4.37360E-04
  703.00      4.35080E-04
  705.00      4.32830E-04
  707.00      4.30100E-04
  709.00      4.28370E-04
  711.00      4.26170E-04
  713.00      4.23980E-04
  715.00      4.21810E-04
  717.00      4.16060E-04
  719.00      4.15520E-04
  721.00      4.15400E-04
  723.00      4.13290E-04
  725.00      4.11200E-04
  727.00      4.09130E-04
  729.00      4.06960E-04
  731.00      4.05030E-04
  733.00      4.03000E-04
  735.00      4.00990E-04
  737.00      3.99000E-04
  739.00      3.97010E-04
  741.00      3.95050E-04
  743.00      3.93090E-04
  745.00      3.91150E-04
  747.00      3.89230E-04
  749.00      3.87320E-04
  751.00      3.85420E-04
  753.00      3.83540E-04
  755.00      3.81670E-04
  757.00      3.79820E-04
  759.00      3.72950E-04
  761.00      3.75880E-04
  763.00      3.74340E-04
  765.00      3.72530E-04
  767.00      3.70750E-04
  769.00      3.68970E-04
  771.00      3.67210E-04
  773.00      3.65460E-04
  775.00      3.63720E-04
  777.00      3.61990E-04
  779.00      3.60280E-04
  781.00      3.58580E-04
  783.00      3.56890E-04
  785.00      3.55210E-04
  787.00      3.53550E-04
  789.00      3.51890E-04
  791.00      3.50250E-04
  793.00      3.48620E-04
  795.00      3.47000E-04
  797.00      3.45390E-04
  799.00      3.43790E-04
  801.00      3.42210E-04
  803.00      3.40630E-04
  805.00      3.39070E-04
  807.00      3.37510E-04
  809.00      3.35970E-04
  811.00      3.34440E-04
  813.00      3.32910E-04
  815.00      3.31400E-04
  817.00      3.29900E-04
  819.00      3.27170E-04
  821.00      3.15050E-04
  823.00      3.12120E-04
  825.00      3.12030E-04
  827.00      3.10990E-04
  829.00      3.09670E-04
  831.00      3.08350E-04
  833.00      3.07040E-04
  835.00      3.05760E-04
  837.00      3.04520E-04
  839.00      3.03310E-04
  841.00      3.02200E-04
  843.00      3.01100E-04
  845.00      3.00010E-04
  847.00      2.98990E-04
  849.00      2.98100E-04
  851.00      2.97110E-04
  853.00      2.96310E-04
  855.00      2.95170E-04
  857.00      2.94690E-04
  859.00      2.93470E-04
  861.00      2.92600E-04
  863.00      2.92440E-04
  865.00      2.91370E-04
  867.00      2.89260E-04
  869.00      2.90280E-04
  871.00      2.89930E-04
  873.00      2.88890E-04
  875.00      2.84690E-04
  877.00      2.86910E-04
  879.00      2.87460E-04
  881.00      2.86990E-04
  883.00      2.86100E-04
  885.00      2.82310E-04
  887.00      2.77080E-04
  889.00      2.82040E-04
  891.00      2.81910E-04
  893.00      2.80920E-04
  895.00      2.80270E-04
  897.00      2.78870E-04
  899.00      2.76490E-04
  901.00      2.68260E-04
  903.00      2.70620E-04
  905.00      2.73590E-04
  907.00      2.73230E-04
  909.00      2.72240E-04
  911.00      2.70560E-04
  913.00      2.70010E-04
  915.00      2.68910E-04
  917.00      2.67810E-04
  919.00      2.66390E-04
  921.00      2.63290E-04
  923.00      2.53380E-04
  925.00      2.60590E-04
  927.00      2.61990E-04
  929.00      2.61350E-04
  931.00      2.60300E-04
  933.00      2.59060E-04
  935.00      2.53540E-04
  937.00      2.56040E-04
  939.00      2.56130E-04
  941.00      2.55130E-04
  943.00      2.54120E-04
  945.00      2.53110E-04
  947.00      2.52100E-04
  949.00      2.51100E-04
  951.00      2.49620E-04
  953.00      2.46160E-04
  955.00      2.36610E-04
  957.00      2.45100E-04
  959.00      2.45920E-04
  961.00      2.45240E-04
  963.00      2.44280E-04
  965.00      2.43330E-04
  967.00      2.42390E-04
  969.00      2.41450E-04
  971.00      2.40510E-04
  973.00      2.39580E-04
  975.00      2.38370E-04
  977.00      2.36270E-04
  979.00      2.36820E-04
  981.00      2.35910E-04
  983.00      2.35010E-04
  985.00      2.34110E-04
  987.00      2.33220E-04
  989.00      2.32330E-04
  991.00      2.31450E-04
  993.00      2.30570E-04
  995.00      2.29700E-04
  997.00      2.28830E-04
  999.00      2.27960E-04
  1002.5      2.23890E-04
  1007.5      2.20350E-04
  1012.5      2.19330E-04
  1017.5      2.20200E-04
  1022.5      2.18180E-04
  1027.5      2.16180E-04
  1032.5      2.14170E-04
  1037.5      2.12250E-04
  1042.5      2.09340E-04
  1047.5      2.08440E-04
  1052.5      2.06570E-04
  1057.5      2.04730E-04
  1062.5      2.02900E-04
  1067.5      2.01110E-04
  1072.5      1.99340E-04
  1077.5      1.97590E-04
  1082.5      1.95680E-04
  1087.5      1.94140E-04
  1092.5      1.87550E-04
  1097.5      1.89800E-04
  1102.5      1.89170E-04
  1107.5      1.87560E-04
  1112.5      1.85960E-04
  1117.5      1.84480E-04
  1122.5      1.82920E-04
  1127.5      1.81380E-04
  1132.5      1.79860E-04
  1137.5      1.78360E-04
  1142.5      1.76880E-04
  1147.5      1.75420E-04
  1152.5      1.73970E-04
  1157.5      1.72540E-04
  1162.5      1.69650E-04
  1167.5      1.68670E-04
  1172.5      1.68360E-04
  1177.5      1.67000E-04
  1182.5      1.65660E-04
  1187.5      1.64330E-04
  1192.5      1.63020E-04
  1197.5      1.61680E-04
  1202.5      1.60440E-04
  1207.5      1.59180E-04
  1212.5      1.57920E-04
  1217.5      1.56690E-04
  1222.5      1.55470E-04
  1227.5      1.54260E-04
  1232.5      1.53060E-04
  1237.5      1.51880E-04
  1242.5      1.50720E-04
  1247.5      1.49570E-04
  1252.5      1.48420E-04
  1257.5      1.47300E-04
  1262.5      1.46180E-04
  1267.5      1.45080E-04
  1272.5      1.43990E-04
  1277.5      1.42570E-04
  1282.5      1.37770E-04
  1287.5      1.40660E-04
  1292.5      1.39760E-04
  1297.5      1.38720E-04
  1302.5      1.37710E-04
  1307.5      1.36700E-04
  1312.5      1.35700E-04
  1317.5      1.34720E-04
  1322.5      1.33740E-04
  1327.5      1.32780E-04
  1332.5      1.31820E-04
  1337.5      1.30880E-04
  1342.5      1.29950E-04
  1347.5      1.29020E-04
  1352.5      1.28110E-04
  1357.5      1.27200E-04
  1362.5      1.26310E-04
  1367.5      1.25420E-04
  1372.5      1.24550E-04
  1377.5      1.23680E-04
  1382.5      1.22820E-04
  1387.5      1.21970E-04
  1392.5      1.21130E-04
  1397.5      1.20300E-04
