 Castelli and Kurucz 2004-2012 Atmosphere
 T     37000.     G    4.00000 [-2.5] N(He)/Ntot=0.0784 VTURB=2  L/H=1.25 NOVER
 Wavelength  Eddington Hnu
   (nm)    (ergs/s/cm2/Hz/sr)
  9.0900      3.99550E-25
  9.3500      1.80320E-24
  9.6100      7.56040E-24
  9.7700      1.76290E-23
  9.9600      4.65990E-23
  10.200      1.51470E-22
  10.380      3.54200E-22
  10.560      8.06180E-22
  10.770      2.04130E-21
  11.040      6.40670E-21
  11.400      2.70750E-20
  11.780      1.13180E-19
  12.130      3.92740E-19
  12.480      1.26910E-18
  12.710      2.64920E-18
  12.840      3.96950E-18
  13.050      7.50910E-18
  13.240      1.31530E-17
  13.390      2.02450E-17
  13.660      4.29710E-17
  13.980      1.00900E-16
  14.330      2.45540E-16
  14.720      6.30330E-16
  15.100      1.50800E-15
  15.520      3.75900E-15
  15.880      7.90900E-15
  16.200      1.48840E-14
  16.600      3.17510E-14
  17.030      6.88390E-14
  17.340      1.17300E-13
  17.680      2.05920E-13
  18.020      3.53770E-13
  18.170      4.45980E-13
  18.610      8.61550E-13
  19.100      1.73110E-12
  19.390      2.57060E-12
  19.840      4.63230E-12
  20.180      7.10380E-12
  20.500      1.04810E-11
  21.050      1.98600E-11
  21.620      3.71880E-11
  21.980      5.43010E-11
  22.300      7.51830E-11
  22.680      1.09270E-10
  23.000      2.67870E-09
  23.400      1.11660E-08
  24.000      3.00150E-08
  24.650      1.98050E-07
  25.240      6.79490E-07
  25.680      3.76730E-07
  26.000      2.82940E-06
  26.400      5.99390E-06
  26.850      9.73300E-06
  27.350      1.38450E-05
  27.850      1.61060E-05
  28.400      2.12580E-05
  29.000      2.35680E-05
  29.600      1.42990E-05
  30.100      1.34970E-06
  30.800      7.68530E-06
  31.800      3.25790E-05
  32.800      4.35220E-05
  33.800      4.85800E-05
  34.800      5.53320E-05
  35.700      6.25330E-05
  36.600      6.97840E-05
  37.500      7.38240E-05
  38.500      7.37360E-05
  39.500      8.45150E-05
  40.500      9.21580E-05
  41.400      9.76090E-05
  42.200      9.97700E-05
  43.000      1.03310E-04
  44.100      1.13740E-04
  45.100      1.20080E-04
  46.000      1.24050E-04
  47.000      1.32100E-04
  48.000      1.41440E-04
  49.000      1.45800E-04
  50.000      1.58820E-04
  50.600      2.77570E-04
  51.200      4.41400E-04
  52.000      4.51140E-04
  53.000      4.64820E-04
  54.000      4.55310E-04
  55.000      4.76060E-04
  56.000      5.24330E-04
  57.000      5.44960E-04
  58.000      5.47930E-04
  59.000      5.78060E-04
  60.000      5.82560E-04
  61.000      5.90100E-04
  62.000      6.31450E-04
  63.000      6.44280E-04
  64.000      6.67890E-04
  65.000      6.77690E-04
  65.800      6.77040E-04
  66.500      7.02470E-04
  67.500      7.29590E-04
  68.500      7.24830E-04
  69.500      7.60490E-04
  70.500      7.53970E-04
  71.600      7.97850E-04
  72.600      8.15600E-04
  73.500      8.30870E-04
  74.500      8.38950E-04
  75.500      8.53370E-04
  76.500      8.61440E-04
  77.500      8.84190E-04
  78.500      8.96850E-04
  79.500      9.13580E-04
  80.500      9.29950E-04
  81.500      9.46850E-04
  82.500      9.66570E-04
  83.500      9.48100E-04
  84.500      9.90880E-04
  85.500      1.00130E-03
  86.500      1.02270E-03
  87.500      1.03660E-03
  88.500      1.04920E-03
  89.500      1.06110E-03
  90.500      1.06520E-03
  91.500      9.74800E-04
  92.500      1.89090E-03
  93.500      2.42050E-03
  94.500      2.86630E-03
  95.500      3.04510E-03
  96.500      3.30660E-03
  97.500      2.81230E-03
  98.500      3.26870E-03
  99.500      3.15490E-03
  100.50      3.28750E-03
  101.50      3.28910E-03
  102.50      2.85700E-03
  103.50      3.27090E-03
  104.50      3.28030E-03
  105.50      3.27190E-03
  106.50      3.23220E-03
  107.50      3.22580E-03
  108.50      3.13690E-03
  109.50      3.23260E-03
  110.50      3.21530E-03
  111.50      3.19370E-03
  112.50      3.15210E-03
  113.50      3.18730E-03
  114.50      3.17560E-03
  115.50      3.15040E-03
  116.50      3.14080E-03
  117.50      2.98160E-03
  118.50      3.11370E-03
  119.50      3.10170E-03
  120.50      3.08850E-03
  121.50      2.67680E-03
  122.50      3.06230E-03
  123.50      3.04370E-03
  124.50      3.01910E-03
  125.50      3.03290E-03
  126.50      3.02030E-03
  127.50      3.00690E-03
  128.50      2.99350E-03
  129.50      2.97760E-03
  130.50      2.96350E-03
  131.50      2.95070E-03
  132.50      2.93440E-03
  133.50      2.92180E-03
  134.50      2.90920E-03
  135.50      2.89200E-03
  136.50      2.87450E-03
  137.50      2.85360E-03
  138.50      2.84650E-03
  139.50      2.80640E-03
  140.50      2.78700E-03
  141.50      2.80440E-03
  142.50      2.78560E-03
  143.50      2.77570E-03
  144.20      2.76140E-03
  144.70      2.75530E-03
  145.50      2.74240E-03
  146.50      2.72940E-03
  147.50      2.71690E-03
  148.50      2.70630E-03
  149.50      2.68970E-03
  150.50      2.67750E-03
  151.20      2.66880E-03
  151.70      2.65940E-03
  152.50      2.64750E-03
  153.50      2.62500E-03
  154.50      2.56010E-03
  155.50      2.55620E-03
  156.50      2.58020E-03
  157.50      2.57310E-03
  158.50      2.55990E-03
  159.50      2.54640E-03
  160.50      2.52300E-03
  161.50      2.51050E-03
  162.50      2.49160E-03
  163.50      2.44270E-03
  164.50      2.34330E-03
  165.50      2.46130E-03
  166.50      2.44910E-03
  167.20      2.43300E-03
  167.70      2.43740E-03
  168.50      2.42540E-03
  169.50      2.41270E-03
  170.50      2.39810E-03
  171.50      2.36570E-03
  172.50      2.36690E-03
  173.50      2.36180E-03
  174.50      2.34770E-03
  175.50      2.33280E-03
  176.50      2.32250E-03
  177.50      2.31020E-03
  178.50      2.29740E-03
  179.50      2.28380E-03
  180.50      2.27180E-03
  181.50      2.25910E-03
  182.50      2.24630E-03
  183.50      2.23470E-03
  184.50      2.22200E-03
  185.50      2.20930E-03
  186.50      2.19670E-03
  187.50      2.18470E-03
  188.50      2.17280E-03
  189.50      2.16150E-03
  190.50      2.14970E-03
  191.50      2.13780E-03
  192.50      2.12430E-03
  193.50      2.11430E-03
  194.50      2.10270E-03
  195.50      2.09090E-03
  196.70      2.07730E-03
  197.60      2.06710E-03
  198.40      2.05800E-03
  199.50      2.04550E-03
  200.50      2.03440E-03
  201.50      2.02330E-03
  202.50      2.01220E-03
  203.50      2.00120E-03
  204.50      1.99010E-03
  205.50      1.59750E-03
  206.50      1.56740E-03
  207.40      1.61960E-03
  207.80      1.66780E-03
  208.50      1.80080E-03
  209.50      1.92830E-03
  210.50      1.92870E-03
  211.50      1.92520E-03
  212.50      1.91590E-03
  213.50      1.90350E-03
  214.50      1.89620E-03
  215.50      1.91130E-03
  216.50      1.86900E-03
  217.50      1.89680E-03
  218.50      1.84960E-03
  219.50      1.87560E-03
  220.50      1.86620E-03
  221.50      1.81970E-03
  222.50      1.84600E-03
  223.50      1.83610E-03
  224.50      1.82600E-03
  225.50      1.78150E-03
  226.50      1.80660E-03
  227.50      1.79690E-03
  228.50      1.78710E-03
  229.50      1.76670E-03
  230.50      1.73530E-03
  231.50      1.75860E-03
  232.50      1.74930E-03
  233.50      1.74000E-03
  234.50      1.73080E-03
  235.50      1.72160E-03
  236.50      1.71250E-03
  237.50      1.70340E-03
  238.50      1.66290E-03
  239.50      1.68500E-03
  240.50      1.67660E-03
  241.50      1.66770E-03
  242.50      1.65900E-03
  243.50      1.65030E-03
  244.50      1.64170E-03
  245.50      1.63300E-03
  246.50      1.62460E-03
  247.50      1.61620E-03
  248.50      1.60780E-03
  249.50      1.57480E-03
  250.50      1.58900E-03
  251.30      1.51500E-03
  251.80      1.57950E-03
  252.50      1.57460E-03
  253.50      1.56670E-03
  254.50      1.55870E-03
  255.50      1.55070E-03
  256.50      1.54280E-03
  257.50      1.53490E-03
  258.50      1.52710E-03
  259.50      1.51920E-03
  260.50      1.51230E-03
  261.50      1.50460E-03
  262.50      1.49700E-03
  263.50      1.48950E-03
  264.50      1.48180E-03
  265.50      1.47420E-03
  266.50      1.46660E-03
  267.50      1.45900E-03
  268.50      1.45250E-03
  269.50      1.44430E-03
  270.50      1.43800E-03
  271.50      1.43090E-03
  272.50      1.42250E-03
  273.50      1.38980E-03
  274.50      1.40970E-03
  275.50      1.40280E-03
  276.50      1.39410E-03
  277.50      1.38900E-03
  278.50      1.38220E-03
  279.50      1.37530E-03
  280.50      1.36870E-03
  281.50      1.36200E-03
  282.50      1.35340E-03
  283.50      1.34830E-03
  284.50      1.34220E-03
  285.50      1.33570E-03
  286.50      1.32930E-03
  287.50      1.32290E-03
  288.50      1.31650E-03
  289.50      1.31010E-03
  291.00      1.30070E-03
  293.00      1.28830E-03
  295.00      1.27450E-03
  297.00      1.26400E-03
  299.00      1.25200E-03
  301.00      1.24030E-03
  303.00      1.22860E-03
  305.00      1.21710E-03
  307.00      1.20590E-03
  309.00      1.19480E-03
  311.00      1.18380E-03
  313.00      1.17300E-03
  315.00      1.16230E-03
  317.00      1.15170E-03
  319.00      1.13870E-03
  321.00      1.11880E-03
  323.00      1.12070E-03
  325.00      1.11070E-03
  327.00      1.10070E-03
  329.00      1.09090E-03
  331.00      1.08140E-03
  333.00      1.07190E-03
  335.00      1.06210E-03
  337.00      1.05320E-03
  339.00      1.04400E-03
  341.00      1.03490E-03
  343.00      1.02670E-03
  345.00      1.01720E-03
  347.00      1.00890E-03
  349.00      9.99760E-04
  351.00      9.91150E-04
  353.00      9.82510E-04
  355.00      9.74070E-04
  357.00      9.66870E-04
  359.00      9.57310E-04
  361.00      9.49920E-04
  363.00      9.41130E-04
  364.00      9.25560E-04
  365.00      8.67230E-04
  367.00      8.61310E-04
  369.00      8.57670E-04
  371.00      8.58130E-04
  373.00      8.60200E-04
  375.00      8.75540E-04
  377.00      8.80740E-04
  379.00      8.87770E-04
  381.00      8.98140E-04
  383.00      8.60630E-04
  385.00      8.94860E-04
  387.00      8.94370E-04
  389.00      8.39180E-04
  391.00      8.83340E-04
  393.00      8.70850E-04
  395.00      8.70420E-04
  397.00      8.11440E-04
  399.00      8.55980E-04
  401.00      8.50150E-04
  403.00      8.31230E-04
  405.00      8.37980E-04
  407.00      8.31420E-04
  409.00      8.15150E-04
  411.00      7.76170E-04
  413.00      8.10850E-04
  415.00      8.04450E-04
  417.00      7.99610E-04
  419.00      7.92280E-04
  421.00      7.80750E-04
  423.00      7.81610E-04
  425.00      7.75690E-04
  427.00      7.69830E-04
  429.00      7.64030E-04
  431.00      7.58290E-04
  433.00      7.38860E-04
  435.00      7.13400E-04
  437.00      7.41350E-04
  439.00      7.33140E-04
  441.00      7.30570E-04
  443.00      7.24940E-04
  445.00      7.19900E-04
  447.00      7.08610E-04
  449.00      7.09450E-04
  451.00      7.04300E-04
  453.00      6.98910E-04
  455.00      6.87160E-04
  457.00      6.89200E-04
  459.00      6.84270E-04
  461.00      6.79400E-04
  463.00      6.74540E-04
  465.00      6.69530E-04
  467.00      6.64780E-04
  469.00      6.44130E-04
  471.00      6.53990E-04
  473.00      6.51170E-04
  475.00      6.46640E-04
  477.00      6.42150E-04
  479.00      6.37700E-04
  481.00      6.33300E-04
  483.00      6.28940E-04
  485.00      6.16450E-04
  487.00      5.88840E-04
  489.00      6.15880E-04
  491.00      6.11960E-04
  493.00      6.04800E-04
  495.00      6.03730E-04
  497.00      5.99670E-04
  499.00      5.95650E-04
  501.00      5.89900E-04
  503.00      5.87730E-04
  505.00      5.83320E-04
  507.00      5.79950E-04
  509.00      5.76120E-04
  511.00      5.72330E-04
  513.00      5.68580E-04
  515.00      5.64860E-04
  517.00      5.61170E-04
  519.00      5.57520E-04
  521.00      5.53910E-04
  523.00      5.50330E-04
  525.00      5.46780E-04
  527.00      5.43270E-04
  529.00      5.39790E-04
  531.00      5.36350E-04
  533.00      5.32930E-04
  535.00      5.29550E-04
  537.00      5.26200E-04
  539.00      5.22880E-04
  541.00      5.13810E-04
  543.00      5.16330E-04
  545.00      5.13110E-04
  547.00      5.09910E-04
  549.00      5.06740E-04
  551.00      5.03600E-04
  553.00      5.00490E-04
  555.00      4.97400E-04
  557.00      4.94350E-04
  559.00      4.91310E-04
  561.00      4.88320E-04
  563.00      4.85350E-04
  565.00      4.82400E-04
  567.00      4.79480E-04
  569.00      4.72760E-04
  571.00      4.52920E-04
  573.00      4.50370E-04
  575.00      4.47840E-04
  577.00      4.45410E-04
  579.00      4.43220E-04
  581.00      4.41560E-04
  583.00      4.40210E-04
  585.00      4.39220E-04
  587.00      4.34740E-04
  589.00      4.37610E-04
  591.00      4.37110E-04
  593.00      4.36850E-04
  595.00      4.36850E-04
  597.00      4.36470E-04
  599.00      4.35780E-04
  601.00      4.34110E-04
  603.00      4.31500E-04
  605.00      4.29270E-04
  607.00      4.26440E-04
  609.00      4.24410E-04
  611.00      4.21650E-04
  613.00      4.19270E-04
  615.00      4.17230E-04
  617.00      4.13980E-04
  619.00      4.12530E-04
  621.00      4.10220E-04
  623.00      4.06800E-04
  625.00      4.05560E-04
  627.00      4.03390E-04
  629.00      4.01140E-04
  631.00      3.97410E-04
  633.00      3.96710E-04
  635.00      3.94530E-04
  637.00      3.92360E-04
  639.00      3.90200E-04
  641.00      3.86240E-04
  643.00      3.85950E-04
  645.00      3.83860E-04
  647.00      3.81770E-04
  649.00      3.79700E-04
  651.00      3.77650E-04
  653.00      3.73160E-04
  655.00      3.70690E-04
  657.00      3.51640E-04
  659.00      3.69350E-04
  661.00      3.67640E-04
  663.00      3.65690E-04
  665.00      3.63780E-04
  667.00      3.60640E-04
  669.00      3.56340E-04
  671.00      3.58050E-04
  673.00      3.56180E-04
  675.00      3.54310E-04
  677.00      3.52460E-04
  679.00      3.50620E-04
  681.00      3.48800E-04
  683.00      3.46990E-04
  685.00      3.45200E-04
  687.00      3.43420E-04
  689.00      3.39070E-04
  691.00      3.39890E-04
  693.00      3.38160E-04
  695.00      3.36430E-04
  697.00      3.34720E-04
  699.00      3.33020E-04
  701.00      3.31330E-04
  703.00      3.29650E-04
  705.00      3.27990E-04
  707.00      3.24610E-04
  709.00      3.24710E-04
  711.00      3.23080E-04
  713.00      3.21470E-04
  715.00      3.19860E-04
  717.00      3.16480E-04
  719.00      3.15940E-04
  721.00      3.15130E-04
  723.00      3.13580E-04
  725.00      3.12030E-04
  727.00      3.10500E-04
  729.00      3.08240E-04
  731.00      3.07470E-04
  733.00      3.05970E-04
  735.00      3.04480E-04
  737.00      3.03010E-04
  739.00      3.01540E-04
  741.00      3.00080E-04
  743.00      2.98640E-04
  745.00      2.97210E-04
  747.00      2.95780E-04
  749.00      2.94370E-04
  751.00      2.92960E-04
  753.00      2.91570E-04
  755.00      2.90180E-04
  757.00      2.88810E-04
  759.00      2.85010E-04
  761.00      2.86080E-04
  763.00      2.84740E-04
  765.00      2.83400E-04
  767.00      2.82080E-04
  769.00      2.80760E-04
  771.00      2.79450E-04
  773.00      2.78150E-04
  775.00      2.76860E-04
  777.00      2.75570E-04
  779.00      2.74300E-04
  781.00      2.73020E-04
  783.00      2.71780E-04
  785.00      2.70580E-04
  787.00      2.69340E-04
  789.00      2.68100E-04
  791.00      2.66880E-04
  793.00      2.65670E-04
  795.00      2.64460E-04
  797.00      2.63260E-04
  799.00      2.62080E-04
  801.00      2.60890E-04
  803.00      2.59720E-04
  805.00      2.58550E-04
  807.00      2.57390E-04
  809.00      2.56240E-04
  811.00      2.55100E-04
  813.00      2.53960E-04
  815.00      2.52790E-04
  817.00      2.51720E-04
  819.00      2.49900E-04
  821.00      2.43030E-04
  823.00      2.40970E-04
  825.00      2.40900E-04
  827.00      2.39910E-04
  829.00      2.39020E-04
  831.00      2.38020E-04
  833.00      2.37020E-04
  835.00      2.35900E-04
  837.00      2.35060E-04
  839.00      2.34170E-04
  841.00      2.33330E-04
  843.00      2.32480E-04
  845.00      2.31470E-04
  847.00      2.30840E-04
  849.00      2.30090E-04
  851.00      2.29220E-04
  853.00      2.28660E-04
  855.00      2.27330E-04
  857.00      2.27660E-04
  859.00      2.25600E-04
  861.00      2.25080E-04
  863.00      2.25980E-04
  865.00      2.24470E-04
  867.00      2.20860E-04
  869.00      2.24130E-04
  871.00      2.24100E-04
  873.00      2.22520E-04
  875.00      2.15880E-04
  877.00      2.20360E-04
  879.00      2.21700E-04
  881.00      2.21030E-04
  883.00      2.20120E-04
  885.00      2.15870E-04
  887.00      2.09630E-04
  889.00      2.16870E-04
  891.00      2.17000E-04
  893.00      2.16010E-04
  895.00      2.15430E-04
  897.00      2.14540E-04
  899.00      2.12330E-04
  901.00      2.03520E-04
  903.00      2.07070E-04
  905.00      2.10540E-04
  907.00      2.09680E-04
  909.00      2.09240E-04
  911.00      2.08260E-04
  913.00      2.07690E-04
  915.00      2.06860E-04
  917.00      2.05940E-04
  919.00      2.05030E-04
  921.00      2.02030E-04
  923.00      1.92330E-04
  925.00      2.00440E-04
  927.00      2.01710E-04
  929.00      2.01150E-04
  931.00      2.00200E-04
  933.00      1.99560E-04
  935.00      1.96310E-04
  937.00      1.97470E-04
  939.00      1.97220E-04
  941.00      1.96450E-04
  943.00      1.95680E-04
  945.00      1.94920E-04
  947.00      1.93930E-04
  949.00      1.93400E-04
  951.00      1.91930E-04
  953.00      1.89070E-04
  955.00      1.80220E-04
  957.00      1.88870E-04
  959.00      1.89560E-04
  961.00      1.88870E-04
  963.00      1.88050E-04
  965.00      1.87520E-04
  967.00      1.86800E-04
  969.00      1.86070E-04
  971.00      1.85280E-04
  973.00      1.84670E-04
  975.00      1.83900E-04
  977.00      1.82570E-04
  979.00      1.82580E-04
  981.00      1.81890E-04
  983.00      1.81210E-04
  985.00      1.80530E-04
  987.00      1.79850E-04
  989.00      1.79180E-04
  991.00      1.78510E-04
  993.00      1.77840E-04
  995.00      1.77180E-04
  997.00      1.76520E-04
  999.00      1.75860E-04
  1002.5      1.72340E-04
  1007.5      1.69640E-04
  1012.5      1.69750E-04
  1017.5      1.69970E-04
  1022.5      1.68420E-04
  1027.5      1.66910E-04
  1032.5      1.65220E-04
  1037.5      1.63930E-04
  1042.5      1.62040E-04
  1047.5      1.61020E-04
  1052.5      1.59600E-04
  1057.5      1.58200E-04
  1062.5      1.56810E-04
  1067.5      1.55390E-04
  1072.5      1.54100E-04
  1077.5      1.52760E-04
  1082.5      1.50890E-04
  1087.5      1.50150E-04
  1092.5      1.44370E-04
  1097.5      1.46790E-04
  1102.5      1.46210E-04
  1107.5      1.45120E-04
  1112.5      1.43900E-04
  1117.5      1.42740E-04
  1122.5      1.41540E-04
  1127.5      1.40380E-04
  1132.5      1.39220E-04
  1137.5      1.38070E-04
  1142.5      1.36940E-04
  1147.5      1.35820E-04
  1152.5      1.34720E-04
  1157.5      1.33630E-04
  1162.5      1.31810E-04
  1167.5      1.31030E-04
  1172.5      1.30440E-04
  1177.5      1.29400E-04
  1182.5      1.28370E-04
  1187.5      1.27360E-04
  1192.5      1.26350E-04
  1197.5      1.25040E-04
  1202.5      1.24380E-04
  1207.5      1.23410E-04
  1212.5      1.22460E-04
  1217.5      1.21510E-04
  1222.5      1.20580E-04
  1227.5      1.19650E-04
  1232.5      1.18740E-04
  1237.5      1.17830E-04
  1242.5      1.16940E-04
  1247.5      1.16060E-04
  1252.5      1.15130E-04
  1257.5      1.14320E-04
  1262.5      1.13470E-04
  1267.5      1.12620E-04
  1272.5      1.11790E-04
  1277.5      1.10400E-04
  1282.5      1.06720E-04
  1287.5      1.09220E-04
  1292.5      1.08540E-04
  1297.5      1.07590E-04
  1302.5      1.06970E-04
  1307.5      1.06190E-04
  1312.5      1.05430E-04
  1317.5      1.04670E-04
  1322.5      1.03930E-04
  1327.5      1.03180E-04
  1332.5      1.02450E-04
  1337.5      1.01730E-04
  1342.5      1.00990E-04
  1347.5      1.00300E-04
  1352.5      9.95980E-05
  1357.5      9.89030E-05
  1362.5      9.82150E-05
  1367.5      9.75350E-05
  1372.5      9.68610E-05
  1377.5      9.61940E-05
  1382.5      9.55340E-05
  1387.5      9.48810E-05
  1392.5      9.42350E-05
  1397.5      9.35950E-05
