 Castelli and Kurucz 2004-2012 Atmosphere
 T     39000.     G    4.50000 [-2.5] N(He)/Ntot=0.0784 VTURB=2  L/H=1.25 NOVER
 Wavelength  Eddington Hnu
   (nm)    (ergs/s/cm2/Hz/sr)
  9.0900      1.50790E-23
  9.3500      6.18360E-23
  9.6100      2.36220E-22
  9.7700      5.21570E-22
  9.9600      1.29480E-21
  10.200      3.90260E-21
  10.380      8.65370E-21
  10.560      1.87010E-20
  10.770      4.45570E-20
  11.040      1.29860E-19
  11.400      5.01090E-19
  11.780      1.91300E-18
  12.130      6.11260E-18
  12.480      1.83180E-17
  12.710      3.64810E-17
  12.840      5.32760E-17
  13.050      9.66960E-17
  13.240      1.63150E-16
  13.390      2.43990E-16
  13.660      4.92590E-16
  13.980      1.09380E-15
  14.330      2.51260E-15
  14.720      6.05640E-15
  15.100      1.36600E-14
  15.520      3.20200E-14
  15.880      6.40890E-14
  16.200      1.15700E-13
  16.600      2.34300E-13
  17.030      4.81680E-13
  17.340      7.91630E-13
  17.680      1.33720E-12
  18.020      2.21340E-12
  18.170      2.74730E-12
  18.610      5.07370E-12
  19.100      9.70540E-12
  19.390      1.40210E-11
  19.840      2.42690E-11
  20.180      3.61190E-11
  20.500      5.18570E-11
  21.050      9.40020E-11
  21.620      1.68390E-10
  21.980      2.39390E-10
  22.300      3.24010E-10
  22.680      4.58750E-10
  23.000      6.52010E-09
  23.400      2.45240E-08
  24.000      6.73510E-08
  24.650      5.58690E-07
  25.240      2.11820E-06
  25.680      1.34800E-06
  26.000      8.07380E-06
  26.400      1.51690E-05
  26.850      2.33690E-05
  27.350      3.22600E-05
  27.850      3.73720E-05
  28.400      4.74870E-05
  29.000      5.35560E-05
  29.600      3.79950E-05
  30.100      5.40910E-06
  30.800      2.15090E-05
  31.800      6.83380E-05
  32.800      8.51430E-05
  33.800      9.09400E-05
  34.800      1.01520E-04
  35.700      1.11740E-04
  36.600      1.21740E-04
  37.500      1.26860E-04
  38.500      1.26100E-04
  39.500      1.41620E-04
  40.500      1.52010E-04
  41.400      1.59100E-04
  42.200      1.61510E-04
  43.000      1.66680E-04
  44.100      1.80690E-04
  45.100      1.88810E-04
  46.000      1.94150E-04
  47.000      2.05400E-04
  48.000      2.17860E-04
  49.000      2.23540E-04
  50.000      2.41000E-04
  50.600      3.78510E-04
  51.200      6.03740E-04
  52.000      6.16010E-04
  53.000      6.37080E-04
  54.000      6.23490E-04
  55.000      6.51310E-04
  56.000      7.03650E-04
  57.000      7.27760E-04
  58.000      7.30210E-04
  59.000      7.65850E-04
  60.000      7.71510E-04
  61.000      7.78930E-04
  62.000      8.24110E-04
  63.000      8.39200E-04
  64.000      8.66210E-04
  65.000      8.76820E-04
  65.800      8.75200E-04
  66.500      9.04620E-04
  67.500      9.35010E-04
  68.500      9.29760E-04
  69.500      9.70090E-04
  70.500      9.61670E-04
  71.600      1.01080E-03
  72.600      1.03020E-03
  73.500      1.04700E-03
  74.500      1.05630E-03
  75.500      1.07200E-03
  76.500      1.08120E-03
  77.500      1.10580E-03
  78.500      1.11900E-03
  79.500      1.13670E-03
  80.500      1.15550E-03
  81.500      1.17370E-03
  82.500      1.19510E-03
  83.500      1.17420E-03
  84.500      1.22140E-03
  85.500      1.23160E-03
  86.500      1.25470E-03
  87.500      1.26930E-03
  88.500      1.28260E-03
  89.500      1.29520E-03
  90.500      1.29840E-03
  91.500      1.12590E-03
  92.500      2.06390E-03
  93.500      2.72770E-03
  94.500      3.47660E-03
  95.500      3.76540E-03
  96.500      4.28490E-03
  97.500      3.43920E-03
  98.500      4.26410E-03
  99.500      4.04150E-03
  100.50      4.28000E-03
  101.50      4.25180E-03
  102.50      3.42760E-03
  103.50      4.20000E-03
  104.50      4.22280E-03
  105.50      4.20250E-03
  106.50      4.14140E-03
  107.50      4.12540E-03
  108.50      3.93850E-03
  109.50      4.10940E-03
  110.50      4.07740E-03
  111.50      4.04400E-03
  112.50      3.98010E-03
  113.50      4.01460E-03
  114.50      3.99090E-03
  115.50      3.95040E-03
  116.50      3.92830E-03
  117.50      3.72610E-03
  118.50      3.87990E-03
  119.50      3.85670E-03
  120.50      3.81840E-03
  121.50      3.12580E-03
  122.50      3.76610E-03
  123.50      3.75310E-03
  124.50      3.71750E-03
  125.50      3.72790E-03
  126.50      3.70570E-03
  127.50      3.68270E-03
  128.50      3.65980E-03
  129.50      3.63390E-03
  130.50      3.61090E-03
  131.50      3.58930E-03
  132.50      3.56400E-03
  133.50      3.54260E-03
  134.50      3.52180E-03
  135.50      3.49590E-03
  136.50      3.47000E-03
  137.50      3.43970E-03
  138.50      3.42510E-03
  139.50      3.37220E-03
  140.50      3.34540E-03
  141.50      3.35990E-03
  142.50      3.33320E-03
  143.50      3.31650E-03
  144.20      3.29680E-03
  144.70      3.28710E-03
  145.50      3.26850E-03
  146.50      3.24860E-03
  147.50      3.22910E-03
  148.50      3.21200E-03
  149.50      3.18900E-03
  150.50      3.17010E-03
  151.20      3.15670E-03
  151.70      3.14430E-03
  152.50      3.12710E-03
  153.50      3.09800E-03
  154.50      3.02060E-03
  155.50      3.01240E-03
  156.50      3.03520E-03
  157.50      3.02210E-03
  158.50      3.00390E-03
  159.50      2.98440E-03
  160.50      2.95530E-03
  161.50      2.93690E-03
  162.50      2.91300E-03
  163.50      2.83930E-03
  164.50      2.71580E-03
  165.50      2.86740E-03
  166.50      2.85090E-03
  167.20      2.83110E-03
  167.70      2.83300E-03
  168.50      2.81710E-03
  169.50      2.79970E-03
  170.50      2.78040E-03
  171.50      2.74110E-03
  172.50      2.73960E-03
  173.50      2.73060E-03
  174.50      2.71210E-03
  175.50      2.69270E-03
  176.50      2.67850E-03
  177.50      2.66200E-03
  178.50      2.64520E-03
  179.50      2.62760E-03
  180.50      2.61150E-03
  181.50      2.59500E-03
  182.50      2.57840E-03
  183.50      2.56300E-03
  184.50      2.54650E-03
  185.50      2.53010E-03
  186.50      2.51400E-03
  187.50      2.49850E-03
  188.50      2.48300E-03
  189.50      2.46840E-03
  190.50      2.45330E-03
  191.50      2.43800E-03
  192.50      2.42070E-03
  193.50      2.40810E-03
  194.50      2.39330E-03
  195.50      2.37830E-03
  196.70      2.36100E-03
  197.60      2.34810E-03
  198.40      2.33660E-03
  199.50      2.32090E-03
  200.50      2.30680E-03
  201.50      2.29280E-03
  202.50      2.27890E-03
  203.50      2.26510E-03
  204.50      2.25130E-03
  205.50      1.76700E-03
  206.50      1.71710E-03
  207.40      1.76000E-03
  207.80      1.80430E-03
  208.50      1.92550E-03
  209.50      2.12440E-03
  210.50      2.17410E-03
  211.50      2.16810E-03
  212.50      2.15630E-03
  213.50      2.13970E-03
  214.50      2.13110E-03
  215.50      2.14910E-03
  216.50      2.09210E-03
  217.50      2.13800E-03
  218.50      2.06680E-03
  219.50      2.11180E-03
  220.50      2.10210E-03
  221.50      2.02870E-03
  222.50      2.07660E-03
  223.50      2.06510E-03
  224.50      2.05140E-03
  225.50      1.98340E-03
  226.50      2.02880E-03
  227.50      2.01700E-03
  228.50      2.00500E-03
  229.50      1.98130E-03
  230.50      1.92820E-03
  231.50      1.96900E-03
  232.50      1.95900E-03
  233.50      1.94770E-03
  234.50      1.93640E-03
  235.50      1.92530E-03
  236.50      1.91430E-03
  237.50      1.90330E-03
  238.50      1.84270E-03
  239.50      1.88080E-03
  240.50      1.87090E-03
  241.50      1.86030E-03
  242.50      1.84980E-03
  243.50      1.83940E-03
  244.50      1.82910E-03
  245.50      1.81870E-03
  246.50      1.80860E-03
  247.50      1.79850E-03
  248.50      1.78850E-03
  249.50      1.75360E-03
  250.50      1.76350E-03
  251.30      1.66140E-03
  251.80      1.75370E-03
  252.50      1.74890E-03
  253.50      1.73950E-03
  254.50      1.72990E-03
  255.50      1.72040E-03
  256.50      1.71100E-03
  257.50      1.70170E-03
  258.50      1.69240E-03
  259.50      1.68310E-03
  260.50      1.67520E-03
  261.50      1.66610E-03
  262.50      1.65710E-03
  263.50      1.64820E-03
  264.50      1.63920E-03
  265.50      1.63020E-03
  266.50      1.62120E-03
  267.50      1.61200E-03
  268.50      1.60460E-03
  269.50      1.59470E-03
  270.50      1.58760E-03
  271.50      1.57920E-03
  272.50      1.56870E-03
  273.50      1.52410E-03
  274.50      1.55440E-03
  275.50      1.54630E-03
  276.50      1.53580E-03
  277.50      1.53020E-03
  278.50      1.52230E-03
  279.50      1.51430E-03
  280.50      1.50650E-03
  281.50      1.49880E-03
  282.50      1.48830E-03
  283.50      1.48240E-03
  284.50      1.47580E-03
  285.50      1.46830E-03
  286.50      1.46080E-03
  287.50      1.45330E-03
  288.50      1.44600E-03
  289.50      1.43860E-03
  291.00      1.42770E-03
  293.00      1.41340E-03
  295.00      1.39700E-03
  297.00      1.38530E-03
  299.00      1.37150E-03
  301.00      1.35800E-03
  303.00      1.34460E-03
  305.00      1.33140E-03
  307.00      1.31860E-03
  309.00      1.30580E-03
  311.00      1.29320E-03
  313.00      1.28090E-03
  315.00      1.26870E-03
  317.00      1.25660E-03
  319.00      1.24120E-03
  321.00      1.21700E-03
  323.00      1.22130E-03
  325.00      1.20980E-03
  327.00      1.19850E-03
  329.00      1.18740E-03
  331.00      1.17670E-03
  333.00      1.16590E-03
  335.00      1.15470E-03
  337.00      1.14470E-03
  339.00      1.13430E-03
  341.00      1.12400E-03
  343.00      1.11500E-03
  345.00      1.10400E-03
  347.00      1.09500E-03
  349.00      1.08470E-03
  351.00      1.07490E-03
  353.00      1.06510E-03
  355.00      1.05540E-03
  357.00      1.04770E-03
  359.00      1.03650E-03
  361.00      1.02850E-03
  363.00      1.01840E-03
  364.00      1.00060E-03
  365.00      9.32430E-04
  367.00      9.25860E-04
  369.00      9.20490E-04
  371.00      9.18850E-04
  373.00      9.21190E-04
  375.00      9.32750E-04
  377.00      9.37840E-04
  379.00      9.52110E-04
  381.00      9.66620E-04
  383.00      9.18680E-04
  385.00      9.66790E-04
  387.00      9.70880E-04
  389.00      8.91380E-04
  391.00      9.59260E-04
  393.00      9.46890E-04
  395.00      9.45150E-04
  397.00      8.60750E-04
  399.00      9.28310E-04
  401.00      9.24690E-04
  403.00      8.98750E-04
  405.00      9.12030E-04
  407.00      9.03790E-04
  409.00      8.76700E-04
  411.00      8.27470E-04
  413.00      8.79690E-04
  415.00      8.73740E-04
  417.00      8.68590E-04
  419.00      8.59080E-04
  421.00      8.45210E-04
  423.00      8.48380E-04
  425.00      8.41710E-04
  427.00      8.35110E-04
  429.00      8.28590E-04
  431.00      8.21320E-04
  433.00      7.90960E-04
  435.00      7.60280E-04
  437.00      8.01880E-04
  439.00      7.92580E-04
  441.00      7.91020E-04
  443.00      7.84610E-04
  445.00      7.79060E-04
  447.00      7.64220E-04
  449.00      7.67360E-04
  451.00      7.61610E-04
  453.00      7.55140E-04
  455.00      7.39780E-04
  457.00      7.44730E-04
  459.00      7.39230E-04
  461.00      7.33790E-04
  463.00      7.28370E-04
  465.00      7.22770E-04
  467.00      7.17280E-04
  469.00      6.92210E-04
  471.00      7.05020E-04
  473.00      7.02350E-04
  475.00      6.97310E-04
  477.00      6.92310E-04
  479.00      6.87370E-04
  481.00      6.82480E-04
  483.00      6.76970E-04
  485.00      6.57210E-04
  487.00      6.24330E-04
  489.00      6.61940E-04
  491.00      6.58800E-04
  493.00      6.49780E-04
  495.00      6.49690E-04
  497.00      6.45200E-04
  499.00      6.40750E-04
  501.00      6.34040E-04
  503.00      6.31990E-04
  505.00      6.26990E-04
  507.00      6.23400E-04
  509.00      6.19170E-04
  511.00      6.14990E-04
  513.00      6.10840E-04
  515.00      6.06740E-04
  517.00      6.02670E-04
  519.00      5.98650E-04
  521.00      5.94670E-04
  523.00      5.90720E-04
  525.00      5.86820E-04
  527.00      5.82950E-04
  529.00      5.79120E-04
  531.00      5.75330E-04
  533.00      5.71580E-04
  535.00      5.67860E-04
  537.00      5.64170E-04
  539.00      5.60520E-04
  541.00      5.48790E-04
  543.00      5.53320E-04
  545.00      5.49790E-04
  547.00      5.46280E-04
  549.00      5.42810E-04
  551.00      5.39360E-04
  553.00      5.35950E-04
  555.00      5.32570E-04
  557.00      5.29220E-04
  559.00      5.25890E-04
  561.00      5.22620E-04
  563.00      5.19360E-04
  565.00      5.16140E-04
  567.00      5.12940E-04
  569.00      5.05280E-04
  571.00      4.82130E-04
  573.00      4.79370E-04
  575.00      4.76640E-04
  577.00      4.73970E-04
  579.00      4.71450E-04
  581.00      4.69210E-04
  583.00      4.67420E-04
  585.00      4.66200E-04
  587.00      4.60940E-04
  589.00      4.64190E-04
  591.00      4.63640E-04
  593.00      4.63230E-04
  595.00      4.63030E-04
  597.00      4.62890E-04
  599.00      4.62950E-04
  601.00      4.61640E-04
  603.00      4.59530E-04
  605.00      4.58020E-04
  607.00      4.55250E-04
  609.00      4.52860E-04
  611.00      4.49940E-04
  613.00      4.47340E-04
  615.00      4.45040E-04
  617.00      4.41710E-04
  619.00      4.39930E-04
  621.00      4.37420E-04
  623.00      4.33930E-04
  625.00      4.32280E-04
  627.00      4.29990E-04
  629.00      4.27550E-04
  631.00      4.23630E-04
  633.00      4.22730E-04
  635.00      4.20370E-04
  637.00      4.18010E-04
  639.00      4.15670E-04
  641.00      4.11350E-04
  643.00      4.11060E-04
  645.00      4.08780E-04
  647.00      4.06520E-04
  649.00      4.04280E-04
  651.00      4.01980E-04
  653.00      3.96740E-04
  655.00      3.92340E-04
  657.00      3.70200E-04
  659.00      3.92410E-04
  661.00      3.91210E-04
  663.00      3.89100E-04
  665.00      3.87040E-04
  667.00      3.83300E-04
  669.00      3.78500E-04
  671.00      3.80830E-04
  673.00      3.78810E-04
  675.00      3.76790E-04
  677.00      3.74790E-04
  679.00      3.72800E-04
  681.00      3.70830E-04
  683.00      3.68880E-04
  685.00      3.66940E-04
  687.00      3.65010E-04
  689.00      3.59830E-04
  691.00      3.61180E-04
  693.00      3.59340E-04
  695.00      3.57470E-04
  697.00      3.55620E-04
  699.00      3.53790E-04
  701.00      3.51970E-04
  703.00      3.50160E-04
  705.00      3.48360E-04
  707.00      3.44590E-04
  709.00      3.44820E-04
  711.00      3.43070E-04
  713.00      3.41330E-04
  715.00      3.39600E-04
  717.00      3.35600E-04
  719.00      3.35000E-04
  721.00      3.34500E-04
  723.00      3.32820E-04
  725.00      3.31160E-04
  727.00      3.29510E-04
  729.00      3.26990E-04
  731.00      3.26240E-04
  733.00      3.24630E-04
  735.00      3.23030E-04
  737.00      3.21440E-04
  739.00      3.19860E-04
  741.00      3.18290E-04
  743.00      3.16740E-04
  745.00      3.15200E-04
  747.00      3.13670E-04
  749.00      3.12140E-04
  751.00      3.10620E-04
  753.00      3.09130E-04
  755.00      3.07640E-04
  757.00      3.06160E-04
  759.00      3.01390E-04
  761.00      3.03110E-04
  763.00      3.01790E-04
  765.00      3.00360E-04
  767.00      2.98930E-04
  769.00      2.97510E-04
  771.00      2.96110E-04
  773.00      2.94710E-04
  775.00      2.93320E-04
  777.00      2.91940E-04
  779.00      2.90580E-04
  781.00      2.89200E-04
  783.00      2.87870E-04
  785.00      2.86590E-04
  787.00      2.85260E-04
  789.00      2.83930E-04
  791.00      2.82620E-04
  793.00      2.81320E-04
  795.00      2.80030E-04
  797.00      2.78740E-04
  799.00      2.77460E-04
  801.00      2.76190E-04
  803.00      2.74940E-04
  805.00      2.73680E-04
  807.00      2.72440E-04
  809.00      2.71200E-04
  811.00      2.69980E-04
  813.00      2.68770E-04
  815.00      2.67550E-04
  817.00      2.66360E-04
  819.00      2.64340E-04
  821.00      2.56620E-04
  823.00      2.54200E-04
  825.00      2.54240E-04
  827.00      2.53300E-04
  829.00      2.52370E-04
  831.00      2.51310E-04
  833.00      2.50230E-04
  835.00      2.49020E-04
  837.00      2.48110E-04
  839.00      2.47140E-04
  841.00      2.46190E-04
  843.00      2.45230E-04
  845.00      2.44080E-04
  847.00      2.43420E-04
  849.00      2.42560E-04
  851.00      2.41750E-04
  853.00      2.40940E-04
  855.00      2.39920E-04
  857.00      2.39710E-04
  859.00      2.37880E-04
  861.00      2.37480E-04
  863.00      2.37800E-04
  865.00      2.36230E-04
  867.00      2.33660E-04
  869.00      2.35710E-04
  871.00      2.35680E-04
  873.00      2.33870E-04
  875.00      2.28540E-04
  877.00      2.31640E-04
  879.00      2.33310E-04
  881.00      2.32930E-04
  883.00      2.31940E-04
  885.00      2.26940E-04
  887.00      2.21390E-04
  889.00      2.28290E-04
  891.00      2.28810E-04
  893.00      2.28020E-04
  895.00      2.27540E-04
  897.00      2.26210E-04
  899.00      2.23580E-04
  901.00      2.14120E-04
  903.00      2.17340E-04
  905.00      2.21840E-04
  907.00      2.21260E-04
  909.00      2.21070E-04
  911.00      2.20080E-04
  913.00      2.19490E-04
  915.00      2.18600E-04
  917.00      2.17510E-04
  919.00      2.16100E-04
  921.00      2.12170E-04
  923.00      2.01750E-04
  925.00      2.10250E-04
  927.00      2.12540E-04
  929.00      2.12470E-04
  931.00      2.11450E-04
  933.00      2.10710E-04
  935.00      2.06600E-04
  937.00      2.08570E-04
  939.00      2.08300E-04
  941.00      2.07480E-04
  943.00      2.06660E-04
  945.00      2.05840E-04
  947.00      2.04760E-04
  949.00      2.04190E-04
  951.00      2.02090E-04
  953.00      1.98130E-04
  955.00      1.88550E-04
  957.00      1.98160E-04
  959.00      1.99620E-04
  961.00      1.99330E-04
  963.00      1.98480E-04
  965.00      1.97940E-04
  967.00      1.97180E-04
  969.00      1.96390E-04
  971.00      1.95530E-04
  973.00      1.94910E-04
  975.00      1.94040E-04
  977.00      1.92770E-04
  979.00      1.92680E-04
  981.00      1.91950E-04
  983.00      1.91220E-04
  985.00      1.90490E-04
  987.00      1.89770E-04
  989.00      1.89050E-04
  991.00      1.88340E-04
  993.00      1.87630E-04
  995.00      1.86920E-04
  997.00      1.86220E-04
  999.00      1.85520E-04
  1002.5      1.80810E-04
  1007.5      1.77880E-04
  1012.5      1.78630E-04
  1017.5      1.79240E-04
  1022.5      1.77590E-04
  1027.5      1.75980E-04
  1032.5      1.74160E-04
  1037.5      1.72810E-04
  1042.5      1.70760E-04
  1047.5      1.69720E-04
  1052.5      1.68210E-04
  1057.5      1.66720E-04
  1062.5      1.65240E-04
  1067.5      1.63730E-04
  1072.5      1.62350E-04
  1077.5      1.60940E-04
  1082.5      1.58940E-04
  1087.5      1.58010E-04
  1092.5      1.51030E-04
  1097.5      1.53930E-04
  1102.5      1.53940E-04
  1107.5      1.52800E-04
  1112.5      1.51520E-04
  1117.5      1.50290E-04
  1122.5      1.49010E-04
  1127.5      1.47780E-04
  1132.5      1.46550E-04
  1137.5      1.45330E-04
  1142.5      1.44130E-04
  1147.5      1.42950E-04
  1152.5      1.41780E-04
  1157.5      1.40620E-04
  1162.5      1.38510E-04
  1167.5      1.37750E-04
  1172.5      1.37230E-04
  1177.5      1.36130E-04
  1182.5      1.35040E-04
  1187.5      1.33970E-04
  1192.5      1.32900E-04
  1197.5      1.31440E-04
  1202.5      1.30810E-04
  1207.5      1.29790E-04
  1212.5      1.28780E-04
  1217.5      1.27770E-04
  1222.5      1.26780E-04
  1227.5      1.25800E-04
  1232.5      1.24840E-04
  1237.5      1.23880E-04
  1242.5      1.22930E-04
  1247.5      1.22000E-04
  1252.5      1.21010E-04
  1257.5      1.20160E-04
  1262.5      1.19260E-04
  1267.5      1.18360E-04
  1272.5      1.17480E-04
  1277.5      1.15780E-04
  1282.5      1.11360E-04
  1287.5      1.14620E-04
  1292.5      1.14040E-04
  1297.5      1.13020E-04
  1302.5      1.12380E-04
  1307.5      1.11570E-04
  1312.5      1.10760E-04
  1317.5      1.09960E-04
  1322.5      1.09170E-04
  1327.5      1.08380E-04
  1332.5      1.07610E-04
  1337.5      1.06840E-04
  1342.5      1.06070E-04
  1347.5      1.05340E-04
  1352.5      1.04590E-04
  1357.5      1.03860E-04
  1362.5      1.03130E-04
  1367.5      1.02410E-04
  1372.5      1.01700E-04
  1377.5      1.01000E-04
  1382.5      1.00300E-04
  1387.5      9.96100E-05
  1392.5      9.89270E-05
  1397.5      9.82510E-05
