 Castelli and Kurucz 2004-2012 Atmosphere
 T     33000.     G    4.00000 [-2.5] N(He)/Ntot=0.0784 VTURB=2  L/H=1.25 NOVER
 Wavelength  Eddington Hnu
   (nm)    (ergs/s/cm2/Hz/sr)
  9.0900      2.08520E-30
  9.3500      1.27600E-29
  9.6100      7.13090E-29
  9.7700      1.97190E-28
  9.9600      6.34690E-28
  10.200      2.62170E-27
  10.380      7.30230E-27
  10.560      1.96870E-26
  10.770      6.02360E-26
  11.040      2.39120E-25
  11.400      1.36630E-24
  11.780      7.71200E-24
  12.130      3.46600E-23
  12.480      1.43660E-22
  12.710      3.50970E-22
  12.840      5.73550E-22
  13.050      1.24280E-21
  13.240      2.45190E-21
  13.390      4.13710E-21
  13.660      1.03150E-20
  13.980      2.91210E-20
  14.330      8.60240E-20
  14.720      2.70980E-19
  15.100      7.82990E-19
  15.520      2.38330E-18
  15.880      5.90420E-18
  16.200      1.27790E-17
  16.600      3.22030E-17
  17.030      8.28280E-17
  17.340      1.58830E-16
  17.680      3.15950E-16
  18.020      6.12560E-16
  18.170      8.13630E-16
  18.610      1.82120E-15
  19.100      4.27370E-15
  19.390      6.93700E-15
  19.840      1.42850E-14
  20.180      2.41110E-14
  20.500      3.88400E-14
  21.050      8.51560E-14
  21.620      1.83810E-13
  21.980      2.92480E-13
  22.300      4.36460E-13
  22.680      6.91430E-13
  23.000      2.85570E-11
  23.400      1.62150E-10
  24.000      5.49830E-10
  24.650      1.87470E-09
  25.240      3.63910E-09
  25.680      2.20890E-09
  26.000      8.10180E-09
  26.400      1.40890E-08
  26.850      2.30010E-08
  27.350      3.27510E-08
  27.850      3.91080E-08
  28.400      5.45860E-08
  29.000      6.09570E-08
  29.600      4.77010E-08
  30.100      2.15630E-08
  30.800      4.20820E-08
  31.800      1.29080E-07
  32.800      1.77110E-07
  33.800      2.35570E-07
  34.800      3.12760E-07
  35.700      3.82860E-07
  36.600      4.92980E-07
  37.500      6.08290E-07
  38.500      7.94730E-07
  39.500      1.01580E-06
  40.500      1.28010E-06
  41.400      1.57470E-06
  42.200      1.86100E-06
  43.000      2.18830E-06
  44.100      2.74660E-06
  45.100      3.32030E-06
  46.000      3.89260E-06
  47.000      4.70100E-06
  48.000      5.57220E-06
  49.000      6.48810E-06
  50.000      7.68730E-06
  50.600      3.94550E-05
  51.200      9.68680E-05
  52.000      9.80280E-05
  53.000      1.02350E-04
  54.000      9.81120E-05
  55.000      1.07290E-04
  56.000      1.17440E-04
  57.000      1.22360E-04
  58.000      1.20430E-04
  59.000      1.30260E-04
  60.000      1.32380E-04
  61.000      1.36750E-04
  62.000      1.46820E-04
  63.000      1.51560E-04
  64.000      1.55910E-04
  65.000      1.61130E-04
  65.800      1.63200E-04
  66.500      1.68260E-04
  67.500      1.75900E-04
  68.500      1.75900E-04
  69.500      1.87610E-04
  70.500      1.88560E-04
  71.600      2.00630E-04
  72.600      2.06620E-04
  73.500      2.13840E-04
  74.500      2.18220E-04
  75.500      2.24290E-04
  76.500      2.29780E-04
  77.500      2.37440E-04
  78.500      2.45810E-04
  79.500      2.52220E-04
  80.500      2.58280E-04
  81.500      2.65640E-04
  82.500      2.74320E-04
  83.500      2.71130E-04
  84.500      2.87850E-04
  85.500      2.94970E-04
  86.500      3.02870E-04
  87.500      3.09980E-04
  88.500      3.17170E-04
  89.500      3.24420E-04
  90.500      3.30370E-04
  91.500      3.78740E-04
  92.500      1.10840E-03
  93.500      1.57960E-03
  94.500      2.09820E-03
  95.500      2.26780E-03
  96.500      2.56770E-03
  97.500      1.96550E-03
  98.500      2.54580E-03
  99.500      2.44770E-03
  100.50      2.56520E-03
  101.50      2.56670E-03
  102.50      2.03620E-03
  103.50      2.53700E-03
  104.50      2.57800E-03
  105.50      2.57240E-03
  106.50      2.52580E-03
  107.50      2.52300E-03
  108.50      2.44480E-03
  109.50      2.54310E-03
  110.50      2.52170E-03
  111.50      2.50410E-03
  112.50      2.45810E-03
  113.50      2.50810E-03
  114.50      2.49730E-03
  115.50      2.47840E-03
  116.50      2.47480E-03
  117.50      2.27610E-03
  118.50      2.44210E-03
  119.50      2.43820E-03
  120.50      2.39690E-03
  121.50      1.91650E-03
  122.50      2.39770E-03
  123.50      2.40260E-03
  124.50      2.37290E-03
  125.50      2.39110E-03
  126.50      2.38270E-03
  127.50      2.37240E-03
  128.50      2.36260E-03
  129.50      2.33140E-03
  130.50      2.33200E-03
  131.50      2.32970E-03
  132.50      2.31630E-03
  133.50      2.29450E-03
  134.50      2.29680E-03
  135.50      2.28430E-03
  136.50      2.27170E-03
  137.50      2.25820E-03
  138.50      2.24930E-03
  139.50      2.20250E-03
  140.50      2.19140E-03
  141.50      2.21470E-03
  142.50      2.19630E-03
  143.50      2.19190E-03
  144.20      2.18400E-03
  144.70      2.17820E-03
  145.50      2.16760E-03
  146.50      2.15770E-03
  147.50      2.14620E-03
  148.50      2.13750E-03
  149.50      2.12380E-03
  150.50      2.11420E-03
  151.20      2.10780E-03
  151.70      2.10030E-03
  152.50      2.08880E-03
  153.50      2.06410E-03
  154.50      2.01470E-03
  155.50      2.01190E-03
  156.50      2.02910E-03
  157.50      2.02790E-03
  158.50      2.02060E-03
  159.50      2.00940E-03
  160.50      1.98380E-03
  161.50      1.97300E-03
  162.50      1.95960E-03
  163.50      1.92600E-03
  164.50      1.84680E-03
  165.50      1.93990E-03
  166.50      1.93010E-03
  167.20      1.91650E-03
  167.70      1.92560E-03
  168.50      1.91500E-03
  169.50      1.90490E-03
  170.50      1.89260E-03
  171.50      1.86850E-03
  172.50      1.86410E-03
  173.50      1.86630E-03
  174.50      1.85450E-03
  175.50      1.84150E-03
  176.50      1.83500E-03
  177.50      1.82580E-03
  178.50      1.81590E-03
  179.50      1.80470E-03
  180.50      1.79570E-03
  181.50      1.78550E-03
  182.50      1.77500E-03
  183.50      1.76690E-03
  184.50      1.75580E-03
  185.50      1.74410E-03
  186.50      1.73440E-03
  187.50      1.72620E-03
  188.50      1.71640E-03
  189.50      1.70690E-03
  190.50      1.69930E-03
  191.50      1.68850E-03
  192.50      1.67610E-03
  193.50      1.67080E-03
  194.50      1.66240E-03
  195.50      1.65150E-03
  196.70      1.64230E-03
  197.60      1.63460E-03
  198.40      1.62690E-03
  199.50      1.61610E-03
  200.50      1.60880E-03
  201.50      1.60020E-03
  202.50      1.59140E-03
  203.50      1.58260E-03
  204.50      1.57380E-03
  205.50      1.32940E-03
  206.50      1.30350E-03
  207.40      1.33060E-03
  207.80      1.35530E-03
  208.50      1.43020E-03
  209.50      1.52070E-03
  210.50      1.52510E-03
  211.50      1.51990E-03
  212.50      1.51210E-03
  213.50      1.50260E-03
  214.50      1.49640E-03
  215.50      1.50180E-03
  216.50      1.47440E-03
  217.50      1.48960E-03
  218.50      1.45890E-03
  219.50      1.47290E-03
  220.50      1.46530E-03
  221.50      1.43460E-03
  222.50      1.44930E-03
  223.50      1.44140E-03
  224.50      1.43340E-03
  225.50      1.40410E-03
  226.50      1.41790E-03
  227.50      1.41020E-03
  228.50      1.40240E-03
  229.50      1.38100E-03
  230.50      1.36700E-03
  231.50      1.37990E-03
  232.50      1.37250E-03
  233.50      1.36510E-03
  234.50      1.35780E-03
  235.50      1.35050E-03
  236.50      1.34330E-03
  237.50      1.33610E-03
  238.50      1.30980E-03
  239.50      1.32150E-03
  240.50      1.31490E-03
  241.50      1.30790E-03
  242.50      1.30100E-03
  243.50      1.29410E-03
  244.50      1.28730E-03
  245.50      1.28040E-03
  246.50      1.27370E-03
  247.50      1.26700E-03
  248.50      1.26040E-03
  249.50      1.22790E-03
  250.50      1.24590E-03
  251.30      1.20050E-03
  251.80      1.23750E-03
  252.50      1.23430E-03
  253.50      1.22790E-03
  254.50      1.22150E-03
  255.50      1.21520E-03
  256.50      1.20900E-03
  257.50      1.20280E-03
  258.50      1.19660E-03
  259.50      1.19040E-03
  260.50      1.18680E-03
  261.50      1.18070E-03
  262.50      1.17470E-03
  263.50      1.16810E-03
  264.50      1.16200E-03
  265.50      1.15560E-03
  266.50      1.14910E-03
  267.50      1.14270E-03
  268.50      1.13940E-03
  269.50      1.13060E-03
  270.50      1.12800E-03
  271.50      1.12230E-03
  272.50      1.11280E-03
  273.50      1.09600E-03
  274.50      1.10560E-03
  275.50      1.10010E-03
  276.50      1.09010E-03
  277.50      1.08920E-03
  278.50      1.08380E-03
  279.50      1.07820E-03
  280.50      1.07310E-03
  281.50      1.06790E-03
  282.50      1.05750E-03
  283.50      1.05570E-03
  284.50      1.05230E-03
  285.50      1.04710E-03
  286.50      1.04200E-03
  287.50      1.03700E-03
  288.50      1.03200E-03
  289.50      1.02700E-03
  291.00      1.01950E-03
  293.00      1.00980E-03
  295.00      9.96370E-04
  297.00      9.90560E-04
  299.00      9.81090E-04
  301.00      9.71890E-04
  303.00      9.62680E-04
  305.00      9.53670E-04
  307.00      9.44840E-04
  309.00      9.35960E-04
  311.00      9.27360E-04
  313.00      9.19190E-04
  315.00      9.10710E-04
  317.00      9.02330E-04
  319.00      8.89600E-04
  321.00      8.79680E-04
  323.00      8.77810E-04
  325.00      8.69820E-04
  327.00      8.62380E-04
  329.00      8.54170E-04
  331.00      8.47190E-04
  333.00      8.39690E-04
  335.00      8.31440E-04
  337.00      8.24990E-04
  339.00      8.17790E-04
  341.00      8.10680E-04
  343.00      8.02060E-04
  345.00      7.93530E-04
  347.00      7.88080E-04
  349.00      7.81180E-04
  351.00      7.75840E-04
  353.00      7.69290E-04
  355.00      7.62720E-04
  357.00      7.58680E-04
  359.00      7.49360E-04
  361.00      7.44230E-04
  363.00      7.36740E-04
  364.00      7.32820E-04
  365.00      7.09000E-04
  367.00      7.04740E-04
  369.00      6.99010E-04
  371.00      6.90620E-04
  373.00      6.80780E-04
  375.00      6.95110E-04
  377.00      6.95880E-04
  379.00      7.12030E-04
  381.00      7.30380E-04
  383.00      6.78390E-04
  385.00      7.37260E-04
  387.00      7.38360E-04
  389.00      6.63150E-04
  391.00      7.31900E-04
  393.00      7.23250E-04
  395.00      7.20990E-04
  397.00      6.39880E-04
  399.00      7.08290E-04
  401.00      7.03830E-04
  403.00      6.83850E-04
  405.00      6.95640E-04
  407.00      6.89600E-04
  409.00      6.68020E-04
  411.00      6.19040E-04
  413.00      6.70030E-04
  415.00      6.65430E-04
  417.00      6.62810E-04
  419.00      6.57480E-04
  421.00      6.49610E-04
  423.00      6.48140E-04
  425.00      6.43150E-04
  427.00      6.38180E-04
  429.00      6.33350E-04
  431.00      6.27940E-04
  433.00      6.02840E-04
  435.00      5.71040E-04
  437.00      6.13500E-04
  439.00      6.02930E-04
  441.00      6.05180E-04
  443.00      5.99770E-04
  445.00      5.96250E-04
  447.00      5.80370E-04
  449.00      5.87460E-04
  451.00      5.83140E-04
  453.00      5.78770E-04
  455.00      5.70940E-04
  457.00      5.70450E-04
  459.00      5.66290E-04
  461.00      5.62210E-04
  463.00      5.58120E-04
  465.00      5.53550E-04
  467.00      5.50120E-04
  469.00      5.37050E-04
  471.00      5.38790E-04
  473.00      5.38520E-04
  475.00      5.34710E-04
  477.00      5.30950E-04
  479.00      5.27220E-04
  481.00      5.23520E-04
  483.00      5.19350E-04
  485.00      5.02610E-04
  487.00      4.69820E-04
  489.00      5.07970E-04
  491.00      5.05590E-04
  493.00      4.96260E-04
  495.00      4.98710E-04
  497.00      4.95320E-04
  499.00      4.91950E-04
  501.00      4.85360E-04
  503.00      4.85320E-04
  505.00      4.80730E-04
  507.00      4.78820E-04
  509.00      4.75620E-04
  511.00      4.72440E-04
  513.00      4.69300E-04
  515.00      4.66190E-04
  517.00      4.63110E-04
  519.00      4.60060E-04
  521.00      4.57040E-04
  523.00      4.54050E-04
  525.00      4.51090E-04
  527.00      4.48150E-04
  529.00      4.45250E-04
  531.00      4.42370E-04
  533.00      4.39520E-04
  535.00      4.36700E-04
  537.00      4.33900E-04
  539.00      4.31130E-04
  541.00      4.25700E-04
  543.00      4.25670E-04
  545.00      4.22980E-04
  547.00      4.20310E-04
  549.00      4.17660E-04
  551.00      4.15040E-04
  553.00      4.12450E-04
  555.00      4.09880E-04
  557.00      4.07330E-04
  559.00      4.04800E-04
  561.00      4.02300E-04
  563.00      3.99820E-04
  565.00      3.97360E-04
  567.00      3.94930E-04
  569.00      3.91280E-04
  571.00      3.83750E-04
  573.00      3.81500E-04
  575.00      3.79280E-04
  577.00      3.77080E-04
  579.00      3.74920E-04
  581.00      3.72870E-04
  583.00      3.70960E-04
  585.00      3.69280E-04
  587.00      3.61400E-04
  589.00      3.65870E-04
  591.00      3.64490E-04
  593.00      3.62970E-04
  595.00      3.61510E-04
  597.00      3.60040E-04
  599.00      3.58800E-04
  601.00      3.56850E-04
  603.00      3.54770E-04
  605.00      3.52710E-04
  607.00      3.50670E-04
  609.00      3.48650E-04
  611.00      3.46640E-04
  613.00      3.44650E-04
  615.00      3.42680E-04
  617.00      3.40720E-04
  619.00      3.38790E-04
  621.00      3.36870E-04
  623.00      3.34950E-04
  625.00      3.33070E-04
  627.00      3.31200E-04
  629.00      3.29340E-04
  631.00      3.27360E-04
  633.00      3.25670E-04
  635.00      3.23850E-04
  637.00      3.22060E-04
  639.00      3.20270E-04
  641.00      3.18270E-04
  643.00      3.16750E-04
  645.00      3.15010E-04
  647.00      3.13290E-04
  649.00      3.11580E-04
  651.00      3.09880E-04
  653.00      3.07310E-04
  655.00      3.02100E-04
  657.00      2.80810E-04
  659.00      3.02460E-04
  661.00      3.01590E-04
  663.00      2.99980E-04
  665.00      2.98460E-04
  667.00      2.95100E-04
  669.00      2.93000E-04
  671.00      2.93720E-04
  673.00      2.92170E-04
  675.00      2.90620E-04
  677.00      2.89100E-04
  679.00      2.87580E-04
  681.00      2.86070E-04
  683.00      2.84570E-04
  685.00      2.83090E-04
  687.00      2.81620E-04
  689.00      2.79640E-04
  691.00      2.78710E-04
  693.00      2.77270E-04
  695.00      2.75840E-04
  697.00      2.74430E-04
  699.00      2.73020E-04
  701.00      2.71620E-04
  703.00      2.70240E-04
  705.00      2.68870E-04
  707.00      2.64800E-04
  709.00      2.66150E-04
  711.00      2.64810E-04
  713.00      2.63470E-04
  715.00      2.62150E-04
  717.00      2.60410E-04
  719.00      2.59370E-04
  721.00      2.58240E-04
  723.00      2.56950E-04
  725.00      2.55680E-04
  727.00      2.54420E-04
  729.00      2.51820E-04
  731.00      2.51900E-04
  733.00      2.50680E-04
  735.00      2.49450E-04
  737.00      2.48230E-04
  739.00      2.47020E-04
  741.00      2.45820E-04
  743.00      2.44620E-04
  745.00      2.43460E-04
  747.00      2.42280E-04
  749.00      2.41110E-04
  751.00      2.39910E-04
  753.00      2.38800E-04
  755.00      2.37660E-04
  757.00      2.36530E-04
  759.00      2.34870E-04
  761.00      2.34280E-04
  763.00      2.33170E-04
  765.00      2.32070E-04
  767.00      2.30980E-04
  769.00      2.29890E-04
  771.00      2.28810E-04
  773.00      2.27740E-04
  775.00      2.26670E-04
  777.00      2.25620E-04
  779.00      2.24570E-04
  781.00      2.23460E-04
  783.00      2.22490E-04
  785.00      2.21580E-04
  787.00      2.20560E-04
  789.00      2.19500E-04
  791.00      2.18530E-04
  793.00      2.17530E-04
  795.00      2.16540E-04
  797.00      2.15490E-04
  799.00      2.14570E-04
  801.00      2.13590E-04
  803.00      2.12590E-04
  805.00      2.11590E-04
  807.00      2.10670E-04
  809.00      2.09530E-04
  811.00      2.08650E-04
  813.00      2.07850E-04
  815.00      2.06720E-04
  817.00      2.06000E-04
  819.00      2.04830E-04
  821.00      2.02560E-04
  823.00      2.01530E-04
  825.00      2.01070E-04
  827.00      1.99780E-04
  829.00      1.99310E-04
  831.00      1.98480E-04
  833.00      1.97580E-04
  835.00      1.96230E-04
  837.00      1.95720E-04
  839.00      1.95010E-04
  841.00      1.94200E-04
  843.00      1.93260E-04
  845.00      1.91800E-04
  847.00      1.91570E-04
  849.00      1.90680E-04
  851.00      1.89730E-04
  853.00      1.89200E-04
  855.00      1.87220E-04
  857.00      1.88760E-04
  859.00      1.84810E-04
  861.00      1.84720E-04
  863.00      1.87290E-04
  865.00      1.84530E-04
  867.00      1.78470E-04
  869.00      1.85160E-04
  871.00      1.85600E-04
  873.00      1.82650E-04
  875.00      1.72630E-04
  877.00      1.79900E-04
  879.00      1.83120E-04
  881.00      1.82630E-04
  883.00      1.81570E-04
  885.00      1.75130E-04
  887.00      1.67150E-04
  889.00      1.78350E-04
  891.00      1.78980E-04
  893.00      1.78480E-04
  895.00      1.78070E-04
  897.00      1.77040E-04
  899.00      1.74320E-04
  901.00      1.62400E-04
  903.00      1.67770E-04
  905.00      1.73510E-04
  907.00      1.72590E-04
  909.00      1.72730E-04
  911.00      1.72340E-04
  913.00      1.71690E-04
  915.00      1.71000E-04
  917.00      1.70010E-04
  919.00      1.69070E-04
  921.00      1.64880E-04
  923.00      1.52470E-04
  925.00      1.63870E-04
  927.00      1.66270E-04
  929.00      1.66240E-04
  931.00      1.65160E-04
  933.00      1.64920E-04
  935.00      1.63490E-04
  937.00      1.63610E-04
  939.00      1.62960E-04
  941.00      1.62320E-04
  943.00      1.61680E-04
  945.00      1.61040E-04
  947.00      1.59850E-04
  949.00      1.59760E-04
  951.00      1.57670E-04
  953.00      1.53830E-04
  955.00      1.42910E-04
  957.00      1.54770E-04
  959.00      1.56180E-04
  961.00      1.55800E-04
  963.00      1.55020E-04
  965.00      1.54880E-04
  967.00      1.54280E-04
  969.00      1.53620E-04
  971.00      1.52830E-04
  973.00      1.52510E-04
  975.00      1.51920E-04
  977.00      1.51340E-04
  979.00      1.50770E-04
  981.00      1.50190E-04
  983.00      1.49620E-04
  985.00      1.49060E-04
  987.00      1.48490E-04
  989.00      1.47930E-04
  991.00      1.47370E-04
  993.00      1.46820E-04
  995.00      1.46270E-04
  997.00      1.45720E-04
  999.00      1.45170E-04
  1002.5      1.40600E-04
  1007.5      1.38010E-04
  1012.5      1.40740E-04
  1017.5      1.40270E-04
  1022.5      1.38960E-04
  1027.5      1.37720E-04
  1032.5      1.36140E-04
  1037.5      1.35240E-04
  1042.5      1.34000E-04
  1047.5      1.32830E-04
  1052.5      1.31650E-04
  1057.5      1.30480E-04
  1062.5      1.29330E-04
  1067.5      1.28060E-04
  1072.5      1.27070E-04
  1077.5      1.25970E-04
  1082.5      1.24040E-04
  1087.5      1.23670E-04
  1092.5      1.16580E-04
  1097.5      1.20280E-04
  1102.5      1.20270E-04
  1107.5      1.19580E-04
  1112.5      1.18610E-04
  1117.5      1.17610E-04
  1122.5      1.16590E-04
  1127.5      1.15650E-04
  1132.5      1.14690E-04
  1137.5      1.13740E-04
  1142.5      1.12800E-04
  1147.5      1.11880E-04
  1152.5      1.10960E-04
  1157.5      1.10060E-04
  1162.5      1.08980E-04
  1167.5      1.08230E-04
  1172.5      1.07410E-04
  1177.5      1.06550E-04
  1182.5      1.05700E-04
  1187.5      1.04860E-04
  1192.5      1.04030E-04
  1197.5      1.02600E-04
  1202.5      1.02390E-04
  1207.5      1.01590E-04
  1212.5      1.00800E-04
  1217.5      1.00020E-04
  1222.5      9.92420E-05
  1227.5      9.84770E-05
  1232.5      9.77200E-05
  1237.5      9.69720E-05
  1242.5      9.62330E-05
  1247.5      9.55020E-05
  1252.5      9.46640E-05
  1257.5      9.40650E-05
  1262.5      9.33590E-05
  1267.5      9.26600E-05
  1272.5      9.19680E-05
  1277.5      9.03540E-05
  1282.5      8.61430E-05
  1287.5      8.96830E-05
  1292.5      8.92800E-05
  1297.5      8.82780E-05
  1302.5      8.79810E-05
  1307.5      8.73420E-05
  1312.5      8.67090E-05
  1317.5      8.60840E-05
  1322.5      8.54650E-05
  1327.5      8.48530E-05
  1332.5      8.42470E-05
  1337.5      8.36470E-05
  1342.5      8.30120E-05
  1347.5      8.24680E-05
  1352.5      8.18870E-05
  1357.5      8.13130E-05
  1362.5      8.07450E-05
  1367.5      8.01820E-05
  1372.5      7.96260E-05
  1377.5      7.90750E-05
  1382.5      7.85300E-05
  1387.5      7.79900E-05
  1392.5      7.74560E-05
  1397.5      7.69280E-05
