 Castelli and Kurucz 2004-2012 Atmosphere
 T     44000.     G    5.00000 [-2.5] N(He)/Ntot=0.0784 VTURB=2  L/H=1.25 NOVER
 Wavelength  Eddington Hnu
   (nm)    (ergs/s/cm2/Hz/sr)
  9.0900      2.31940E-20
  9.3500      7.66440E-20
  9.6100      2.38380E-19
  9.7700      4.66090E-19
  9.9600      1.00650E-18
  10.200      2.56080E-18
  10.380      5.02550E-18
  10.560      9.64970E-18
  10.770      2.01230E-17
  11.040      4.97880E-17
  11.400      1.56300E-16
  11.780      4.86370E-16
  12.130      1.30210E-15
  12.480      3.30350E-15
  12.710      5.92710E-15
  12.840      8.17310E-15
  13.050      1.35530E-14
  13.240      2.11280E-14
  13.390      2.97350E-14
  13.660      5.40020E-14
  13.980      1.06360E-13
  14.330      2.15630E-13
  14.720      4.55480E-13
  15.100      9.09720E-13
  15.520      1.87790E-12
  15.880      3.38930E-12
  16.200      5.60420E-12
  16.600      1.02210E-11
  17.030      1.88790E-11
  17.340      2.88260E-11
  17.680      4.50690E-11
  18.020      6.92450E-11
  18.170      8.32090E-11
  18.610      1.40440E-10
  19.100      2.44170E-10
  19.390      3.34190E-10
  19.840      5.33600E-10
  20.180      7.49160E-10
  20.500      1.02000E-09
  21.050      1.69450E-09
  21.620      2.78710E-09
  21.980      3.76370E-09
  22.300      4.87340E-09
  22.680      6.55750E-09
  23.000      6.26330E-08
  23.400      2.29110E-07
  24.000      9.75530E-07
  24.650      1.40010E-05
  25.240      4.31310E-05
  25.680      2.75270E-05
  26.000      1.01220E-04
  26.400      1.49140E-04
  26.850      1.93620E-04
  27.350      2.40760E-04
  27.850      2.66540E-04
  28.400      3.07460E-04
  29.000      3.44070E-04
  29.600      2.95320E-04
  30.100      9.17950E-05
  30.800      1.84770E-04
  31.800      3.94490E-04
  32.800      4.54340E-04
  33.800      4.68770E-04
  34.800      5.04320E-04
  35.700      5.49540E-04
  36.600      5.85990E-04
  37.500      6.03050E-04
  38.500      5.87290E-04
  39.500      6.54340E-04
  40.500      6.94570E-04
  41.400      7.15920E-04
  42.200      7.18260E-04
  43.000      7.37940E-04
  44.100      7.81280E-04
  45.100      8.01030E-04
  46.000      8.08010E-04
  47.000      8.31890E-04
  48.000      8.65510E-04
  49.000      8.66740E-04
  50.000      9.13130E-04
  50.600      1.00650E-03
  51.200      1.28980E-03
  52.000      1.30940E-03
  53.000      1.35050E-03
  54.000      1.32720E-03
  55.000      1.36360E-03
  56.000      1.44010E-03
  57.000      1.48020E-03
  58.000      1.48350E-03
  59.000      1.53410E-03
  60.000      1.53860E-03
  61.000      1.54150E-03
  62.000      1.60150E-03
  63.000      1.61990E-03
  64.000      1.66360E-03
  65.000      1.67370E-03
  65.800      1.66440E-03
  66.500      1.71310E-03
  67.500      1.75080E-03
  68.500      1.73960E-03
  69.500      1.79620E-03
  70.500      1.77460E-03
  71.600      1.84380E-03
  72.600      1.86820E-03
  73.500      1.88750E-03
  74.500      1.89920E-03
  75.500      1.91550E-03
  76.500      1.91990E-03
  77.500      1.95520E-03
  78.500      1.96250E-03
  79.500      1.98260E-03
  80.500      2.01030E-03
  81.500      2.02990E-03
  82.500      2.05370E-03
  83.500      2.02060E-03
  84.500      2.08080E-03
  85.500      2.08570E-03
  86.500      2.11480E-03
  87.500      2.13010E-03
  88.500      2.14250E-03
  89.500      2.15410E-03
  90.500      2.14880E-03
  91.500      1.72800E-03
  92.500      2.79430E-03
  93.500      3.57840E-03
  94.500      4.60250E-03
  95.500      5.03880E-03
  96.500      5.88120E-03
  97.500      4.65920E-03
  98.500      5.91910E-03
  99.500      5.52330E-03
  100.50      5.92120E-03
  101.50      5.84080E-03
  102.50      4.53610E-03
  103.50      5.73590E-03
  104.50      5.77850E-03
  105.50      5.74240E-03
  106.50      5.66140E-03
  107.50      5.63140E-03
  108.50      5.28080E-03
  109.50      5.56300E-03
  110.50      5.50950E-03
  111.50      5.46210E-03
  112.50      5.37160E-03
  113.50      5.39240E-03
  114.50      5.35090E-03
  115.50      5.29150E-03
  116.50      5.24310E-03
  117.50      5.02520E-03
  118.50      5.17130E-03
  119.50      5.12330E-03
  120.50      5.05280E-03
  121.50      4.04040E-03
  122.50      4.95730E-03
  123.50      4.94070E-03
  124.50      4.89720E-03
  125.50      4.90050E-03
  126.50      4.86310E-03
  127.50      4.82470E-03
  128.50      4.78690E-03
  129.50      4.74790E-03
  130.50      4.70980E-03
  131.50      4.67360E-03
  132.50      4.63420E-03
  133.50      4.60020E-03
  134.50      4.56620E-03
  135.50      4.52660E-03
  136.50      4.48660E-03
  137.50      4.43860E-03
  138.50      4.41730E-03
  139.50      4.35350E-03
  140.50      4.31240E-03
  141.50      4.31710E-03
  142.50      4.28090E-03
  143.50      4.25170E-03
  144.20      4.22170E-03
  144.70      4.20730E-03
  145.50      4.18000E-03
  146.50      4.14940E-03
  147.50      4.12100E-03
  148.50      4.09380E-03
  149.50      4.06120E-03
  150.50      4.03210E-03
  151.20      4.01150E-03
  151.70      3.99420E-03
  152.50      3.97040E-03
  153.50      3.93460E-03
  154.50      3.84010E-03
  155.50      3.82180E-03
  156.50      3.84470E-03
  157.50      3.82010E-03
  158.50      3.79190E-03
  159.50      3.76370E-03
  160.50      3.72980E-03
  161.50      3.70250E-03
  162.50      3.67090E-03
  163.50      3.56130E-03
  164.50      3.40420E-03
  165.50      3.59860E-03
  166.50      3.57400E-03
  167.20      3.55040E-03
  167.70      3.54470E-03
  168.50      3.52360E-03
  169.50      3.49860E-03
  170.50      3.47230E-03
  171.50      3.42300E-03
  172.50      3.41820E-03
  173.50      3.39980E-03
  174.50      3.37470E-03
  175.50      3.34950E-03
  176.50      3.32730E-03
  177.50      3.30400E-03
  178.50      3.28090E-03
  179.50      3.25710E-03
  180.50      3.23450E-03
  181.50      3.21190E-03
  182.50      3.18930E-03
  183.50      3.16730E-03
  184.50      3.14520E-03
  185.50      3.12310E-03
  186.50      3.10140E-03
  187.50      3.07990E-03
  188.50      3.05870E-03
  189.50      3.03830E-03
  190.50      3.01760E-03
  191.50      2.99700E-03
  192.50      2.97480E-03
  193.50      2.95640E-03
  194.50      2.93640E-03
  195.50      2.91650E-03
  196.70      2.89310E-03
  197.60      2.87560E-03
  198.40      2.86030E-03
  199.50      2.83930E-03
  200.50      2.82050E-03
  201.50      2.80180E-03
  202.50      2.78320E-03
  203.50      2.76490E-03
  204.50      2.74650E-03
  205.50      2.12480E-03
  206.50      2.05240E-03
  207.40      2.08390E-03
  207.80      2.12490E-03
  208.50      2.23490E-03
  209.50      2.47520E-03
  210.50      2.62490E-03
  211.50      2.63280E-03
  212.50      2.61780E-03
  213.50      2.59460E-03
  214.50      2.58280E-03
  215.50      2.60430E-03
  216.50      2.52640E-03
  217.50      2.59320E-03
  218.50      2.48990E-03
  219.50      2.56070E-03
  220.50      2.55080E-03
  221.50      2.43670E-03
  222.50      2.51850E-03
  223.50      2.50560E-03
  224.50      2.48510E-03
  225.50      2.37760E-03
  226.50      2.45790E-03
  227.50      2.44300E-03
  228.50      2.42750E-03
  229.50      2.40160E-03
  230.50      2.30790E-03
  231.50      2.37850E-03
  232.50      2.36790E-03
  233.50      2.35330E-03
  234.50      2.33880E-03
  235.50      2.32440E-03
  236.50      2.31020E-03
  237.50      2.29580E-03
  238.50      2.20010E-03
  239.50      2.26590E-03
  240.50      2.25430E-03
  241.50      2.24070E-03
  242.50      2.22740E-03
  243.50      2.21400E-03
  244.50      2.20070E-03
  245.50      2.18740E-03
  246.50      2.17450E-03
  247.50      2.16160E-03
  248.50      2.14880E-03
  249.50      2.11400E-03
  250.50      2.11160E-03
  251.30      1.96410E-03
  251.80      2.10170E-03
  252.50      2.09810E-03
  253.50      2.08640E-03
  254.50      2.07430E-03
  255.50      2.06220E-03
  256.50      2.05030E-03
  257.50      2.03850E-03
  258.50      2.02670E-03
  259.50      2.01490E-03
  260.50      2.00420E-03
  261.50      1.99270E-03
  262.50      1.98140E-03
  263.50      1.97010E-03
  264.50      1.95900E-03
  265.50      1.94790E-03
  266.50      1.93670E-03
  267.50      1.92540E-03
  268.50      1.91530E-03
  269.50      1.90370E-03
  270.50      1.89390E-03
  271.50      1.88340E-03
  272.50      1.87070E-03
  273.50      1.80270E-03
  274.50      1.85230E-03
  275.50      1.84210E-03
  276.50      1.83040E-03
  277.50      1.82200E-03
  278.50      1.81200E-03
  279.50      1.80210E-03
  280.50      1.79230E-03
  281.50      1.78260E-03
  282.50      1.77130E-03
  283.50      1.76270E-03
  284.50      1.75390E-03
  285.50      1.74450E-03
  286.50      1.73520E-03
  287.50      1.72590E-03
  288.50      1.71670E-03
  289.50      1.70760E-03
  291.00      1.69410E-03
  293.00      1.67630E-03
  295.00      1.65720E-03
  297.00      1.64140E-03
  299.00      1.62430E-03
  301.00      1.60770E-03
  303.00      1.59110E-03
  305.00      1.57480E-03
  307.00      1.55890E-03
  309.00      1.54320E-03
  311.00      1.52770E-03
  313.00      1.51250E-03
  315.00      1.49750E-03
  317.00      1.48260E-03
  319.00      1.46480E-03
  321.00      1.43010E-03
  323.00      1.43950E-03
  325.00      1.42540E-03
  327.00      1.41150E-03
  329.00      1.39800E-03
  331.00      1.38470E-03
  333.00      1.37150E-03
  335.00      1.35810E-03
  337.00      1.34560E-03
  339.00      1.33300E-03
  341.00      1.32050E-03
  343.00      1.30880E-03
  345.00      1.29610E-03
  347.00      1.28470E-03
  349.00      1.27280E-03
  351.00      1.26090E-03
  353.00      1.24900E-03
  355.00      1.23740E-03
  357.00      1.22720E-03
  359.00      1.21470E-03
  361.00      1.20450E-03
  363.00      1.19280E-03
  364.00      1.16730E-03
  365.00      1.07610E-03
  367.00      1.06810E-03
  369.00      1.06110E-03
  371.00      1.05830E-03
  373.00      1.06230E-03
  375.00      1.07270E-03
  377.00      1.08080E-03
  379.00      1.09680E-03
  381.00      1.11420E-03
  383.00      1.06550E-03
  385.00      1.11210E-03
  387.00      1.11970E-03
  389.00      1.02660E-03
  391.00      1.10500E-03
  393.00      1.09390E-03
  395.00      1.08930E-03
  397.00      9.89960E-04
  399.00      1.06880E-03
  401.00      1.06680E-03
  403.00      1.03700E-03
  405.00      1.05320E-03
  407.00      1.04230E-03
  409.00      1.00500E-03
  411.00      9.51220E-04
  413.00      1.01410E-03
  415.00      1.00880E-03
  417.00      1.00220E-03
  419.00      9.88230E-04
  421.00      9.71010E-04
  423.00      9.78060E-04
  425.00      9.70170E-04
  427.00      9.62370E-04
  429.00      9.54660E-04
  431.00      9.44860E-04
  433.00      9.04840E-04
  435.00      8.72130E-04
  437.00      9.21610E-04
  439.00      9.14020E-04
  441.00      9.10300E-04
  443.00      9.02970E-04
  445.00      8.96200E-04
  447.00      8.80580E-04
  449.00      8.82420E-04
  451.00      8.75640E-04
  453.00      8.66880E-04
  455.00      8.45940E-04
  457.00      8.55770E-04
  459.00      8.49300E-04
  461.00      8.42900E-04
  463.00      8.36560E-04
  465.00      8.30100E-04
  467.00      8.23060E-04
  469.00      7.90790E-04
  471.00      8.10040E-04
  473.00      8.05970E-04
  475.00      8.00060E-04
  477.00      7.94200E-04
  479.00      7.88410E-04
  481.00      7.82670E-04
  483.00      7.75250E-04
  485.00      7.49270E-04
  487.00      7.14000E-04
  489.00      7.57240E-04
  491.00      7.54940E-04
  493.00      7.45570E-04
  495.00      7.44280E-04
  497.00      7.39030E-04
  499.00      7.33830E-04
  501.00      7.26850E-04
  503.00      7.23590E-04
  505.00      7.18130E-04
  507.00      7.13570E-04
  509.00      7.08630E-04
  511.00      7.03750E-04
  513.00      6.98920E-04
  515.00      6.94130E-04
  517.00      6.89400E-04
  519.00      6.84720E-04
  521.00      6.80080E-04
  523.00      6.75480E-04
  525.00      6.70940E-04
  527.00      6.66440E-04
  529.00      6.61980E-04
  531.00      6.57570E-04
  533.00      6.53200E-04
  535.00      6.48880E-04
  537.00      6.44590E-04
  539.00      6.40340E-04
  541.00      6.23600E-04
  543.00      6.31720E-04
  545.00      6.27880E-04
  547.00      6.23800E-04
  549.00      6.19770E-04
  551.00      6.15770E-04
  553.00      6.11810E-04
  555.00      6.07880E-04
  557.00      6.04000E-04
  559.00      6.00140E-04
  561.00      5.96340E-04
  563.00      5.92570E-04
  565.00      5.88830E-04
  567.00      5.85120E-04
  569.00      5.75290E-04
  571.00      5.44200E-04
  573.00      5.41050E-04
  575.00      5.37940E-04
  577.00      5.34880E-04
  579.00      5.31950E-04
  581.00      5.29230E-04
  583.00      5.27000E-04
  585.00      5.25250E-04
  587.00      5.20650E-04
  589.00      5.22730E-04
  591.00      5.22110E-04
  593.00      5.21690E-04
  595.00      5.21610E-04
  597.00      5.21710E-04
  599.00      5.22300E-04
  601.00      5.21740E-04
  603.00      5.21020E-04
  605.00      5.20430E-04
  607.00      5.17430E-04
  609.00      5.14960E-04
  611.00      5.12090E-04
  613.00      5.09390E-04
  615.00      5.06850E-04
  617.00      5.02650E-04
  619.00      5.00960E-04
  621.00      4.98050E-04
  623.00      4.93760E-04
  625.00      4.91970E-04
  627.00      4.89480E-04
  629.00      4.86670E-04
  631.00      4.81750E-04
  633.00      4.80840E-04
  635.00      4.78390E-04
  637.00      4.75680E-04
  639.00      4.72680E-04
  641.00      4.67500E-04
  643.00      4.67660E-04
  645.00      4.65040E-04
  647.00      4.62440E-04
  649.00      4.59860E-04
  651.00      4.56820E-04
  653.00      4.50260E-04
  655.00      4.44660E-04
  657.00      4.20800E-04
  659.00      4.45490E-04
  661.00      4.44810E-04
  663.00      4.42380E-04
  665.00      4.39980E-04
  667.00      4.35640E-04
  669.00      4.29600E-04
  671.00      4.32850E-04
  673.00      4.30520E-04
  675.00      4.28200E-04
  677.00      4.25900E-04
  679.00      4.23620E-04
  681.00      4.21360E-04
  683.00      4.19110E-04
  685.00      4.16880E-04
  687.00      4.14660E-04
  689.00      4.07280E-04
  691.00      4.09980E-04
  693.00      4.08140E-04
  695.00      4.06000E-04
  697.00      4.03880E-04
  699.00      4.01770E-04
  701.00      3.99680E-04
  703.00      3.97600E-04
  705.00      3.95540E-04
  707.00      3.91930E-04
  709.00      3.91470E-04
  711.00      3.89460E-04
  713.00      3.87470E-04
  715.00      3.85480E-04
  717.00      3.79930E-04
  719.00      3.79310E-04
  721.00      3.79630E-04
  723.00      3.77710E-04
  725.00      3.75810E-04
  727.00      3.73910E-04
  729.00      3.71450E-04
  731.00      3.70170E-04
  733.00      3.68320E-04
  735.00      3.66490E-04
  737.00      3.64660E-04
  739.00      3.62860E-04
  741.00      3.61060E-04
  743.00      3.59280E-04
  745.00      3.57510E-04
  747.00      3.55760E-04
  749.00      3.54010E-04
  751.00      3.52280E-04
  753.00      3.50570E-04
  755.00      3.48860E-04
  757.00      3.47160E-04
  759.00      3.40140E-04
  761.00      3.43380E-04
  763.00      3.42160E-04
  765.00      3.40520E-04
  767.00      3.38890E-04
  769.00      3.37270E-04
  771.00      3.35660E-04
  773.00      3.34060E-04
  775.00      3.32470E-04
  777.00      3.30900E-04
  779.00      3.29330E-04
  781.00      3.27780E-04
  783.00      3.26240E-04
  785.00      3.24740E-04
  787.00      3.23220E-04
  789.00      3.21710E-04
  791.00      3.20210E-04
  793.00      3.18720E-04
  795.00      3.17240E-04
  797.00      3.15770E-04
  799.00      3.14310E-04
  801.00      3.12860E-04
  803.00      3.11430E-04
  805.00      3.10000E-04
  807.00      3.08580E-04
  809.00      3.07170E-04
  811.00      3.05770E-04
  813.00      3.04380E-04
  815.00      3.03000E-04
  817.00      3.01630E-04
  819.00      2.99130E-04
  821.00      2.88570E-04
  823.00      2.85600E-04
  825.00      2.85640E-04
  827.00      2.84860E-04
  829.00      2.83700E-04
  831.00      2.82510E-04
  833.00      2.81300E-04
  835.00      2.80070E-04
  837.00      2.78940E-04
  839.00      2.77800E-04
  841.00      2.76710E-04
  843.00      2.75620E-04
  845.00      2.74460E-04
  847.00      2.73530E-04
  849.00      2.72610E-04
  851.00      2.71690E-04
  853.00      2.70800E-04
  855.00      2.69820E-04
  857.00      2.69160E-04
  859.00      2.67930E-04
  861.00      2.67290E-04
  863.00      2.66950E-04
  865.00      2.65800E-04
  867.00      2.64240E-04
  869.00      2.64750E-04
  871.00      2.64380E-04
  873.00      2.63060E-04
  875.00      2.59920E-04
  877.00      2.61150E-04
  879.00      2.61900E-04
  881.00      2.61540E-04
  883.00      2.60610E-04
  885.00      2.56770E-04
  887.00      2.52880E-04
  889.00      2.57060E-04
  891.00      2.57540E-04
  893.00      2.56950E-04
  895.00      2.56240E-04
  897.00      2.54870E-04
  899.00      2.52060E-04
  901.00      2.44210E-04
  903.00      2.46170E-04
  905.00      2.49850E-04
  907.00      2.49540E-04
  909.00      2.49130E-04
  911.00      2.48010E-04
  913.00      2.47580E-04
  915.00      2.46560E-04
  917.00      2.45120E-04
  919.00      2.43390E-04
  921.00      2.39360E-04
  923.00      2.30030E-04
  925.00      2.36930E-04
  927.00      2.39330E-04
  929.00      2.39240E-04
  931.00      2.38490E-04
  933.00      2.37280E-04
  935.00      2.31660E-04
  937.00      2.34950E-04
  939.00      2.34830E-04
  941.00      2.33940E-04
  943.00      2.33010E-04
  945.00      2.32090E-04
  947.00      2.30990E-04
  949.00      2.29920E-04
  951.00      2.27770E-04
  953.00      2.23380E-04
  955.00      2.14250E-04
  957.00      2.22940E-04
  959.00      2.24740E-04
  961.00      2.24600E-04
  963.00      2.23860E-04
  965.00      2.23130E-04
  967.00      2.22260E-04
  969.00      2.21400E-04
  971.00      2.20480E-04
  973.00      2.19690E-04
  975.00      2.18560E-04
  977.00      2.17050E-04
  979.00      2.17160E-04
  981.00      2.16330E-04
  983.00      2.15500E-04
  985.00      2.14680E-04
  987.00      2.13860E-04
  989.00      2.13050E-04
  991.00      2.12240E-04
  993.00      2.11430E-04
  995.00      2.10630E-04
  997.00      2.09840E-04
  999.00      2.08860E-04
  1002.5      2.03710E-04
  1007.5      2.00450E-04
  1012.5      2.00710E-04
  1017.5      2.01940E-04
  1022.5      2.00080E-04
  1027.5      1.98250E-04
  1032.5      1.96280E-04
  1037.5      1.94650E-04
  1042.5      1.92080E-04
  1047.5      1.91160E-04
  1052.5      1.89450E-04
  1057.5      1.87760E-04
  1062.5      1.86090E-04
  1067.5      1.84420E-04
  1072.5      1.82820E-04
  1077.5      1.81220E-04
  1082.5      1.79170E-04
  1087.5      1.77810E-04
  1092.5      1.70250E-04
  1097.5      1.73060E-04
  1102.5      1.73380E-04
  1107.5      1.72020E-04
  1112.5      1.70560E-04
  1117.5      1.69200E-04
  1122.5      1.67760E-04
  1127.5      1.66360E-04
  1132.5      1.64970E-04
  1137.5      1.63600E-04
  1142.5      1.62240E-04
  1147.5      1.60900E-04
  1152.5      1.59570E-04
  1157.5      1.58260E-04
  1162.5      1.55420E-04
  1167.5      1.54650E-04
  1172.5      1.54440E-04
  1177.5      1.53190E-04
  1182.5      1.51960E-04
  1187.5      1.50750E-04
  1192.5      1.49550E-04
  1197.5      1.48090E-04
  1202.5      1.47190E-04
  1207.5      1.46030E-04
  1212.5      1.44880E-04
  1217.5      1.43750E-04
  1222.5      1.42630E-04
  1227.5      1.41530E-04
  1232.5      1.40430E-04
  1237.5      1.39350E-04
  1242.5      1.38280E-04
  1247.5      1.37230E-04
  1252.5      1.36150E-04
  1257.5      1.35150E-04
  1262.5      1.34130E-04
  1267.5      1.33120E-04
  1272.5      1.32120E-04
  1277.5      1.30230E-04
  1282.5      1.25160E-04
  1287.5      1.28770E-04
  1292.5      1.28240E-04
  1297.5      1.27210E-04
  1302.5      1.26370E-04
  1307.5      1.25440E-04
  1312.5      1.24530E-04
  1317.5      1.23630E-04
  1322.5      1.22730E-04
  1327.5      1.21850E-04
  1332.5      1.20970E-04
  1337.5      1.20110E-04
  1342.5      1.19240E-04
  1347.5      1.18410E-04
  1352.5      1.17570E-04
  1357.5      1.16740E-04
  1362.5      1.15920E-04
  1367.5      1.15110E-04
  1372.5      1.14310E-04
  1377.5      1.13510E-04
  1382.5      1.12720E-04
  1387.5      1.11950E-04
  1392.5      1.11180E-04
  1397.5      1.10410E-04
