 Castelli and Kurucz 2004-2012 Atmosphere
 T     45000.     G    5.00000 [-2.5] N(He)/Ntot=0.0784 VTURB=2  L/H=1.25 NOVER
 Wavelength  Eddington Hnu
   (nm)    (ergs/s/cm2/Hz/sr)
  9.0900      6.71150E-20
  9.3500      2.14230E-19
  9.6100      6.44590E-19
  9.7700      1.23570E-18
  9.9600      2.60840E-18
  10.200      6.45640E-18
  10.380      1.24200E-17
  10.560      2.33940E-17
  10.770      4.77400E-17
  11.040      1.14990E-16
  11.400      3.49050E-16
  11.780      1.05070E-15
  12.130      2.73380E-15
  12.480      6.75270E-15
  12.710      1.19140E-14
  12.840      1.62800E-14
  13.050      2.66120E-14
  13.240      4.09750E-14
  13.390      5.71200E-14
  13.660      1.02040E-13
  13.980      1.97280E-13
  14.330      3.92360E-13
  14.720      8.12330E-13
  15.100      1.59320E-12
  15.520      3.22720E-12
  15.880      5.73650E-12
  16.200      9.36540E-12
  16.600      1.68230E-11
  17.030      3.06020E-11
  17.340      4.62370E-11
  17.680      7.15020E-11
  18.020      1.08720E-10
  18.170      1.30030E-10
  18.610      2.16750E-10
  19.100      3.71890E-10
  19.390      5.05250E-10
  19.840      7.97830E-10
  20.180      1.11120E-09
  20.500      1.50200E-09
  21.050      2.46600E-09
  21.620      4.00970E-09
  21.980      5.37730E-09
  22.300      6.92140E-09
  22.680      9.24940E-09
  23.000      8.91110E-08
  23.400      3.39200E-07
  24.000      1.87060E-06
  24.650      2.60360E-05
  25.240      7.29310E-05
  25.680      4.60060E-05
  26.000      1.52980E-04
  26.400      2.15540E-04
  26.850      2.69610E-04
  27.350      3.27720E-04
  27.850      3.58540E-04
  28.400      4.06260E-04
  29.000      4.52230E-04
  29.600      3.95550E-04
  30.100      1.37810E-04
  30.800      2.51160E-04
  31.800      5.08570E-04
  32.800      5.78980E-04
  33.800      5.96010E-04
  34.800      6.36970E-04
  35.700      6.93430E-04
  36.600      7.38130E-04
  37.500      7.58760E-04
  38.500      7.35170E-04
  39.500      8.19440E-04
  40.500      8.69710E-04
  41.400      8.95190E-04
  42.200      8.97190E-04
  43.000      9.22220E-04
  44.100      9.74650E-04
  45.100      9.97900E-04
  46.000      1.00450E-03
  47.000      1.03090E-03
  48.000      1.07090E-03
  49.000      1.06980E-03
  50.000      1.12480E-03
  50.600      1.19280E-03
  51.200      1.46130E-03
  52.000      1.48180E-03
  53.000      1.52570E-03
  54.000      1.49980E-03
  55.000      1.53500E-03
  56.000      1.61790E-03
  57.000      1.66100E-03
  58.000      1.66430E-03
  59.000      1.71710E-03
  60.000      1.72030E-03
  61.000      1.72090E-03
  62.000      1.78350E-03
  63.000      1.80130E-03
  64.000      1.84860E-03
  65.000      1.85780E-03
  65.800      1.84610E-03
  66.500      1.89930E-03
  67.500      1.93710E-03
  68.500      1.92350E-03
  69.500      1.98330E-03
  70.500      1.95760E-03
  71.600      2.03040E-03
  72.600      2.05540E-03
  73.500      2.07460E-03
  74.500      2.08610E-03
  75.500      2.10140E-03
  76.500      2.10300E-03
  77.500      2.14120E-03
  78.500      2.14590E-03
  79.500      2.16580E-03
  80.500      2.19510E-03
  81.500      2.21410E-03
  82.500      2.23770E-03
  83.500      2.20140E-03
  84.500      2.26350E-03
  85.500      2.26630E-03
  86.500      2.29640E-03
  87.500      2.31130E-03
  88.500      2.32280E-03
  89.500      2.33340E-03
  90.500      2.32560E-03
  91.500      1.85590E-03
  92.500      2.97990E-03
  93.500      3.79250E-03
  94.500      4.83520E-03
  95.500      5.28100E-03
  96.500      6.13040E-03
  97.500      4.89550E-03
  98.500      6.15960E-03
  99.500      5.75240E-03
  100.50      6.15570E-03
  101.50      6.07140E-03
  102.50      4.75900E-03
  103.50      5.96300E-03
  104.50      6.00260E-03
  105.50      5.96300E-03
  106.50      5.88070E-03
  107.50      5.84950E-03
  108.50      5.49000E-03
  109.50      5.77450E-03
  110.50      5.71730E-03
  111.50      5.66840E-03
  112.50      5.57600E-03
  113.50      5.59480E-03
  114.50      5.55050E-03
  115.50      5.48940E-03
  116.50      5.43660E-03
  117.50      5.22190E-03
  118.50      5.36330E-03
  119.50      5.31180E-03
  120.50      5.24140E-03
  121.50      4.22240E-03
  122.50      5.14210E-03
  123.50      5.11860E-03
  124.50      5.07380E-03
  125.50      5.07730E-03
  126.50      5.03730E-03
  127.50      4.99700E-03
  128.50      4.95720E-03
  129.50      4.91660E-03
  130.50      4.87630E-03
  131.50      4.83830E-03
  132.50      4.79680E-03
  133.50      4.76140E-03
  134.50      4.72580E-03
  135.50      4.68390E-03
  136.50      4.64160E-03
  137.50      4.59000E-03
  138.50      4.56890E-03
  139.50      4.50510E-03
  140.50      4.46080E-03
  141.50      4.46460E-03
  142.50      4.42730E-03
  143.50      4.39650E-03
  144.20      4.36430E-03
  144.70      4.34950E-03
  145.50      4.32110E-03
  146.50      4.28890E-03
  147.50      4.25970E-03
  148.50      4.23150E-03
  149.50      4.19750E-03
  150.50      4.16690E-03
  151.20      4.14540E-03
  151.70      4.12730E-03
  152.50      4.10270E-03
  153.50      4.06610E-03
  154.50      3.96920E-03
  155.50      3.94910E-03
  156.50      3.97240E-03
  157.50      3.94610E-03
  158.50      3.91630E-03
  159.50      3.88700E-03
  160.50      3.85250E-03
  161.50      3.82410E-03
  162.50      3.79130E-03
  163.50      3.67930E-03
  164.50      3.51750E-03
  165.50      3.71500E-03
  166.50      3.68930E-03
  167.20      3.66510E-03
  167.70      3.65830E-03
  168.50      3.63650E-03
  169.50      3.61030E-03
  170.50      3.58300E-03
  171.50      3.53200E-03
  172.50      3.52690E-03
  173.50      3.50720E-03
  174.50      3.48120E-03
  175.50      3.45510E-03
  176.50      3.43170E-03
  177.50      3.40760E-03
  178.50      3.38330E-03
  179.50      3.35860E-03
  180.50      3.33510E-03
  181.50      3.31150E-03
  182.50      3.28800E-03
  183.50      3.26510E-03
  184.50      3.24210E-03
  185.50      3.21910E-03
  186.50      3.19660E-03
  187.50      3.17430E-03
  188.50      3.15210E-03
  189.50      3.13090E-03
  190.50      3.10940E-03
  191.50      3.08790E-03
  192.50      3.06510E-03
  193.50      3.04580E-03
  194.50      3.02500E-03
  195.50      3.00430E-03
  196.70      2.97990E-03
  197.60      2.96180E-03
  198.40      2.94580E-03
  199.50      2.92400E-03
  200.50      2.90450E-03
  201.50      2.88500E-03
  202.50      2.86580E-03
  203.50      2.84680E-03
  204.50      2.82770E-03
  205.50      2.18840E-03
  206.50      2.11400E-03
  207.40      2.14600E-03
  207.80      2.18750E-03
  208.50      2.30020E-03
  209.50      2.54830E-03
  210.50      2.70160E-03
  211.50      2.70930E-03
  212.50      2.69380E-03
  213.50      2.66970E-03
  214.50      2.65750E-03
  215.50      2.68010E-03
  216.50      2.59930E-03
  217.50      2.66860E-03
  218.50      2.56150E-03
  219.50      2.63490E-03
  220.50      2.62460E-03
  221.50      2.50660E-03
  222.50      2.59110E-03
  223.50      2.57770E-03
  224.50      2.55650E-03
  225.50      2.44560E-03
  226.50      2.52840E-03
  227.50      2.51290E-03
  228.50      2.49690E-03
  229.50      2.47100E-03
  230.50      2.37340E-03
  231.50      2.44620E-03
  232.50      2.43510E-03
  233.50      2.42000E-03
  234.50      2.40500E-03
  235.50      2.39020E-03
  236.50      2.37540E-03
  237.50      2.36060E-03
  238.50      2.26190E-03
  239.50      2.32960E-03
  240.50      2.31760E-03
  241.50      2.30360E-03
  242.50      2.28980E-03
  243.50      2.27590E-03
  244.50      2.26220E-03
  245.50      2.24840E-03
  246.50      2.23510E-03
  247.50      2.22180E-03
  248.50      2.20850E-03
  249.50      2.17370E-03
  250.50      2.17000E-03
  251.30      2.01800E-03
  251.80      2.15990E-03
  252.50      2.15600E-03
  253.50      2.14400E-03
  254.50      2.13150E-03
  255.50      2.11900E-03
  256.50      2.10670E-03
  257.50      2.09450E-03
  258.50      2.08230E-03
  259.50      2.07010E-03
  260.50      2.05890E-03
  261.50      2.04710E-03
  262.50      2.03540E-03
  263.50      2.02370E-03
  264.50      2.01220E-03
  265.50      2.00080E-03
  266.50      1.98930E-03
  267.50      1.97760E-03
  268.50      1.96700E-03
  269.50      1.95530E-03
  270.50      1.94500E-03
  271.50      1.93410E-03
  272.50      1.92120E-03
  273.50      1.85080E-03
  274.50      1.90200E-03
  275.50      1.89150E-03
  276.50      1.87970E-03
  277.50      1.87070E-03
  278.50      1.86040E-03
  279.50      1.85020E-03
  280.50      1.84010E-03
  281.50      1.83010E-03
  282.50      1.81890E-03
  283.50      1.80970E-03
  284.50      1.80050E-03
  285.50      1.79080E-03
  286.50      1.78120E-03
  287.50      1.77160E-03
  288.50      1.76210E-03
  289.50      1.75270E-03
  291.00      1.73880E-03
  293.00      1.72040E-03
  295.00      1.70100E-03
  297.00      1.68450E-03
  299.00      1.66680E-03
  301.00      1.64960E-03
  303.00      1.63250E-03
  305.00      1.61580E-03
  307.00      1.59940E-03
  309.00      1.58320E-03
  311.00      1.56720E-03
  313.00      1.55150E-03
  315.00      1.53610E-03
  317.00      1.52080E-03
  319.00      1.50270E-03
  321.00      1.46650E-03
  323.00      1.47620E-03
  325.00      1.46180E-03
  327.00      1.44740E-03
  329.00      1.43350E-03
  331.00      1.41980E-03
  333.00      1.40620E-03
  335.00      1.39260E-03
  337.00      1.37960E-03
  339.00      1.36660E-03
  341.00      1.35370E-03
  343.00      1.34160E-03
  345.00      1.32860E-03
  347.00      1.31670E-03
  349.00      1.30450E-03
  351.00      1.29230E-03
  353.00      1.28030E-03
  355.00      1.26830E-03
  357.00      1.25750E-03
  359.00      1.24500E-03
  361.00      1.23440E-03
  363.00      1.22250E-03
  364.00      1.19560E-03
  365.00      1.10060E-03
  367.00      1.09230E-03
  369.00      1.08520E-03
  371.00      1.08270E-03
  373.00      1.08680E-03
  375.00      1.09780E-03
  377.00      1.10690E-03
  379.00      1.12330E-03
  381.00      1.14070E-03
  383.00      1.09250E-03
  385.00      1.13760E-03
  387.00      1.14500E-03
  389.00      1.05230E-03
  391.00      1.12960E-03
  393.00      1.11790E-03
  395.00      1.11350E-03
  397.00      1.01470E-03
  399.00      1.09260E-03
  401.00      1.09040E-03
  403.00      1.06060E-03
  405.00      1.07620E-03
  407.00      1.06530E-03
  409.00      1.02790E-03
  411.00      9.74070E-04
  413.00      1.03650E-03
  415.00      1.03100E-03
  417.00      1.02390E-03
  419.00      1.00950E-03
  421.00      9.91830E-04
  423.00      9.99200E-04
  425.00      9.91120E-04
  427.00      9.83130E-04
  429.00      9.75230E-04
  431.00      9.65300E-04
  433.00      9.25400E-04
  435.00      8.92630E-04
  437.00      9.41710E-04
  439.00      9.34230E-04
  441.00      9.29820E-04
  443.00      9.22370E-04
  445.00      9.15390E-04
  447.00      9.00420E-04
  449.00      9.01270E-04
  451.00      8.94330E-04
  453.00      8.85330E-04
  455.00      8.63840E-04
  457.00      8.74000E-04
  459.00      8.67380E-04
  461.00      8.60830E-04
  463.00      8.54330E-04
  465.00      8.47750E-04
  467.00      8.40510E-04
  469.00      8.07440E-04
  471.00      8.27470E-04
  473.00      8.23030E-04
  475.00      8.16980E-04
  477.00      8.10990E-04
  479.00      8.05060E-04
  481.00      7.99190E-04
  483.00      7.91680E-04
  485.00      7.65860E-04
  487.00      7.30440E-04
  489.00      7.73460E-04
  491.00      7.70820E-04
  493.00      7.61870E-04
  495.00      7.59910E-04
  497.00      7.54540E-04
  499.00      7.49220E-04
  501.00      7.42380E-04
  503.00      7.38750E-04
  505.00      7.33250E-04
  507.00      7.28490E-04
  509.00      7.23450E-04
  511.00      7.18450E-04
  513.00      7.13510E-04
  515.00      7.08620E-04
  517.00      7.03780E-04
  519.00      6.98980E-04
  521.00      6.94240E-04
  523.00      6.89540E-04
  525.00      6.84890E-04
  527.00      6.80290E-04
  529.00      6.75730E-04
  531.00      6.71220E-04
  533.00      6.66760E-04
  535.00      6.62330E-04
  537.00      6.57950E-04
  539.00      6.53610E-04
  541.00      6.36380E-04
  543.00      6.44780E-04
  545.00      6.40860E-04
  547.00      6.36700E-04
  549.00      6.32570E-04
  551.00      6.28480E-04
  553.00      6.24430E-04
  555.00      6.20420E-04
  557.00      6.16450E-04
  559.00      6.12500E-04
  561.00      6.08620E-04
  563.00      6.04760E-04
  565.00      6.00940E-04
  567.00      5.97150E-04
  569.00      5.86970E-04
  571.00      5.54700E-04
  573.00      5.51490E-04
  575.00      5.48310E-04
  577.00      5.45190E-04
  579.00      5.42210E-04
  581.00      5.39450E-04
  583.00      5.37220E-04
  585.00      5.35440E-04
  587.00      5.31100E-04
  589.00      5.32910E-04
  591.00      5.32290E-04
  593.00      5.31900E-04
  595.00      5.31860E-04
  597.00      5.32030E-04
  599.00      5.32730E-04
  601.00      5.32200E-04
  603.00      5.31590E-04
  605.00      5.31030E-04
  607.00      5.27930E-04
  609.00      5.25230E-04
  611.00      5.22520E-04
  613.00      5.19760E-04
  615.00      5.17200E-04
  617.00      5.12840E-04
  619.00      5.11090E-04
  621.00      5.08210E-04
  623.00      5.03740E-04
  625.00      5.01890E-04
  627.00      4.99450E-04
  629.00      4.96570E-04
  631.00      4.91440E-04
  633.00      4.90600E-04
  635.00      4.88120E-04
  637.00      4.85340E-04
  639.00      4.82270E-04
  641.00      4.76840E-04
  643.00      4.77150E-04
  645.00      4.74480E-04
  647.00      4.71820E-04
  649.00      4.69180E-04
  651.00      4.66070E-04
  653.00      4.59260E-04
  655.00      4.53900E-04
  657.00      4.29890E-04
  659.00      4.54660E-04
  661.00      4.53800E-04
  663.00      4.51320E-04
  665.00      4.48870E-04
  667.00      4.44530E-04
  669.00      4.38220E-04
  671.00      4.41580E-04
  673.00      4.39200E-04
  675.00      4.36830E-04
  677.00      4.34480E-04
  679.00      4.32150E-04
  681.00      4.29840E-04
  683.00      4.27550E-04
  685.00      4.25270E-04
  687.00      4.23000E-04
  689.00      4.15270E-04
  691.00      4.18200E-04
  693.00      4.16340E-04
  695.00      4.14160E-04
  697.00      4.11990E-04
  699.00      4.09840E-04
  701.00      4.07700E-04
  703.00      4.05580E-04
  705.00      4.03480E-04
  707.00      3.99970E-04
  709.00      3.99320E-04
  711.00      3.97260E-04
  713.00      3.95230E-04
  715.00      3.93200E-04
  717.00      3.87420E-04
  719.00      3.86760E-04
  721.00      3.87220E-04
  723.00      3.85260E-04
  725.00      3.83320E-04
  727.00      3.81390E-04
  729.00      3.78970E-04
  731.00      3.77560E-04
  733.00      3.75680E-04
  735.00      3.73800E-04
  737.00      3.71940E-04
  739.00      3.70090E-04
  741.00      3.68260E-04
  743.00      3.66440E-04
  745.00      3.64640E-04
  747.00      3.62840E-04
  749.00      3.61060E-04
  751.00      3.59290E-04
  753.00      3.57540E-04
  755.00      3.55800E-04
  757.00      3.54070E-04
  759.00      3.46760E-04
  761.00      3.50180E-04
  763.00      3.48960E-04
  765.00      3.47280E-04
  767.00      3.45620E-04
  769.00      3.43960E-04
  771.00      3.42320E-04
  773.00      3.40690E-04
  775.00      3.39070E-04
  777.00      3.37460E-04
  779.00      3.35860E-04
  781.00      3.34270E-04
  783.00      3.32700E-04
  785.00      3.31160E-04
  787.00      3.29610E-04
  789.00      3.28070E-04
  791.00      3.26540E-04
  793.00      3.25020E-04
  795.00      3.23510E-04
  797.00      3.22010E-04
  799.00      3.20520E-04
  801.00      3.19040E-04
  803.00      3.17570E-04
  805.00      3.16120E-04
  807.00      3.14670E-04
  809.00      3.13230E-04
  811.00      3.11800E-04
  813.00      3.10380E-04
  815.00      3.08970E-04
  817.00      3.07570E-04
  819.00      3.05000E-04
  821.00      2.93970E-04
  823.00      2.90950E-04
  825.00      2.90990E-04
  827.00      2.90190E-04
  829.00      2.89000E-04
  831.00      2.87780E-04
  833.00      2.86550E-04
  835.00      2.85310E-04
  837.00      2.84150E-04
  839.00      2.82990E-04
  841.00      2.81880E-04
  843.00      2.80770E-04
  845.00      2.79620E-04
  847.00      2.78660E-04
  849.00      2.77740E-04
  851.00      2.76800E-04
  853.00      2.75900E-04
  855.00      2.74900E-04
  857.00      2.74240E-04
  859.00      2.73050E-04
  861.00      2.72360E-04
  863.00      2.71990E-04
  865.00      2.70870E-04
  867.00      2.69320E-04
  869.00      2.69770E-04
  871.00      2.69390E-04
  873.00      2.68120E-04
  875.00      2.65040E-04
  877.00      2.66230E-04
  879.00      2.66900E-04
  881.00      2.66530E-04
  883.00      2.65630E-04
  885.00      2.61890E-04
  887.00      2.58010E-04
  889.00      2.62060E-04
  891.00      2.62500E-04
  893.00      2.61890E-04
  895.00      2.61160E-04
  897.00      2.59780E-04
  899.00      2.57020E-04
  901.00      2.49270E-04
  903.00      2.51150E-04
  905.00      2.54710E-04
  907.00      2.54400E-04
  909.00      2.53960E-04
  911.00      2.52740E-04
  913.00      2.52300E-04
  915.00      2.51270E-04
  917.00      2.49860E-04
  919.00      2.48090E-04
  921.00      2.44150E-04
  923.00      2.34850E-04
  925.00      2.41650E-04
  927.00      2.43950E-04
  929.00      2.43820E-04
  931.00      2.43050E-04
  933.00      2.41790E-04
  935.00      2.36000E-04
  937.00      2.39390E-04
  939.00      2.39260E-04
  941.00      2.38390E-04
  943.00      2.37450E-04
  945.00      2.36500E-04
  947.00      2.35420E-04
  949.00      2.34310E-04
  951.00      2.32220E-04
  953.00      2.27880E-04
  955.00      2.18720E-04
  957.00      2.27340E-04
  959.00      2.29060E-04
  961.00      2.28890E-04
  963.00      2.28130E-04
  965.00      2.27370E-04
  967.00      2.26490E-04
  969.00      2.25600E-04
  971.00      2.24680E-04
  973.00      2.23860E-04
  975.00      2.22690E-04
  977.00      2.21080E-04
  979.00      2.21280E-04
  981.00      2.20440E-04
  983.00      2.19590E-04
  985.00      2.18750E-04
  987.00      2.17920E-04
  989.00      2.17090E-04
  991.00      2.16260E-04
  993.00      2.15440E-04
  995.00      2.14630E-04
  997.00      2.13810E-04
  999.00      2.12830E-04
  1002.5      2.07740E-04
  1007.5      2.04410E-04
  1012.5      2.04490E-04
  1017.5      2.05760E-04
  1022.5      2.03860E-04
  1027.5      2.02000E-04
  1032.5      2.00020E-04
  1037.5      1.98330E-04
  1042.5      1.95670E-04
  1047.5      1.94770E-04
  1052.5      1.93020E-04
  1057.5      1.91300E-04
  1062.5      1.89600E-04
  1067.5      1.87900E-04
  1072.5      1.86270E-04
  1077.5      1.84630E-04
  1082.5      1.82600E-04
  1087.5      1.81170E-04
  1092.5      1.73640E-04
  1097.5      1.76400E-04
  1102.5      1.76690E-04
  1107.5      1.75260E-04
  1112.5      1.73770E-04
  1117.5      1.72390E-04
  1122.5      1.70930E-04
  1127.5      1.69490E-04
  1132.5      1.68070E-04
  1137.5      1.66670E-04
  1142.5      1.65290E-04
  1147.5      1.63920E-04
  1152.5      1.62570E-04
  1157.5      1.61240E-04
  1162.5      1.58280E-04
  1167.5      1.57490E-04
  1172.5      1.57340E-04
  1177.5      1.56070E-04
  1182.5      1.54810E-04
  1187.5      1.53570E-04
  1192.5      1.52350E-04
  1197.5      1.50920E-04
  1202.5      1.49950E-04
  1207.5      1.48760E-04
  1212.5      1.47600E-04
  1217.5      1.46440E-04
  1222.5      1.45300E-04
  1227.5      1.44170E-04
  1232.5      1.43060E-04
  1237.5      1.41960E-04
  1242.5      1.40870E-04
  1247.5      1.39790E-04
  1252.5      1.38700E-04
  1257.5      1.37680E-04
  1262.5      1.36640E-04
  1267.5      1.35610E-04
  1272.5      1.34590E-04
  1277.5      1.32720E-04
  1282.5      1.27610E-04
  1287.5      1.31220E-04
  1292.5      1.30630E-04
  1297.5      1.29600E-04
  1302.5      1.28720E-04
  1307.5      1.27780E-04
  1312.5      1.26850E-04
  1317.5      1.25930E-04
  1322.5      1.25020E-04
  1327.5      1.24120E-04
  1332.5      1.23230E-04
  1337.5      1.22340E-04
  1342.5      1.21460E-04
  1347.5      1.20610E-04
  1352.5      1.19760E-04
  1357.5      1.18910E-04
  1362.5      1.18080E-04
  1367.5      1.17250E-04
  1372.5      1.16430E-04
  1377.5      1.15620E-04
  1382.5      1.14820E-04
  1387.5      1.14020E-04
  1392.5      1.13240E-04
  1397.5      1.12460E-04
