 Castelli and Kurucz 2004-2012 Atmosphere
 T     34000.     G    5.00000 [-2.5] N(He)/Ntot=0.0784 VTURB=2  L/H=1.25 NOVER
 Wavelength  Eddington Hnu
   (nm)    (ergs/s/cm2/Hz/sr)
  9.0900      1.01490E-29
  9.3500      6.03990E-29
  9.6100      3.27800E-28
  9.7700      8.89450E-28
  9.9600      2.79510E-27
  10.200      1.11990E-26
  10.380      3.04660E-26
  10.560      8.01960E-26
  10.770      2.38420E-25
  11.040      9.12610E-25
  11.400      4.96310E-24
  11.780      2.66200E-23
  12.130      1.14230E-22
  12.480      4.52650E-22
  12.710      1.07490E-21
  12.840      1.72880E-21
  13.050      3.65340E-21
  13.240      7.04630E-21
  13.390      1.16860E-20
  13.660      2.82760E-20
  13.980      7.71060E-20
  14.330      2.19830E-19
  14.720      6.66410E-19
  15.100      1.85940E-18
  15.520      5.45770E-18
  15.880      1.31240E-17
  16.200      2.77240E-17
  16.600      6.77990E-17
  17.030      1.69220E-16
  17.340      3.18120E-16
  17.680      6.19670E-16
  18.020      1.17670E-15
  18.170      1.54950E-15
  18.610      3.38610E-15
  19.100      7.75190E-15
  19.390      1.24000E-14
  19.840      2.50090E-14
  20.180      4.16030E-14
  20.500      6.61320E-14
  21.050      1.41790E-13
  21.620      2.99790E-13
  21.980      4.71460E-13
  22.300      6.96070E-13
  22.680      1.08890E-12
  23.000      2.28900E-11
  23.400      1.76360E-10
  24.000      6.55390E-10
  24.650      1.98380E-09
  25.240      3.57360E-09
  25.680      2.53700E-09
  26.000      6.39390E-09
  26.400      8.49650E-09
  26.850      1.13800E-08
  27.350      1.43730E-08
  27.850      1.67970E-08
  28.400      2.15500E-08
  29.000      2.55910E-08
  29.600      2.73660E-08
  30.100      2.15050E-08
  30.800      2.96040E-08
  31.800      6.19390E-08
  32.800      8.63740E-08
  33.800      1.21000E-07
  34.800      1.67440E-07
  35.700      2.16820E-07
  36.600      2.87230E-07
  37.500      3.66000E-07
  38.500      4.89770E-07
  39.500      6.38400E-07
  40.500      8.20630E-07
  41.400      1.02470E-06
  42.200      1.23000E-06
  43.000      1.46670E-06
  44.100      1.86280E-06
  45.100      2.28720E-06
  46.000      2.71230E-06
  47.000      3.30350E-06
  48.000      3.95480E-06
  49.000      4.67530E-06
  50.000      5.55690E-06
  50.600      2.26230E-05
  51.200      7.52900E-05
  52.000      7.69230E-05
  53.000      8.40940E-05
  54.000      7.96420E-05
  55.000      8.88900E-05
  56.000      9.42680E-05
  57.000      9.81960E-05
  58.000      9.62760E-05
  59.000      1.04630E-04
  60.000      1.07140E-04
  61.000      1.11180E-04
  62.000      1.17010E-04
  63.000      1.21520E-04
  64.000      1.24780E-04
  65.000      1.29900E-04
  65.800      1.32470E-04
  66.500      1.36160E-04
  67.500      1.41590E-04
  68.500      1.43060E-04
  69.500      1.52590E-04
  70.500      1.54560E-04
  71.600      1.63360E-04
  72.600      1.68740E-04
  73.500      1.75140E-04
  74.500      1.80040E-04
  75.500      1.85510E-04
  76.500      1.90890E-04
  77.500      1.97740E-04
  78.500      2.05090E-04
  79.500      2.10800E-04
  80.500      2.16820E-04
  81.500      2.23220E-04
  82.500      2.30490E-04
  83.500      2.29690E-04
  84.500      2.43330E-04
  85.500      2.49840E-04
  86.500      2.56720E-04
  87.500      2.63360E-04
  88.500      2.70050E-04
  89.500      2.76780E-04
  90.500      2.82650E-04
  91.500      2.93220E-04
  92.500      7.68900E-04
  93.500      1.27310E-03
  94.500      2.17410E-03
  95.500      2.54330E-03
  96.500      3.26850E-03
  97.500      2.04030E-03
  98.500      3.44450E-03
  99.500      3.20680E-03
  100.50      3.48830E-03
  101.50      3.38900E-03
  102.50      1.97410E-03
  103.50      3.27880E-03
  104.50      3.43400E-03
  105.50      3.42380E-03
  106.50      3.34480E-03
  107.50      3.32880E-03
  108.50      3.10720E-03
  109.50      3.32540E-03
  110.50      3.27660E-03
  111.50      3.25210E-03
  112.50      3.17800E-03
  113.50      3.22870E-03
  114.50      3.19890E-03
  115.50      3.16730E-03
  116.50      3.14880E-03
  117.50      2.88600E-03
  118.50      3.08470E-03
  119.50      3.05530E-03
  120.50      2.92410E-03
  121.50      1.80400E-03
  122.50      2.88140E-03
  123.50      2.96890E-03
  124.50      2.93260E-03
  125.50      2.94680E-03
  126.50      2.92740E-03
  127.50      2.90600E-03
  128.50      2.88460E-03
  129.50      2.82580E-03
  130.50      2.82470E-03
  131.50      2.81950E-03
  132.50      2.79430E-03
  133.50      2.75030E-03
  134.50      2.75520E-03
  135.50      2.73440E-03
  136.50      2.71250E-03
  137.50      2.69120E-03
  138.50      2.67140E-03
  139.50      2.60720E-03
  140.50      2.59100E-03
  141.50      2.61030E-03
  142.50      2.58510E-03
  143.50      2.57150E-03
  144.20      2.55920E-03
  144.70      2.54910E-03
  145.50      2.53270E-03
  146.50      2.51460E-03
  147.50      2.49500E-03
  148.50      2.47850E-03
  149.50      2.45860E-03
  150.50      2.44020E-03
  151.20      2.42880E-03
  151.70      2.41890E-03
  152.50      2.40240E-03
  153.50      2.37340E-03
  154.50      2.31760E-03
  155.50      2.30800E-03
  156.50      2.32140E-03
  157.50      2.31100E-03
  158.50      2.29790E-03
  159.50      2.28060E-03
  160.50      2.25280E-03
  161.50      2.23510E-03
  162.50      2.21900E-03
  163.50      2.16950E-03
  164.50      2.07560E-03
  165.50      2.18070E-03
  166.50      2.16650E-03
  167.20      2.15160E-03
  167.70      2.15350E-03
  168.50      2.13960E-03
  169.50      2.12460E-03
  170.50      2.10820E-03
  171.50      2.08340E-03
  172.50      2.07180E-03
  173.50      2.06740E-03
  174.50      2.05170E-03
  175.50      2.03550E-03
  176.50      2.02330E-03
  177.50      2.01030E-03
  178.50      1.99680E-03
  179.50      1.98240E-03
  180.50      1.96950E-03
  181.50      1.95570E-03
  182.50      1.94190E-03
  183.50      1.92970E-03
  184.50      1.91490E-03
  185.50      1.89890E-03
  186.50      1.88700E-03
  187.50      1.87650E-03
  188.50      1.86250E-03
  189.50      1.84840E-03
  190.50      1.83940E-03
  191.50      1.82440E-03
  192.50      1.80940E-03
  193.50      1.80170E-03
  194.50      1.79150E-03
  195.50      1.77680E-03
  196.70      1.76540E-03
  197.60      1.75600E-03
  198.40      1.74570E-03
  199.50      1.73150E-03
  200.50      1.72290E-03
  201.50      1.71210E-03
  202.50      1.70120E-03
  203.50      1.69000E-03
  204.50      1.67910E-03
  205.50      1.47060E-03
  206.50      1.44140E-03
  207.40      1.44140E-03
  207.80      1.44750E-03
  208.50      1.47460E-03
  209.50      1.54290E-03
  210.50      1.60430E-03
  211.50      1.60780E-03
  212.50      1.59890E-03
  213.50      1.58760E-03
  214.50      1.57800E-03
  215.50      1.57370E-03
  216.50      1.55230E-03
  217.50      1.56010E-03
  218.50      1.53110E-03
  219.50      1.54020E-03
  220.50      1.53230E-03
  221.50      1.49940E-03
  222.50      1.51310E-03
  223.50      1.50400E-03
  224.50      1.49400E-03
  225.50      1.46160E-03
  226.50      1.47640E-03
  227.50      1.46740E-03
  228.50      1.45820E-03
  229.50      1.43540E-03
  230.50      1.41750E-03
  231.50      1.43130E-03
  232.50      1.42330E-03
  233.50      1.41470E-03
  234.50      1.40630E-03
  235.50      1.39790E-03
  236.50      1.38950E-03
  237.50      1.38120E-03
  238.50      1.35130E-03
  239.50      1.36450E-03
  240.50      1.35690E-03
  241.50      1.34890E-03
  242.50      1.34100E-03
  243.50      1.33310E-03
  244.50      1.32540E-03
  245.50      1.31760E-03
  246.50      1.31000E-03
  247.50      1.30250E-03
  248.50      1.29500E-03
  249.50      1.26710E-03
  250.50      1.27800E-03
  251.30      1.23310E-03
  251.80      1.26940E-03
  252.50      1.26560E-03
  253.50      1.25850E-03
  254.50      1.25130E-03
  255.50      1.24430E-03
  256.50      1.23740E-03
  257.50      1.23040E-03
  258.50      1.22360E-03
  259.50      1.21680E-03
  260.50      1.21390E-03
  261.50      1.20710E-03
  262.50      1.20040E-03
  263.50      1.19370E-03
  264.50      1.18670E-03
  265.50      1.17960E-03
  266.50      1.17190E-03
  267.50      1.16410E-03
  268.50      1.16140E-03
  269.50      1.15000E-03
  270.50      1.14890E-03
  271.50      1.14260E-03
  272.50      1.13010E-03
  273.50      1.11620E-03
  274.50      1.12430E-03
  275.50      1.11830E-03
  276.50      1.10520E-03
  277.50      1.10640E-03
  278.50      1.10060E-03
  279.50      1.09440E-03
  280.50      1.08890E-03
  281.50      1.08330E-03
  282.50      1.06950E-03
  283.50      1.06740E-03
  284.50      1.06640E-03
  285.50      1.06080E-03
  286.50      1.05530E-03
  287.50      1.04980E-03
  288.50      1.04440E-03
  289.50      1.03910E-03
  291.00      1.03110E-03
  293.00      1.02060E-03
  295.00      1.00400E-03
  297.00      1.00010E-03
  299.00      9.89990E-04
  301.00      9.80150E-04
  303.00      9.70410E-04
  305.00      9.60820E-04
  307.00      9.51400E-04
  309.00      9.42000E-04
  311.00      9.32920E-04
  313.00      9.24420E-04
  315.00      9.15480E-04
  317.00      9.06700E-04
  319.00      8.91140E-04
  321.00      8.84430E-04
  323.00      8.80790E-04
  325.00      8.72350E-04
  327.00      8.64770E-04
  329.00      8.55930E-04
  331.00      8.48850E-04
  333.00      8.41020E-04
  335.00      8.32190E-04
  337.00      8.25730E-04
  339.00      8.18240E-04
  341.00      8.10850E-04
  343.00      8.01300E-04
  345.00      7.91980E-04
  347.00      7.86650E-04
  349.00      7.79720E-04
  351.00      7.73290E-04
  353.00      7.67250E-04
  355.00      7.60310E-04
  357.00      7.57640E-04
  359.00      7.45980E-04
  361.00      7.42360E-04
  363.00      7.33190E-04
  364.00      7.33680E-04
  365.00      7.20610E-04
  367.00      7.16590E-04
  369.00      7.11200E-04
  371.00      6.98560E-04
  373.00      6.89410E-04
  375.00      6.84240E-04
  377.00      6.70490E-04
  379.00      6.86800E-04
  381.00      7.10510E-04
  383.00      6.44440E-04
  385.00      7.29290E-04
  387.00      7.44170E-04
  389.00      6.21740E-04
  391.00      7.40090E-04
  393.00      7.41080E-04
  395.00      7.30110E-04
  397.00      5.99030E-04
  399.00      7.13140E-04
  401.00      7.17940E-04
  403.00      6.85630E-04
  405.00      7.12890E-04
  407.00      7.04190E-04
  409.00      6.54990E-04
  411.00      5.91180E-04
  413.00      6.79730E-04
  415.00      6.79310E-04
  417.00      6.79240E-04
  419.00      6.73700E-04
  421.00      6.67120E-04
  423.00      6.63830E-04
  425.00      6.58410E-04
  427.00      6.52950E-04
  429.00      6.46760E-04
  431.00      6.37750E-04
  433.00      5.85800E-04
  435.00      5.47970E-04
  437.00      6.20980E-04
  439.00      6.06800E-04
  441.00      6.17310E-04
  443.00      6.11290E-04
  445.00      6.08100E-04
  447.00      5.78980E-04
  449.00      5.98240E-04
  451.00      5.94200E-04
  453.00      5.89510E-04
  455.00      5.82370E-04
  457.00      5.80700E-04
  459.00      5.76280E-04
  461.00      5.71960E-04
  463.00      5.67660E-04
  465.00      5.62950E-04
  467.00      5.59160E-04
  469.00      5.47880E-04
  471.00      5.45420E-04
  473.00      5.46880E-04
  475.00      5.42860E-04
  477.00      5.38890E-04
  479.00      5.34950E-04
  481.00      5.29960E-04
  483.00      5.23040E-04
  485.00      4.87990E-04
  487.00      4.48540E-04
  489.00      5.09670E-04
  491.00      5.10000E-04
  493.00      4.96780E-04
  495.00      5.04940E-04
  497.00      5.01420E-04
  499.00      4.97890E-04
  501.00      4.89440E-04
  503.00      4.90940E-04
  505.00      4.85480E-04
  507.00      4.84140E-04
  509.00      4.80790E-04
  511.00      4.77480E-04
  513.00      4.74200E-04
  515.00      4.70950E-04
  517.00      4.67740E-04
  519.00      4.64560E-04
  521.00      4.61420E-04
  523.00      4.58300E-04
  525.00      4.55220E-04
  527.00      4.52170E-04
  529.00      4.49140E-04
  531.00      4.46150E-04
  533.00      4.43190E-04
  535.00      4.40260E-04
  537.00      4.37360E-04
  539.00      4.34480E-04
  541.00      4.29680E-04
  543.00      4.28810E-04
  545.00      4.26020E-04
  547.00      4.23250E-04
  549.00      4.20520E-04
  551.00      4.17800E-04
  553.00      4.15120E-04
  555.00      4.12460E-04
  557.00      4.09820E-04
  559.00      4.07210E-04
  561.00      4.04630E-04
  563.00      4.02070E-04
  565.00      3.99530E-04
  567.00      3.97020E-04
  569.00      3.94070E-04
  571.00      3.89810E-04
  573.00      3.87420E-04
  575.00      3.85050E-04
  577.00      3.82720E-04
  579.00      3.80390E-04
  581.00      3.78090E-04
  583.00      3.75810E-04
  585.00      3.73520E-04
  587.00      3.61510E-04
  589.00      3.68410E-04
  591.00      3.67170E-04
  593.00      3.65150E-04
  595.00      3.63130E-04
  597.00      3.61150E-04
  599.00      3.59520E-04
  601.00      3.57740E-04
  603.00      3.55610E-04
  605.00      3.53510E-04
  607.00      3.51420E-04
  609.00      3.49350E-04
  611.00      3.47300E-04
  613.00      3.45260E-04
  615.00      3.43250E-04
  617.00      3.41250E-04
  619.00      3.39270E-04
  621.00      3.37300E-04
  623.00      3.35360E-04
  625.00      3.33430E-04
  627.00      3.31510E-04
  629.00      3.29610E-04
  631.00      3.27730E-04
  633.00      3.25870E-04
  635.00      3.24020E-04
  637.00      3.22180E-04
  639.00      3.20360E-04
  641.00      3.18560E-04
  643.00      3.16770E-04
  645.00      3.15000E-04
  647.00      3.13240E-04
  649.00      3.11490E-04
  651.00      3.09420E-04
  653.00      3.06270E-04
  655.00      2.94720E-04
  657.00      2.69020E-04
  659.00      2.99690E-04
  661.00      3.00630E-04
  663.00      2.99680E-04
  665.00      2.98170E-04
  667.00      2.93740E-04
  669.00      2.92040E-04
  671.00      2.93350E-04
  673.00      2.91770E-04
  675.00      2.90200E-04
  677.00      2.88650E-04
  679.00      2.87100E-04
  681.00      2.85580E-04
  683.00      2.84060E-04
  685.00      2.82550E-04
  687.00      2.81060E-04
  689.00      2.79570E-04
  691.00      2.78100E-04
  693.00      2.76650E-04
  695.00      2.75200E-04
  697.00      2.73760E-04
  699.00      2.72340E-04
  701.00      2.70930E-04
  703.00      2.69520E-04
  705.00      2.68130E-04
  707.00      2.63310E-04
  709.00      2.65380E-04
  711.00      2.64020E-04
  713.00      2.62680E-04
  715.00      2.61340E-04
  717.00      2.59910E-04
  719.00      2.58680E-04
  721.00      2.57380E-04
  723.00      2.56070E-04
  725.00      2.54790E-04
  727.00      2.53520E-04
  729.00      2.50560E-04
  731.00      2.50970E-04
  733.00      2.49740E-04
  735.00      2.48500E-04
  737.00      2.47270E-04
  739.00      2.46040E-04
  741.00      2.44830E-04
  743.00      2.43620E-04
  745.00      2.42450E-04
  747.00      2.41260E-04
  749.00      2.40080E-04
  751.00      2.38860E-04
  753.00      2.37750E-04
  755.00      2.36600E-04
  757.00      2.35450E-04
  759.00      2.34200E-04
  761.00      2.33190E-04
  763.00      2.32070E-04
  765.00      2.30960E-04
  767.00      2.29850E-04
  769.00      2.28760E-04
  771.00      2.27670E-04
  773.00      2.26590E-04
  775.00      2.25510E-04
  777.00      2.24450E-04
  779.00      2.23390E-04
  781.00      2.22270E-04
  783.00      2.21300E-04
  785.00      2.20410E-04
  787.00      2.19380E-04
  789.00      2.18350E-04
  791.00      2.17340E-04
  793.00      2.16330E-04
  795.00      2.15330E-04
  797.00      2.14260E-04
  799.00      2.13350E-04
  801.00      2.12370E-04
  803.00      2.11390E-04
  805.00      2.10430E-04
  807.00      2.09470E-04
  809.00      2.08300E-04
  811.00      2.07420E-04
  813.00      2.06550E-04
  815.00      2.05470E-04
  817.00      2.04680E-04
  819.00      2.03520E-04
  821.00      2.02130E-04
  823.00      2.01320E-04
  825.00      2.00600E-04
  827.00      1.99270E-04
  829.00      1.98870E-04
  831.00      1.98050E-04
  833.00      1.97090E-04
  835.00      1.95680E-04
  837.00      1.95230E-04
  839.00      1.94550E-04
  841.00      1.93710E-04
  843.00      1.92790E-04
  845.00      1.91130E-04
  847.00      1.91150E-04
  849.00      1.90080E-04
  851.00      1.89470E-04
  853.00      1.88270E-04
  855.00      1.87520E-04
  857.00      1.87190E-04
  859.00      1.84220E-04
  861.00      1.84740E-04
  863.00      1.85280E-04
  865.00      1.82690E-04
  867.00      1.80070E-04
  869.00      1.82840E-04
  871.00      1.83160E-04
  873.00      1.79780E-04
  875.00      1.73650E-04
  877.00      1.76970E-04
  879.00      1.80460E-04
  881.00      1.80490E-04
  883.00      1.78770E-04
  885.00      1.71190E-04
  887.00      1.65700E-04
  889.00      1.74810E-04
  891.00      1.76980E-04
  893.00      1.76880E-04
  895.00      1.76470E-04
  897.00      1.75080E-04
  899.00      1.70650E-04
  901.00      1.58750E-04
  903.00      1.62890E-04
  905.00      1.70530E-04
  907.00      1.70470E-04
  909.00      1.71400E-04
  911.00      1.71260E-04
  913.00      1.70640E-04
  915.00      1.69830E-04
  917.00      1.68490E-04
  919.00      1.66840E-04
  921.00      1.60160E-04
  923.00      1.47720E-04
  925.00      1.58660E-04
  927.00      1.63870E-04
  929.00      1.64620E-04
  931.00      1.63910E-04
  933.00      1.64140E-04
  935.00      1.63020E-04
  937.00      1.62890E-04
  939.00      1.62230E-04
  941.00      1.61580E-04
  943.00      1.60940E-04
  945.00      1.60200E-04
  947.00      1.58460E-04
  949.00      1.58130E-04
  951.00      1.55120E-04
  953.00      1.48550E-04
  955.00      1.37350E-04
  957.00      1.50020E-04
  959.00      1.54000E-04
  961.00      1.54300E-04
  963.00      1.53720E-04
  965.00      1.54090E-04
  967.00      1.53490E-04
  969.00      1.52790E-04
  971.00      1.51950E-04
  973.00      1.51710E-04
  975.00      1.51120E-04
  977.00      1.50540E-04
  979.00      1.49960E-04
  981.00      1.49380E-04
  983.00      1.48810E-04
  985.00      1.48240E-04
  987.00      1.47670E-04
  989.00      1.47100E-04
  991.00      1.46530E-04
  993.00      1.45980E-04
  995.00      1.45430E-04
  997.00      1.44520E-04
  999.00      1.43620E-04
  1002.5      1.36780E-04
  1007.5      1.34040E-04
  1012.5      1.39570E-04
  1017.5      1.39410E-04
  1022.5      1.38080E-04
  1027.5      1.36850E-04
  1032.5      1.35100E-04
  1037.5      1.34360E-04
  1042.5      1.33140E-04
  1047.5      1.31940E-04
  1052.5      1.30760E-04
  1057.5      1.29590E-04
  1062.5      1.28430E-04
  1067.5      1.27110E-04
  1072.5      1.26170E-04
  1077.5      1.25060E-04
  1082.5      1.22920E-04
  1087.5      1.22150E-04
  1092.5      1.12540E-04
  1097.5      1.17290E-04
  1102.5      1.18910E-04
  1107.5      1.18560E-04
  1112.5      1.17680E-04
  1117.5      1.16690E-04
  1122.5      1.15650E-04
  1127.5      1.14720E-04
  1132.5      1.13760E-04
  1137.5      1.12810E-04
  1142.5      1.11870E-04
  1147.5      1.10950E-04
  1152.5      1.10030E-04
  1157.5      1.09130E-04
  1162.5      1.08160E-04
  1167.5      1.07350E-04
  1172.5      1.06480E-04
  1177.5      1.05620E-04
  1182.5      1.04770E-04
  1187.5      1.03930E-04
  1192.5      1.03100E-04
  1197.5      1.01210E-04
  1202.5      1.01470E-04
  1207.5      1.00670E-04
  1212.5      9.98750E-05
  1217.5      9.90930E-05
  1222.5      9.83200E-05
  1227.5      9.75560E-05
  1232.5      9.68010E-05
  1237.5      9.60540E-05
  1242.5      9.53160E-05
  1247.5      9.45870E-05
  1252.5      9.37030E-05
  1257.5      9.31530E-05
  1262.5      9.24470E-05
  1267.5      9.17490E-05
  1272.5      9.08820E-05
  1277.5      8.85480E-05
  1282.5      8.28610E-05
  1287.5      8.81130E-05
  1292.5      8.82510E-05
  1297.5      8.71570E-05
  1302.5      8.70850E-05
  1307.5      8.64480E-05
  1312.5      8.58180E-05
  1317.5      8.51940E-05
  1322.5      8.45770E-05
  1327.5      8.39670E-05
  1332.5      8.33640E-05
  1337.5      8.27670E-05
  1342.5      8.21250E-05
  1347.5      8.15920E-05
  1352.5      8.10130E-05
  1357.5      8.04410E-05
  1362.5      7.98750E-05
  1367.5      7.93160E-05
  1372.5      7.87610E-05
  1377.5      7.82130E-05
  1382.5      7.76700E-05
  1387.5      7.71330E-05
  1392.5      7.66020E-05
  1397.5      7.60760E-05
