 Castelli and Kurucz 2004-2012 Atmosphere
 T     36000.     G    4.50000 [-2.5] N(He)/Ntot=0.0784 VTURB=2  L/H=1.25 NOVER
 Wavelength  Eddington Hnu
   (nm)    (ergs/s/cm2/Hz/sr)
  9.0900      1.12660E-26
  9.3500      5.54650E-26
  9.6100      2.52090E-25
  9.7700      6.16670E-25
  9.9600      1.72290E-24
  10.200      5.99300E-24
  10.380      1.47410E-23
  10.560      3.52310E-23
  10.770      9.40450E-23
  11.040      3.15540E-22
  11.400      1.45670E-21
  11.780      6.65010E-21
  12.130      2.48390E-20
  12.480      8.64290E-20
  12.710      1.89120E-19
  12.840      2.90880E-19
  13.050      5.72960E-19
  13.240      1.03910E-18
  13.390      1.64320E-18
  13.660      3.65770E-18
  13.980      9.07940E-18
  14.330      2.34430E-17
  14.720      6.39900E-17
  15.100      1.61970E-16
  15.520      4.28820E-16
  15.880      9.48210E-16
  16.200      1.86350E-15
  16.600      4.17870E-15
  17.030      9.53680E-15
  17.340      1.68490E-14
  17.680      3.07280E-14
  18.020      5.47550E-14
  18.170      7.01540E-14
  18.610      1.41760E-13
  19.100      2.98350E-13
  19.390      4.55060E-13
  19.840      8.54290E-13
  20.180      1.34870E-12
  20.500      2.04330E-12
  21.050      4.04650E-12
  21.620      7.90760E-12
  21.980      1.18500E-11
  22.300      1.67820E-11
  22.680      2.50330E-11
  23.000      4.53850E-10
  23.400      2.16000E-09
  24.000      7.28460E-09
  24.650      3.16310E-08
  25.240      8.41710E-08
  25.680      5.62100E-08
  26.000      3.17580E-07
  26.400      6.87370E-07
  26.850      1.22380E-06
  27.350      1.81930E-06
  27.850      2.19150E-06
  28.400      3.00280E-06
  29.000      3.33490E-06
  29.600      2.15590E-06
  30.100      3.66410E-07
  30.800      1.28520E-06
  31.800      4.61410E-06
  32.800      5.77890E-06
  33.800      6.30220E-06
  34.800      7.26400E-06
  35.700      7.77040E-06
  36.600      8.67860E-06
  37.500      9.30270E-06
  38.500      1.02240E-05
  39.500      1.16820E-05
  40.500      1.31530E-05
  41.400      1.46900E-05
  42.200      1.59730E-05
  43.000      1.74700E-05
  44.100      2.02580E-05
  45.100      2.27640E-05
  46.000      2.51510E-05
  47.000      2.86570E-05
  48.000      3.22070E-05
  49.000      3.55120E-05
  50.000      4.02680E-05
  50.600      1.21250E-04
  51.200      2.70030E-04
  52.000      2.74420E-04
  53.000      2.86480E-04
  54.000      2.76280E-04
  55.000      2.96170E-04
  56.000      3.20770E-04
  57.000      3.31930E-04
  58.000      3.29280E-04
  59.000      3.50120E-04
  60.000      3.53850E-04
  61.000      3.60680E-04
  62.000      3.84130E-04
  63.000      3.93070E-04
  64.000      4.04150E-04
  65.000      4.11970E-04
  65.800      4.13650E-04
  66.500      4.25960E-04
  67.500      4.42830E-04
  68.500      4.40450E-04
  69.500      4.63280E-04
  70.500      4.61950E-04
  71.600      4.87240E-04
  72.600      4.98470E-04
  73.500      5.09860E-04
  74.500      5.16100E-04
  75.500      5.26210E-04
  76.500      5.34180E-04
  77.500      5.47580E-04
  78.500      5.59910E-04
  79.500      5.70980E-04
  80.500      5.81050E-04
  81.500      5.93050E-04
  82.500      6.07280E-04
  83.500      5.97480E-04
  84.500      6.27210E-04
  85.500      6.37020E-04
  86.500      6.50060E-04
  87.500      6.60500E-04
  88.500      6.70750E-04
  89.500      6.80970E-04
  90.500      6.87840E-04
  91.500      6.67500E-04
  92.500      1.46150E-03
  93.500      2.05560E-03
  94.500      2.81560E-03
  95.500      3.09040E-03
  96.500      3.61710E-03
  97.500      2.72360E-03
  98.500      3.62220E-03
  99.500      3.42340E-03
  100.50      3.64250E-03
  101.50      3.61910E-03
  102.50      2.73710E-03
  103.50      3.56210E-03
  104.50      3.60800E-03
  105.50      3.59260E-03
  106.50      3.52830E-03
  107.50      3.51370E-03
  108.50      3.35160E-03
  109.50      3.51650E-03
  110.50      3.48760E-03
  111.50      3.45510E-03
  112.50      3.39270E-03
  113.50      3.43820E-03
  114.50      3.41750E-03
  115.50      3.38310E-03
  116.50      3.36840E-03
  117.50      3.13400E-03
  118.50      3.31780E-03
  119.50      3.30340E-03
  120.50      3.25050E-03
  121.50      2.51430E-03
  122.50      3.21480E-03
  123.50      3.22350E-03
  124.50      3.18550E-03
  125.50      3.20050E-03
  126.50      3.18300E-03
  127.50      3.16410E-03
  128.50      3.14530E-03
  129.50      3.11590E-03
  130.50      3.10140E-03
  131.50      3.08670E-03
  132.50      3.06520E-03
  133.50      3.04310E-03
  134.50      3.02940E-03
  135.50      3.00850E-03
  136.50      2.98790E-03
  137.50      2.96480E-03
  138.50      2.94960E-03
  139.50      2.89380E-03
  140.50      2.87350E-03
  141.50      2.89380E-03
  142.50      2.86820E-03
  143.50      2.85650E-03
  144.20      2.84250E-03
  144.70      2.83360E-03
  145.50      2.81750E-03
  146.50      2.80090E-03
  147.50      2.78310E-03
  148.50      2.76840E-03
  149.50      2.74840E-03
  150.50      2.73270E-03
  151.20      2.72170E-03
  151.70      2.71110E-03
  152.50      2.69500E-03
  153.50      2.66560E-03
  154.50      2.59820E-03
  155.50      2.59250E-03
  156.50      2.61180E-03
  157.50      2.60390E-03
  158.50      2.59090E-03
  159.50      2.57380E-03
  160.50      2.54390E-03
  161.50      2.52770E-03
  162.50      2.50810E-03
  163.50      2.45000E-03
  164.50      2.34140E-03
  165.50      2.47280E-03
  166.50      2.45870E-03
  167.20      2.44110E-03
  167.70      2.44670E-03
  168.50      2.43240E-03
  169.50      2.41770E-03
  170.50      2.40070E-03
  171.50      2.36810E-03
  172.50      2.36290E-03
  173.50      2.35990E-03
  174.50      2.34370E-03
  175.50      2.32620E-03
  176.50      2.31540E-03
  177.50      2.30160E-03
  178.50      2.28750E-03
  179.50      2.27190E-03
  180.50      2.25880E-03
  181.50      2.24440E-03
  182.50      2.23000E-03
  183.50      2.21750E-03
  184.50      2.20290E-03
  185.50      2.18820E-03
  186.50      2.17450E-03
  187.50      2.16160E-03
  188.50      2.14840E-03
  189.50      2.13600E-03
  190.50      2.12370E-03
  191.50      2.11020E-03
  192.50      2.09390E-03
  193.50      2.08470E-03
  194.50      2.07240E-03
  195.50      2.05870E-03
  196.70      2.04470E-03
  197.60      2.03370E-03
  198.40      2.02380E-03
  199.50      2.01000E-03
  200.50      1.99850E-03
  201.50      1.98650E-03
  202.50      1.97450E-03
  203.50      1.96270E-03
  204.50      1.95090E-03
  205.50      1.58530E-03
  206.50      1.54340E-03
  207.40      1.56910E-03
  207.80      1.60010E-03
  208.50      1.68440E-03
  209.50      1.83940E-03
  210.50      1.88370E-03
  211.50      1.87780E-03
  212.50      1.86700E-03
  213.50      1.85340E-03
  214.50      1.84500E-03
  215.50      1.85370E-03
  216.50      1.81220E-03
  217.50      1.84230E-03
  218.50      1.78990E-03
  219.50      1.81990E-03
  220.50      1.81130E-03
  221.50      1.75640E-03
  222.50      1.78970E-03
  223.50      1.77950E-03
  224.50      1.76820E-03
  225.50      1.71640E-03
  226.50      1.74840E-03
  227.50      1.73820E-03
  228.50      1.72780E-03
  229.50      1.70350E-03
  230.50      1.66850E-03
  231.50      1.69740E-03
  232.50      1.68830E-03
  233.50      1.67860E-03
  234.50      1.66900E-03
  235.50      1.65940E-03
  236.50      1.64990E-03
  237.50      1.64040E-03
  238.50      1.59420E-03
  239.50      1.62110E-03
  240.50      1.61260E-03
  241.50      1.60350E-03
  242.50      1.59440E-03
  243.50      1.58540E-03
  244.50      1.57650E-03
  245.50      1.56760E-03
  246.50      1.55890E-03
  247.50      1.55020E-03
  248.50      1.54160E-03
  249.50      1.50680E-03
  250.50      1.52100E-03
  251.30      1.44390E-03
  251.80      1.51160E-03
  252.50      1.50760E-03
  253.50      1.49950E-03
  254.50      1.49120E-03
  255.50      1.48310E-03
  256.50      1.47500E-03
  257.50      1.46700E-03
  258.50      1.45900E-03
  259.50      1.45110E-03
  260.50      1.44550E-03
  261.50      1.43770E-03
  262.50      1.43000E-03
  263.50      1.42210E-03
  264.50      1.41430E-03
  265.50      1.40620E-03
  266.50      1.39800E-03
  267.50      1.38980E-03
  268.50      1.38470E-03
  269.50      1.37440E-03
  270.50      1.37010E-03
  271.50      1.36290E-03
  272.50      1.35170E-03
  273.50      1.32080E-03
  274.50      1.34150E-03
  275.50      1.33450E-03
  276.50      1.32290E-03
  277.50      1.32060E-03
  278.50      1.31370E-03
  279.50      1.30680E-03
  280.50      1.30010E-03
  281.50      1.29350E-03
  282.50      1.28160E-03
  283.50      1.27800E-03
  284.50      1.27360E-03
  285.50      1.26710E-03
  286.50      1.26070E-03
  287.50      1.25420E-03
  288.50      1.24790E-03
  289.50      1.24150E-03
  291.00      1.23210E-03
  293.00      1.21980E-03
  295.00      1.20360E-03
  297.00      1.19560E-03
  299.00      1.18360E-03
  301.00      1.17200E-03
  303.00      1.16050E-03
  305.00      1.14910E-03
  307.00      1.13800E-03
  309.00      1.12700E-03
  311.00      1.11610E-03
  313.00      1.10580E-03
  315.00      1.09520E-03
  317.00      1.08480E-03
  319.00      1.06940E-03
  321.00      1.05310E-03
  323.00      1.05420E-03
  325.00      1.04420E-03
  327.00      1.03480E-03
  329.00      1.02470E-03
  331.00      1.01580E-03
  333.00      1.00650E-03
  335.00      9.96460E-04
  337.00      9.88220E-04
  339.00      9.79260E-04
  341.00      9.70410E-04
  343.00      9.60270E-04
  345.00      9.50090E-04
  347.00      9.42970E-04
  349.00      9.34560E-04
  351.00      9.27440E-04
  353.00      9.19180E-04
  355.00      9.10810E-04
  357.00      9.05470E-04
  359.00      8.94210E-04
  361.00      8.88060E-04
  363.00      8.78630E-04
  364.00      8.70470E-04
  365.00      8.29420E-04
  367.00      8.24000E-04
  369.00      8.18130E-04
  371.00      8.10740E-04
  373.00      8.05540E-04
  375.00      8.11940E-04
  377.00      8.09860E-04
  379.00      8.28130E-04
  381.00      8.47860E-04
  383.00      7.89760E-04
  385.00      8.55580E-04
  387.00      8.61450E-04
  389.00      7.67150E-04
  391.00      8.53100E-04
  393.00      8.44270E-04
  395.00      8.40580E-04
  397.00      7.40000E-04
  399.00      8.24750E-04
  401.00      8.21430E-04
  403.00      7.95620E-04
  405.00      8.12690E-04
  407.00      8.04660E-04
  409.00      7.73330E-04
  411.00      7.17180E-04
  413.00      7.81160E-04
  415.00      7.76750E-04
  417.00      7.73410E-04
  419.00      7.65830E-04
  421.00      7.55230E-04
  423.00      7.55640E-04
  425.00      7.49650E-04
  427.00      7.43730E-04
  429.00      7.37900E-04
  431.00      7.30560E-04
  433.00      6.95670E-04
  435.00      6.60790E-04
  437.00      7.12890E-04
  439.00      7.01430E-04
  441.00      7.04190E-04
  443.00      6.97960E-04
  445.00      6.93520E-04
  447.00      6.74220E-04
  449.00      6.83030E-04
  451.00      6.77890E-04
  453.00      6.72290E-04
  455.00      6.60610E-04
  457.00      6.62780E-04
  459.00      6.57840E-04
  461.00      6.52970E-04
  463.00      6.48110E-04
  465.00      6.42820E-04
  467.00      6.38410E-04
  469.00      6.19190E-04
  471.00      6.25610E-04
  473.00      6.24820E-04
  475.00      6.20300E-04
  477.00      6.15830E-04
  479.00      6.11400E-04
  481.00      6.07020E-04
  483.00      6.01350E-04
  485.00      5.78090E-04
  487.00      5.41620E-04
  489.00      5.87500E-04
  491.00      5.85690E-04
  493.00      5.74630E-04
  495.00      5.77630E-04
  497.00      5.73610E-04
  499.00      5.69630E-04
  501.00      5.62180E-04
  503.00      5.61780E-04
  505.00      5.56610E-04
  507.00      5.54090E-04
  509.00      5.50300E-04
  511.00      5.46550E-04
  513.00      5.42840E-04
  515.00      5.39170E-04
  517.00      5.35530E-04
  519.00      5.31930E-04
  521.00      5.28370E-04
  523.00      5.24840E-04
  525.00      5.21350E-04
  527.00      5.17890E-04
  529.00      5.14470E-04
  531.00      5.11070E-04
  533.00      5.07720E-04
  535.00      5.04390E-04
  537.00      5.01100E-04
  539.00      4.97830E-04
  541.00      4.89220E-04
  543.00      4.91400E-04
  545.00      4.88240E-04
  547.00      4.85100E-04
  549.00      4.81990E-04
  551.00      4.78910E-04
  553.00      4.75860E-04
  555.00      4.72840E-04
  557.00      4.69850E-04
  559.00      4.66880E-04
  561.00      4.63950E-04
  563.00      4.61040E-04
  565.00      4.58160E-04
  567.00      4.55310E-04
  569.00      4.50150E-04
  571.00      4.37300E-04
  573.00      4.34730E-04
  575.00      4.32190E-04
  577.00      4.29680E-04
  579.00      4.27220E-04
  581.00      4.24850E-04
  583.00      4.22680E-04
  585.00      4.20890E-04
  587.00      4.12620E-04
  589.00      4.17380E-04
  591.00      4.16220E-04
  593.00      4.14890E-04
  595.00      4.13640E-04
  597.00      4.12440E-04
  599.00      4.11350E-04
  601.00      4.09780E-04
  603.00      4.08050E-04
  605.00      4.05990E-04
  607.00      4.03600E-04
  609.00      4.01240E-04
  611.00      3.98890E-04
  613.00      3.96560E-04
  615.00      3.94260E-04
  617.00      3.91970E-04
  619.00      3.89710E-04
  621.00      3.87460E-04
  623.00      3.85160E-04
  625.00      3.83020E-04
  627.00      3.80840E-04
  629.00      3.78670E-04
  631.00      3.76160E-04
  633.00      3.74380E-04
  635.00      3.72270E-04
  637.00      3.70170E-04
  639.00      3.68080E-04
  641.00      3.65450E-04
  643.00      3.63970E-04
  645.00      3.61950E-04
  647.00      3.59930E-04
  649.00      3.57940E-04
  651.00      3.55950E-04
  653.00      3.52160E-04
  655.00      3.45340E-04
  657.00      3.21510E-04
  659.00      3.46710E-04
  661.00      3.46300E-04
  663.00      3.44420E-04
  665.00      3.42630E-04
  667.00      3.38700E-04
  669.00      3.35760E-04
  671.00      3.37110E-04
  673.00      3.35300E-04
  675.00      3.33510E-04
  677.00      3.31730E-04
  679.00      3.29960E-04
  681.00      3.28210E-04
  683.00      3.26470E-04
  685.00      3.24740E-04
  687.00      3.23030E-04
  689.00      3.20090E-04
  691.00      3.19640E-04
  693.00      3.17970E-04
  695.00      3.16310E-04
  697.00      3.14670E-04
  699.00      3.13030E-04
  701.00      3.11410E-04
  703.00      3.09800E-04
  705.00      3.08210E-04
  707.00      3.03840E-04
  709.00      3.05050E-04
  711.00      3.03490E-04
  713.00      3.01950E-04
  715.00      3.00410E-04
  717.00      2.97940E-04
  719.00      2.96900E-04
  721.00      2.95870E-04
  723.00      2.94380E-04
  725.00      2.92900E-04
  727.00      2.91430E-04
  729.00      2.88630E-04
  731.00      2.88520E-04
  733.00      2.87090E-04
  735.00      2.85670E-04
  737.00      2.84260E-04
  739.00      2.82850E-04
  741.00      2.81460E-04
  743.00      2.80070E-04
  745.00      2.78720E-04
  747.00      2.77350E-04
  749.00      2.76000E-04
  751.00      2.74620E-04
  753.00      2.73320E-04
  755.00      2.72000E-04
  757.00      2.70680E-04
  759.00      2.67920E-04
  761.00      2.68080E-04
  763.00      2.66800E-04
  765.00      2.65520E-04
  767.00      2.64250E-04
  769.00      2.62990E-04
  771.00      2.61740E-04
  773.00      2.60500E-04
  775.00      2.59270E-04
  777.00      2.58050E-04
  779.00      2.56830E-04
  781.00      2.55570E-04
  783.00      2.54430E-04
  785.00      2.53350E-04
  787.00      2.52170E-04
  789.00      2.50990E-04
  791.00      2.49830E-04
  793.00      2.48670E-04
  795.00      2.47520E-04
  797.00      2.46340E-04
  799.00      2.45240E-04
  801.00      2.44120E-04
  803.00      2.43000E-04
  805.00      2.41890E-04
  807.00      2.40780E-04
  809.00      2.39580E-04
  811.00      2.38500E-04
  813.00      2.37520E-04
  815.00      2.36280E-04
  817.00      2.35380E-04
  819.00      2.33870E-04
  821.00      2.29940E-04
  823.00      2.28240E-04
  825.00      2.28000E-04
  827.00      2.26830E-04
  829.00      2.26190E-04
  831.00      2.25240E-04
  833.00      2.24220E-04
  835.00      2.22860E-04
  837.00      2.22180E-04
  839.00      2.21340E-04
  841.00      2.20430E-04
  843.00      2.19450E-04
  845.00      2.17980E-04
  847.00      2.17660E-04
  849.00      2.16630E-04
  851.00      2.15880E-04
  853.00      2.14880E-04
  855.00      2.13750E-04
  857.00      2.13850E-04
  859.00      2.11000E-04
  861.00      2.11000E-04
  863.00      2.11970E-04
  865.00      2.09580E-04
  867.00      2.05990E-04
  869.00      2.09610E-04
  871.00      2.09870E-04
  873.00      2.07050E-04
  875.00      1.99750E-04
  877.00      2.04280E-04
  879.00      2.07260E-04
  881.00      2.06970E-04
  883.00      2.05680E-04
  885.00      1.98970E-04
  887.00      1.92450E-04
  889.00      2.01900E-04
  891.00      2.03060E-04
  893.00      2.02480E-04
  895.00      2.01930E-04
  897.00      2.00800E-04
  899.00      1.97490E-04
  901.00      1.85910E-04
  903.00      1.90250E-04
  905.00      1.96540E-04
  907.00      1.95840E-04
  909.00      1.96120E-04
  911.00      1.95740E-04
  913.00      1.95030E-04
  915.00      1.94230E-04
  917.00      1.92990E-04
  919.00      1.91670E-04
  921.00      1.86580E-04
  923.00      1.74390E-04
  925.00      1.85020E-04
  927.00      1.88430E-04
  929.00      1.88510E-04
  931.00      1.87580E-04
  933.00      1.87260E-04
  935.00      1.84680E-04
  937.00      1.85770E-04
  939.00      1.85030E-04
  941.00      1.84290E-04
  943.00      1.83560E-04
  945.00      1.82830E-04
  947.00      1.81550E-04
  949.00      1.81110E-04
  951.00      1.78740E-04
  953.00      1.73800E-04
  955.00      1.62940E-04
  957.00      1.74670E-04
  959.00      1.76960E-04
  961.00      1.76750E-04
  963.00      1.76000E-04
  965.00      1.75770E-04
  967.00      1.75090E-04
  969.00      1.74350E-04
  971.00      1.73490E-04
  973.00      1.73060E-04
  975.00      1.72390E-04
  977.00      1.71620E-04
  979.00      1.71070E-04
  981.00      1.70410E-04
  983.00      1.69760E-04
  985.00      1.69110E-04
  987.00      1.68470E-04
  989.00      1.67830E-04
  991.00      1.67190E-04
  993.00      1.66550E-04
  995.00      1.65920E-04
  997.00      1.65290E-04
  999.00      1.64480E-04
  1002.5      1.59040E-04
  1007.5      1.56240E-04
  1012.5      1.58990E-04
  1017.5      1.59070E-04
  1022.5      1.57570E-04
  1027.5      1.56160E-04
  1032.5      1.54370E-04
  1037.5      1.53330E-04
  1042.5      1.51820E-04
  1047.5      1.50570E-04
  1052.5      1.49220E-04
  1057.5      1.47890E-04
  1062.5      1.46570E-04
  1067.5      1.45150E-04
  1072.5      1.44000E-04
  1077.5      1.42730E-04
  1082.5      1.40680E-04
  1087.5      1.39990E-04
  1092.5      1.31980E-04
  1097.5      1.35790E-04
  1102.5      1.36260E-04
  1107.5      1.35430E-04
  1112.5      1.34340E-04
  1117.5      1.33210E-04
  1122.5      1.32060E-04
  1127.5      1.30980E-04
  1132.5      1.29880E-04
  1137.5      1.28800E-04
  1142.5      1.27730E-04
  1147.5      1.26670E-04
  1152.5      1.25630E-04
  1157.5      1.24600E-04
  1162.5      1.23120E-04
  1167.5      1.22410E-04
  1172.5      1.21580E-04
  1177.5      1.20600E-04
  1182.5      1.19630E-04
  1187.5      1.18680E-04
  1192.5      1.17730E-04
  1197.5      1.16120E-04
  1202.5      1.15870E-04
  1207.5      1.14960E-04
  1212.5      1.14060E-04
  1217.5      1.13170E-04
  1222.5      1.12280E-04
  1227.5      1.11410E-04
  1232.5      1.10550E-04
  1237.5      1.09700E-04
  1242.5      1.08860E-04
  1247.5      1.08030E-04
  1252.5      1.07100E-04
  1257.5      1.06390E-04
  1262.5      1.05590E-04
  1267.5      1.04800E-04
  1272.5      1.04010E-04
  1277.5      1.02060E-04
  1282.5      9.72840E-05
  1287.5      1.01260E-04
  1292.5      1.00950E-04
  1297.5      9.98510E-05
  1302.5      9.94780E-05
  1307.5      9.87510E-05
  1312.5      9.80330E-05
  1317.5      9.73220E-05
  1322.5      9.66180E-05
  1327.5      9.59230E-05
  1332.5      9.52350E-05
  1337.5      9.45540E-05
  1342.5      9.38420E-05
  1347.5      9.32140E-05
  1352.5      9.25550E-05
  1357.5      9.19030E-05
  1362.5      9.12570E-05
  1367.5      9.06190E-05
  1372.5      8.99870E-05
  1377.5      8.93610E-05
  1382.5      8.87420E-05
  1387.5      8.81300E-05
  1392.5      8.75240E-05
  1397.5      8.69240E-05
