 Castelli and Kurucz 2004-2012 Atmosphere
 T     39000.     G    5.00000 [-2.5] N(He)/Ntot=0.0784 VTURB=2  L/H=1.25 NOVER
 Wavelength  Eddington Hnu
   (nm)    (ergs/s/cm2/Hz/sr)
  9.0900      1.64960E-23
  9.3500      6.76960E-23
  9.6100      2.58670E-22
  9.7700      5.70850E-22
  9.9600      1.41650E-21
  10.200      4.26490E-21
  10.380      9.44740E-21
  10.560      2.03910E-20
  10.770      4.85110E-20
  11.040      1.41130E-19
  11.400      5.43320E-19
  11.780      2.06830E-18
  12.130      6.59290E-18
  12.480      1.97200E-17
  12.710      3.92250E-17
  12.840      5.72410E-17
  13.050      1.03760E-16
  13.240      1.74900E-16
  13.390      2.61400E-16
  13.660      5.27180E-16
  13.980      1.16920E-15
  14.330      2.68230E-15
  14.720      6.45790E-15
  15.100      1.45490E-14
  15.520      3.40740E-14
  15.880      6.81520E-14
  16.200      1.22950E-13
  16.600      2.48820E-13
  17.030      5.11220E-13
  17.340      8.39840E-13
  17.680      1.41820E-12
  18.020      2.34670E-12
  18.170      2.91240E-12
  18.610      5.37620E-12
  19.100      1.02810E-11
  19.390      1.48490E-11
  19.840      2.56950E-11
  20.180      3.82330E-11
  20.500      5.48810E-11
  21.050      9.94560E-11
  21.620      1.78120E-10
  21.980      2.53180E-10
  22.300      3.42640E-10
  22.680      4.85050E-10
  23.000      4.61790E-09
  23.400      1.77640E-08
  24.000      5.61380E-08
  24.650      3.21930E-07
  25.240      1.08870E-06
  25.680      8.05940E-07
  26.000      4.31150E-06
  26.400      8.31480E-06
  26.850      1.37000E-05
  27.350      1.96550E-05
  27.850      2.35480E-05
  28.400      3.05920E-05
  29.000      3.51210E-05
  29.600      2.68280E-05
  30.100      5.12000E-06
  30.800      1.60790E-05
  31.800      4.54690E-05
  32.800      5.49230E-05
  33.800      5.71810E-05
  34.800      6.41320E-05
  35.700      6.81750E-05
  36.600      7.33310E-05
  37.500      7.57220E-05
  38.500      7.72230E-05
  39.500      8.50460E-05
  40.500      9.08320E-05
  41.400      9.56610E-05
  42.200      9.83080E-05
  43.000      1.02480E-04
  44.100      1.11750E-04
  45.100      1.18310E-04
  46.000      1.23990E-04
  47.000      1.33800E-04
  48.000      1.43460E-04
  49.000      1.50370E-04
  50.000      1.63670E-04
  50.600      2.95690E-04
  51.200      5.66670E-04
  52.000      5.77150E-04
  53.000      6.03300E-04
  54.000      5.86090E-04
  55.000      6.19250E-04
  56.000      6.61160E-04
  57.000      6.81590E-04
  58.000      6.80060E-04
  59.000      7.14330E-04
  60.000      7.20050E-04
  61.000      7.28310E-04
  62.000      7.66990E-04
  63.000      7.81230E-04
  64.000      8.02910E-04
  65.000      8.12980E-04
  65.800      8.12720E-04
  66.500      8.36290E-04
  67.500      8.63770E-04
  68.500      8.59520E-04
  69.500      8.95290E-04
  70.500      8.89450E-04
  71.600      9.31380E-04
  72.600      9.48590E-04
  73.500      9.64050E-04
  74.500      9.73010E-04
  75.500      9.87180E-04
  76.500      9.97050E-04
  77.500      1.01760E-03
  78.500      1.03170E-03
  79.500      1.04760E-03
  80.500      1.06370E-03
  81.500      1.08030E-03
  82.500      1.09990E-03
  83.500      1.08200E-03
  84.500      1.12540E-03
  85.500      1.13600E-03
  86.500      1.15530E-03
  87.500      1.16860E-03
  88.500      1.18130E-03
  89.500      1.19360E-03
  90.500      1.19850E-03
  91.500      1.04370E-03
  92.500      1.84870E-03
  93.500      2.50540E-03
  94.500      3.45980E-03
  95.500      3.85130E-03
  96.500      4.65160E-03
  97.500      3.45700E-03
  98.500      4.73930E-03
  99.500      4.40590E-03
  100.50      4.76700E-03
  101.50      4.69750E-03
  102.50      3.39100E-03
  103.50      4.60120E-03
  104.50      4.67240E-03
  105.50      4.64950E-03
  106.50      4.57010E-03
  107.50      4.54330E-03
  108.50      4.25100E-03
  109.50      4.51550E-03
  110.50      4.47550E-03
  111.50      4.43280E-03
  112.50      4.35060E-03
  113.50      4.38710E-03
  114.50      4.35490E-03
  115.50      4.30520E-03
  116.50      4.27630E-03
  117.50      4.02620E-03
  118.50      4.20770E-03
  119.50      4.17660E-03
  120.50      4.09850E-03
  121.50      3.07810E-03
  122.50      4.02270E-03
  123.50      4.04600E-03
  124.50      4.00420E-03
  125.50      4.01230E-03
  126.50      3.98450E-03
  127.50      3.95570E-03
  128.50      3.92710E-03
  129.50      3.89290E-03
  130.50      3.86630E-03
  131.50      3.84010E-03
  132.50      3.80970E-03
  133.50      3.78170E-03
  134.50      3.75640E-03
  135.50      3.72650E-03
  136.50      3.69730E-03
  137.50      3.66470E-03
  138.50      3.64240E-03
  139.50      3.57800E-03
  140.50      3.55000E-03
  141.50      3.56340E-03
  142.50      3.53160E-03
  143.50      3.51120E-03
  144.20      3.49110E-03
  144.70      3.47880E-03
  145.50      3.45700E-03
  146.50      3.43340E-03
  147.50      3.40870E-03
  148.50      3.38720E-03
  149.50      3.36100E-03
  150.50      3.33830E-03
  151.20      3.32230E-03
  151.70      3.30870E-03
  152.50      3.28810E-03
  153.50      3.25500E-03
  154.50      3.17370E-03
  155.50      3.16340E-03
  156.50      3.18310E-03
  157.50      3.16700E-03
  158.50      3.14750E-03
  159.50      3.12450E-03
  160.50      3.09180E-03
  161.50      3.07000E-03
  162.50      3.04460E-03
  163.50      2.95680E-03
  164.50      2.82300E-03
  165.50      2.99140E-03
  166.50      2.97270E-03
  167.20      2.95190E-03
  167.70      2.95240E-03
  168.50      2.93460E-03
  169.50      2.91490E-03
  170.50      2.89340E-03
  171.50      2.85340E-03
  172.50      2.84750E-03
  173.50      2.83750E-03
  174.50      2.81690E-03
  175.50      2.79520E-03
  176.50      2.77930E-03
  177.50      2.76090E-03
  178.50      2.74250E-03
  179.50      2.72300E-03
  180.50      2.70520E-03
  181.50      2.68700E-03
  182.50      2.66860E-03
  183.50      2.65170E-03
  184.50      2.63350E-03
  185.50      2.61530E-03
  186.50      2.59760E-03
  187.50      2.58070E-03
  188.50      2.56360E-03
  189.50      2.54740E-03
  190.50      2.53110E-03
  191.50      2.51430E-03
  192.50      2.49470E-03
  193.50      2.48150E-03
  194.50      2.46550E-03
  195.50      2.44900E-03
  196.70      2.43040E-03
  197.60      2.41640E-03
  198.40      2.40380E-03
  199.50      2.38670E-03
  200.50      2.37170E-03
  201.50      2.35650E-03
  202.50      2.34150E-03
  203.50      2.32660E-03
  204.50      2.31180E-03
  205.50      1.82600E-03
  206.50      1.76780E-03
  207.40      1.78750E-03
  207.80      1.82020E-03
  208.50      1.90330E-03
  209.50      2.08760E-03
  210.50      2.21090E-03
  211.50      2.21870E-03
  212.50      2.20630E-03
  213.50      2.18830E-03
  214.50      2.17750E-03
  215.50      2.18740E-03
  216.50      2.13290E-03
  217.50      2.17560E-03
  218.50      2.10210E-03
  219.50      2.14940E-03
  220.50      2.14070E-03
  221.50      2.05690E-03
  222.50      2.11400E-03
  223.50      2.10320E-03
  224.50      2.08670E-03
  225.50      2.00660E-03
  226.50      2.06430E-03
  227.50      2.05190E-03
  228.50      2.03910E-03
  229.50      2.01290E-03
  230.50      1.94780E-03
  231.50      1.99970E-03
  232.50      1.99030E-03
  233.50      1.97830E-03
  234.50      1.96640E-03
  235.50      1.95460E-03
  236.50      1.94290E-03
  237.50      1.93110E-03
  238.50      1.85820E-03
  239.50      1.90650E-03
  240.50      1.89710E-03
  241.50      1.88590E-03
  242.50      1.87480E-03
  243.50      1.86380E-03
  244.50      1.85290E-03
  245.50      1.84190E-03
  246.50      1.83130E-03
  247.50      1.82070E-03
  248.50      1.81020E-03
  249.50      1.77500E-03
  250.50      1.78130E-03
  251.30      1.66670E-03
  251.80      1.77170E-03
  252.50      1.76870E-03
  253.50      1.75880E-03
  254.50      1.74880E-03
  255.50      1.73880E-03
  256.50      1.72900E-03
  257.50      1.71920E-03
  258.50      1.70960E-03
  259.50      1.69990E-03
  260.50      1.69230E-03
  261.50      1.68280E-03
  262.50      1.67340E-03
  263.50      1.66410E-03
  264.50      1.65480E-03
  265.50      1.64530E-03
  266.50      1.63550E-03
  267.50      1.62580E-03
  268.50      1.61860E-03
  269.50      1.60730E-03
  270.50      1.60090E-03
  271.50      1.59220E-03
  272.50      1.57950E-03
  273.50      1.53020E-03
  274.50      1.56640E-03
  275.50      1.55790E-03
  276.50      1.54530E-03
  277.50      1.54120E-03
  278.50      1.53290E-03
  279.50      1.52460E-03
  280.50      1.51660E-03
  281.50      1.50850E-03
  282.50      1.49610E-03
  283.50      1.49030E-03
  284.50      1.48470E-03
  285.50      1.47690E-03
  286.50      1.46910E-03
  287.50      1.46140E-03
  288.50      1.45380E-03
  289.50      1.44620E-03
  291.00      1.43490E-03
  293.00      1.42010E-03
  295.00      1.40170E-03
  297.00      1.39110E-03
  299.00      1.37690E-03
  301.00      1.36300E-03
  303.00      1.34920E-03
  305.00      1.33560E-03
  307.00      1.32240E-03
  309.00      1.30920E-03
  311.00      1.29630E-03
  313.00      1.28380E-03
  315.00      1.27120E-03
  317.00      1.25880E-03
  319.00      1.24120E-03
  321.00      1.21740E-03
  323.00      1.22250E-03
  325.00      1.21070E-03
  327.00      1.19930E-03
  329.00      1.18760E-03
  331.00      1.17690E-03
  333.00      1.16580E-03
  335.00      1.15420E-03
  337.00      1.14420E-03
  339.00      1.13360E-03
  341.00      1.12310E-03
  343.00      1.11170E-03
  345.00      1.10010E-03
  347.00      1.09130E-03
  349.00      1.08140E-03
  351.00      1.07270E-03
  353.00      1.06290E-03
  355.00      1.05280E-03
  357.00      1.04580E-03
  359.00      1.03310E-03
  361.00      1.02580E-03
  363.00      1.01470E-03
  364.00      1.00090E-03
  365.00      9.40770E-04
  367.00      9.34190E-04
  369.00      9.27620E-04
  371.00      9.20700E-04
  373.00      9.20210E-04
  375.00      9.24160E-04
  377.00      9.22230E-04
  379.00      9.36850E-04
  381.00      9.57070E-04
  383.00      8.99060E-04
  385.00      9.63130E-04
  387.00      9.73250E-04
  389.00      8.67420E-04
  391.00      9.62670E-04
  393.00      9.56260E-04
  395.00      9.49240E-04
  397.00      8.35940E-04
  399.00      9.30370E-04
  401.00      9.30290E-04
  403.00      8.99460E-04
  405.00      9.20410E-04
  407.00      9.10150E-04
  409.00      8.68870E-04
  411.00      8.10080E-04
  413.00      8.83560E-04
  415.00      8.79900E-04
  417.00      8.76080E-04
  419.00      8.65410E-04
  421.00      8.52330E-04
  423.00      8.55470E-04
  425.00      8.48590E-04
  427.00      8.41790E-04
  429.00      8.35070E-04
  431.00      8.25150E-04
  433.00      7.80910E-04
  435.00      7.45410E-04
  437.00      8.04740E-04
  439.00      7.93590E-04
  441.00      7.96390E-04
  443.00      7.89450E-04
  445.00      7.84100E-04
  447.00      7.62110E-04
  449.00      7.72060E-04
  451.00      7.66160E-04
  453.00      7.59050E-04
  455.00      7.42610E-04
  457.00      7.48830E-04
  459.00      7.43180E-04
  461.00      7.37600E-04
  463.00      7.32040E-04
  465.00      7.26170E-04
  467.00      7.20620E-04
  469.00      6.94900E-04
  471.00      7.06820E-04
  473.00      7.05370E-04
  475.00      7.00200E-04
  477.00      6.95090E-04
  479.00      6.90030E-04
  481.00      6.85020E-04
  483.00      6.77350E-04
  485.00      6.47920E-04
  487.00      6.10450E-04
  489.00      6.61460E-04
  491.00      6.60200E-04
  493.00      6.48440E-04
  495.00      6.51500E-04
  497.00      6.46910E-04
  499.00      6.42370E-04
  501.00      6.34430E-04
  503.00      6.33420E-04
  505.00      6.27860E-04
  507.00      6.24670E-04
  509.00      6.20350E-04
  511.00      6.16080E-04
  513.00      6.11860E-04
  515.00      6.07670E-04
  517.00      6.03530E-04
  519.00      5.99430E-04
  521.00      5.95380E-04
  523.00      5.91360E-04
  525.00      5.87380E-04
  527.00      5.83440E-04
  529.00      5.79550E-04
  531.00      5.75690E-04
  533.00      5.71870E-04
  535.00      5.68090E-04
  537.00      5.64340E-04
  539.00      5.60630E-04
  541.00      5.47830E-04
  543.00      5.53270E-04
  545.00      5.49720E-04
  547.00      5.46150E-04
  549.00      5.42620E-04
  551.00      5.39120E-04
  553.00      5.35660E-04
  555.00      5.32230E-04
  557.00      5.28830E-04
  559.00      5.25450E-04
  561.00      5.22130E-04
  563.00      5.18830E-04
  565.00      5.15560E-04
  567.00      5.12320E-04
  569.00      5.05440E-04
  571.00      4.85960E-04
  573.00      4.83120E-04
  575.00      4.80310E-04
  577.00      4.77530E-04
  579.00      4.74810E-04
  581.00      4.72180E-04
  583.00      4.69770E-04
  585.00      4.67710E-04
  587.00      4.59720E-04
  589.00      4.64030E-04
  591.00      4.63080E-04
  593.00      4.61950E-04
  595.00      4.60940E-04
  597.00      4.60060E-04
  599.00      4.59360E-04
  601.00      4.58300E-04
  603.00      4.56890E-04
  605.00      4.56050E-04
  607.00      4.53910E-04
  609.00      4.51230E-04
  611.00      4.48570E-04
  613.00      4.45940E-04
  615.00      4.43330E-04
  617.00      4.40730E-04
  619.00      4.38170E-04
  621.00      4.35630E-04
  623.00      4.32830E-04
  625.00      4.30600E-04
  627.00      4.28130E-04
  629.00      4.25670E-04
  631.00      4.22660E-04
  633.00      4.20810E-04
  635.00      4.18430E-04
  637.00      4.16050E-04
  639.00      4.13690E-04
  641.00      4.10270E-04
  643.00      4.09040E-04
  645.00      4.06750E-04
  647.00      4.04470E-04
  649.00      4.02210E-04
  651.00      3.99600E-04
  653.00      3.94840E-04
  655.00      3.86350E-04
  657.00      3.61660E-04
  659.00      3.88890E-04
  661.00      3.88830E-04
  663.00      3.86920E-04
  665.00      3.84880E-04
  667.00      3.80390E-04
  669.00      3.76570E-04
  671.00      3.78630E-04
  673.00      3.76600E-04
  675.00      3.74570E-04
  677.00      3.72550E-04
  679.00      3.70560E-04
  681.00      3.68580E-04
  683.00      3.66610E-04
  685.00      3.64660E-04
  687.00      3.62720E-04
  689.00      3.58420E-04
  691.00      3.58840E-04
  693.00      3.57020E-04
  695.00      3.55150E-04
  697.00      3.53290E-04
  699.00      3.51450E-04
  701.00      3.49620E-04
  703.00      3.47800E-04
  705.00      3.46000E-04
  707.00      3.41600E-04
  709.00      3.42440E-04
  711.00      3.40680E-04
  713.00      3.38930E-04
  715.00      3.37200E-04
  717.00      3.33740E-04
  719.00      3.32690E-04
  721.00      3.32080E-04
  723.00      3.30400E-04
  725.00      3.28730E-04
  727.00      3.27070E-04
  729.00      3.24220E-04
  731.00      3.23790E-04
  733.00      3.22180E-04
  735.00      3.20570E-04
  737.00      3.18980E-04
  739.00      3.17390E-04
  741.00      3.15820E-04
  743.00      3.14260E-04
  745.00      3.12730E-04
  747.00      3.11190E-04
  749.00      3.09660E-04
  751.00      3.08130E-04
  753.00      3.06640E-04
  755.00      3.05150E-04
  757.00      3.03670E-04
  759.00      2.99290E-04
  761.00      3.00590E-04
  763.00      2.99290E-04
  765.00      2.97850E-04
  767.00      2.96420E-04
  769.00      2.95000E-04
  771.00      2.93590E-04
  773.00      2.92200E-04
  775.00      2.90810E-04
  777.00      2.89430E-04
  779.00      2.88060E-04
  781.00      2.86670E-04
  783.00      2.85350E-04
  785.00      2.84100E-04
  787.00      2.82770E-04
  789.00      2.81440E-04
  791.00      2.80130E-04
  793.00      2.78830E-04
  795.00      2.77530E-04
  797.00      2.76240E-04
  799.00      2.74970E-04
  801.00      2.73700E-04
  803.00      2.72440E-04
  805.00      2.71190E-04
  807.00      2.69950E-04
  809.00      2.68700E-04
  811.00      2.67490E-04
  813.00      2.66270E-04
  815.00      2.65060E-04
  817.00      2.63870E-04
  819.00      2.62000E-04
  821.00      2.55840E-04
  823.00      2.53380E-04
  825.00      2.53350E-04
  827.00      2.52450E-04
  829.00      2.51590E-04
  831.00      2.50540E-04
  833.00      2.49420E-04
  835.00      2.48110E-04
  837.00      2.47240E-04
  839.00      2.46260E-04
  841.00      2.45240E-04
  843.00      2.44200E-04
  845.00      2.42830E-04
  847.00      2.42240E-04
  849.00      2.41230E-04
  851.00      2.40400E-04
  853.00      2.39340E-04
  855.00      2.38460E-04
  857.00      2.37830E-04
  859.00      2.35930E-04
  861.00      2.35730E-04
  863.00      2.35600E-04
  865.00      2.33870E-04
  867.00      2.32030E-04
  869.00      2.33190E-04
  871.00      2.33020E-04
  873.00      2.30820E-04
  875.00      2.26710E-04
  877.00      2.28460E-04
  879.00      2.30230E-04
  881.00      2.29980E-04
  883.00      2.28680E-04
  885.00      2.23250E-04
  887.00      2.18920E-04
  889.00      2.24930E-04
  891.00      2.26070E-04
  893.00      2.25650E-04
  895.00      2.25050E-04
  897.00      2.23680E-04
  899.00      2.20090E-04
  901.00      2.10630E-04
  903.00      2.13430E-04
  905.00      2.18790E-04
  907.00      2.18490E-04
  909.00      2.18680E-04
  911.00      2.18050E-04
  913.00      2.17640E-04
  915.00      2.16580E-04
  917.00      2.15060E-04
  919.00      2.13420E-04
  921.00      2.08070E-04
  923.00      1.97690E-04
  925.00      2.06100E-04
  927.00      2.09770E-04
  929.00      2.09980E-04
  931.00      2.09290E-04
  933.00      2.08700E-04
  935.00      2.04700E-04
  937.00      2.06940E-04
  939.00      2.06450E-04
  941.00      2.05630E-04
  943.00      2.04810E-04
  945.00      2.03990E-04
  947.00      2.02580E-04
  949.00      2.01730E-04
  951.00      1.99190E-04
  953.00      1.93740E-04
  955.00      1.84060E-04
  957.00      1.94200E-04
  959.00      1.97020E-04
  961.00      1.96970E-04
  963.00      1.96430E-04
  965.00      1.96100E-04
  967.00      1.95340E-04
  969.00      1.94530E-04
  971.00      1.93630E-04
  973.00      1.93070E-04
  975.00      1.92310E-04
  977.00      1.91280E-04
  979.00      1.90840E-04
  981.00      1.90110E-04
  983.00      1.89380E-04
  985.00      1.88660E-04
  987.00      1.87940E-04
  989.00      1.87220E-04
  991.00      1.86510E-04
  993.00      1.85800E-04
  995.00      1.85090E-04
  997.00      1.84390E-04
  999.00      1.83180E-04
  1002.5      1.77330E-04
  1007.5      1.74350E-04
  1012.5      1.76690E-04
  1017.5      1.77430E-04
  1022.5      1.75770E-04
  1027.5      1.74180E-04
  1032.5      1.72240E-04
  1037.5      1.71020E-04
  1042.5      1.69200E-04
  1047.5      1.67940E-04
  1052.5      1.66430E-04
  1057.5      1.64940E-04
  1062.5      1.63470E-04
  1067.5      1.61920E-04
  1072.5      1.60590E-04
  1077.5      1.59180E-04
  1082.5      1.57050E-04
  1087.5      1.55940E-04
  1092.5      1.47570E-04
  1097.5      1.51080E-04
  1102.5      1.51970E-04
  1107.5      1.51030E-04
  1112.5      1.49810E-04
  1117.5      1.48560E-04
  1122.5      1.47280E-04
  1127.5      1.46070E-04
  1132.5      1.44840E-04
  1137.5      1.43630E-04
  1142.5      1.42440E-04
  1147.5      1.41260E-04
  1152.5      1.40100E-04
  1157.5      1.38950E-04
  1162.5      1.36890E-04
  1167.5      1.36270E-04
  1172.5      1.35580E-04
  1177.5      1.34480E-04
  1182.5      1.33400E-04
  1187.5      1.32330E-04
  1192.5      1.31280E-04
  1197.5      1.29560E-04
  1202.5      1.29200E-04
  1207.5      1.28180E-04
  1212.5      1.27180E-04
  1217.5      1.26180E-04
  1222.5      1.25200E-04
  1227.5      1.24230E-04
  1232.5      1.23270E-04
  1237.5      1.22320E-04
  1242.5      1.21380E-04
  1247.5      1.20450E-04
  1252.5      1.19440E-04
  1257.5      1.18620E-04
  1262.5      1.17730E-04
  1267.5      1.16840E-04
  1272.5      1.15920E-04
  1277.5      1.13740E-04
  1282.5      1.08630E-04
  1287.5      1.12730E-04
  1292.5      1.12550E-04
  1297.5      1.11430E-04
  1302.5      1.10910E-04
  1307.5      1.10100E-04
  1312.5      1.09290E-04
  1317.5      1.08500E-04
  1322.5      1.07720E-04
  1327.5      1.06940E-04
  1332.5      1.06170E-04
  1337.5      1.05410E-04
  1342.5      1.04630E-04
  1347.5      1.03920E-04
  1352.5      1.03180E-04
  1357.5      1.02450E-04
  1362.5      1.01730E-04
  1367.5      1.01020E-04
  1372.5      1.00320E-04
  1377.5      9.96170E-05
  1382.5      9.89270E-05
  1387.5      9.82440E-05
  1392.5      9.75670E-05
  1397.5      9.68980E-05
