 Castelli and Kurucz 2004-2012 Atmosphere
 T     37000.     G    4.50000 [-2.5] N(He)/Ntot=0.0784 VTURB=2  L/H=1.25 NOVER
 Wavelength  Eddington Hnu
   (nm)    (ergs/s/cm2/Hz/sr)
  9.0900      1.84880E-25
  9.3500      8.49320E-25
  9.6100      3.60910E-24
  9.7700      8.48390E-24
  9.9600      2.26500E-23
  10.200      7.44610E-23
  10.380      1.75650E-22
  10.560      4.03450E-22
  10.770      1.02990E-21
  11.040      3.26640E-21
  11.400      1.40210E-20
  11.780      5.96170E-20
  12.130      2.09090E-19
  12.480      6.84920E-19
  12.710      1.44390E-18
  12.840      2.17530E-18
  13.050      4.14680E-18
  13.240      7.30680E-18
  13.390      1.12990E-17
  13.660      2.42030E-17
  13.980      5.74840E-17
  14.330      1.41700E-16
  14.720      3.68390E-16
  15.100      8.91470E-16
  15.520      2.25070E-15
  15.880      4.78810E-15
  16.200      9.10660E-15
  16.600      1.96340E-14
  17.030      4.30610E-14
  17.340      7.39870E-14
  17.680      1.31050E-13
  18.020      2.27070E-13
  18.170      2.87440E-13
  18.610      5.61330E-13
  19.100      1.13950E-12
  19.390      1.70270E-12
  19.840      3.10050E-12
  20.180      4.78720E-12
  20.500      7.10730E-12
  21.050      1.36160E-11
  21.620      2.57550E-11
  21.980      3.78390E-11
  22.300      5.26850E-11
  22.680      7.70720E-11
  23.000      1.26380E-09
  23.400      5.43110E-09
  24.000      1.63700E-08
  24.650      7.86640E-08
  25.240      2.49610E-07
  25.680      1.70860E-07
  26.000      1.09300E-06
  26.400      2.36250E-06
  26.850      4.09890E-06
  27.350      6.02520E-06
  27.850      7.22130E-06
  28.400      9.72350E-06
  29.000      1.09210E-05
  29.600      7.16840E-06
  30.100      9.78860E-07
  30.800      4.09360E-06
  31.800      1.48000E-05
  32.800      1.86680E-05
  33.800      2.00990E-05
  34.800      2.28340E-05
  35.700      2.45210E-05
  36.600      2.68680E-05
  37.500      2.81220E-05
  38.500      2.91990E-05
  39.500      3.26760E-05
  40.500      3.55610E-05
  41.400      3.82210E-05
  42.200      3.99960E-05
  43.000      4.23720E-05
  44.100      4.74300E-05
  45.100      5.14150E-05
  46.000      5.50150E-05
  47.000      6.07600E-05
  48.000      6.65330E-05
  49.000      7.12520E-05
  50.000      7.91280E-05
  50.600      1.88420E-04
  51.200      3.74180E-04
  52.000      3.81060E-04
  53.000      3.96040E-04
  54.000      3.84240E-04
  55.000      4.08010E-04
  56.000      4.42250E-04
  57.000      4.57500E-04
  58.000      4.56130E-04
  59.000      4.82530E-04
  60.000      4.87000E-04
  61.000      4.94630E-04
  62.000      5.26310E-04
  63.000      5.37520E-04
  64.000      5.53830E-04
  65.000      5.62660E-04
  65.800      5.63390E-04
  66.500      5.81250E-04
  67.500      6.03500E-04
  68.500      5.99910E-04
  69.500      6.28940E-04
  70.500      6.25510E-04
  71.600      6.59260E-04
  72.600      6.73500E-04
  73.500      6.86840E-04
  74.500      6.93980E-04
  75.500      7.06210E-04
  76.500      7.15000E-04
  77.500      7.32000E-04
  78.500      7.45150E-04
  79.500      7.58810E-04
  80.500      7.71630E-04
  81.500      7.85970E-04
  82.500      8.03040E-04
  83.500      7.89030E-04
  84.500      8.25460E-04
  85.500      8.35740E-04
  86.500      8.52340E-04
  87.500      8.64300E-04
  88.500      8.75790E-04
  89.500      8.87100E-04
  90.500      8.93050E-04
  91.500      8.24780E-04
  92.500      1.67030E-03
  93.500      2.28790E-03
  94.500      3.04150E-03
  95.500      3.32070E-03
  96.500      3.84560E-03
  97.500      2.97270E-03
  98.500      3.84100E-03
  99.500      3.63330E-03
  100.50      3.86050E-03
  101.50      3.83670E-03
  102.50      2.97960E-03
  103.50      3.78250E-03
  104.50      3.81840E-03
  105.50      3.80150E-03
  106.50      3.73830E-03
  107.50      3.72270E-03
  108.50      3.55250E-03
  109.50      3.72040E-03
  110.50      3.69110E-03
  111.50      3.65830E-03
  112.50      3.59530E-03
  113.50      3.63700E-03
  114.50      3.61580E-03
  115.50      3.57870E-03
  116.50      3.56200E-03
  117.50      3.33790E-03
  118.50      3.51180E-03
  119.50      3.49540E-03
  120.50      3.44990E-03
  121.50      2.73240E-03
  122.50      3.40680E-03
  123.50      3.40800E-03
  124.50      3.37100E-03
  125.50      3.38400E-03
  126.50      3.36510E-03
  127.50      3.34490E-03
  128.50      3.32480E-03
  129.50      3.29830E-03
  130.50      3.28020E-03
  131.50      3.26250E-03
  132.50      3.23990E-03
  133.50      3.21910E-03
  134.50      3.20190E-03
  135.50      3.17940E-03
  136.50      3.15710E-03
  137.50      3.13200E-03
  138.50      3.11680E-03
  139.50      3.06210E-03
  140.50      3.03960E-03
  141.50      3.05810E-03
  142.50      3.03210E-03
  143.50      3.01860E-03
  144.20      3.00290E-03
  144.70      2.99370E-03
  145.50      2.97680E-03
  146.50      2.95920E-03
  147.50      2.94080E-03
  148.50      2.92530E-03
  149.50      2.90440E-03
  150.50      2.88770E-03
  151.20      2.87590E-03
  151.70      2.86470E-03
  152.50      2.84820E-03
  153.50      2.81880E-03
  154.50      2.74750E-03
  155.50      2.74120E-03
  156.50      2.76190E-03
  157.50      2.75250E-03
  158.50      2.73790E-03
  159.50      2.72000E-03
  160.50      2.69010E-03
  161.50      2.67320E-03
  162.50      2.65200E-03
  163.50      2.58770E-03
  164.50      2.47370E-03
  165.50      2.61370E-03
  166.50      2.59880E-03
  167.20      2.58030E-03
  167.70      2.58490E-03
  168.50      2.57010E-03
  169.50      2.55460E-03
  170.50      2.53680E-03
  171.50      2.50150E-03
  172.50      2.49790E-03
  173.50      2.49310E-03
  174.50      2.47610E-03
  175.50      2.45790E-03
  176.50      2.44610E-03
  177.50      2.43140E-03
  178.50      2.41640E-03
  179.50      2.40000E-03
  180.50      2.38600E-03
  181.50      2.37110E-03
  182.50      2.35590E-03
  183.50      2.34240E-03
  184.50      2.32730E-03
  185.50      2.31210E-03
  186.50      2.29750E-03
  187.50      2.28370E-03
  188.50      2.26970E-03
  189.50      2.25670E-03
  190.50      2.24330E-03
  191.50      2.22940E-03
  192.50      2.21260E-03
  193.50      2.20230E-03
  194.50      2.18910E-03
  195.50      2.17520E-03
  196.70      2.15990E-03
  197.60      2.14820E-03
  198.40      2.13770E-03
  199.50      2.12330E-03
  200.50      2.11090E-03
  201.50      2.09830E-03
  202.50      2.08560E-03
  203.50      2.07320E-03
  204.50      2.06070E-03
  205.50      1.64770E-03
  206.50      1.60240E-03
  207.40      1.63520E-03
  207.80      1.67170E-03
  208.50      1.77050E-03
  209.50      1.94310E-03
  210.50      1.99010E-03
  211.50      1.98420E-03
  212.50      1.97300E-03
  213.50      1.95830E-03
  214.50      1.94990E-03
  215.50      1.96210E-03
  216.50      1.91470E-03
  217.50      1.95110E-03
  218.50      1.89130E-03
  219.50      1.92730E-03
  220.50      1.91830E-03
  221.50      1.85620E-03
  222.50      1.89550E-03
  223.50      1.88480E-03
  224.50      1.87240E-03
  225.50      1.81430E-03
  226.50      1.85180E-03
  227.50      1.84110E-03
  228.50      1.83010E-03
  229.50      1.80580E-03
  230.50      1.76380E-03
  231.50      1.79780E-03
  232.50      1.78840E-03
  233.50      1.77810E-03
  234.50      1.76790E-03
  235.50      1.75780E-03
  236.50      1.74770E-03
  237.50      1.73770E-03
  238.50      1.68560E-03
  239.50      1.71730E-03
  240.50      1.70830E-03
  241.50      1.69870E-03
  242.50      1.68910E-03
  243.50      1.67960E-03
  244.50      1.67020E-03
  245.50      1.66070E-03
  246.50      1.65150E-03
  247.50      1.64230E-03
  248.50      1.63320E-03
  249.50      1.59790E-03
  250.50      1.61100E-03
  251.30      1.52340E-03
  251.80      1.60130E-03
  252.50      1.59720E-03
  253.50      1.58860E-03
  254.50      1.57990E-03
  255.50      1.57130E-03
  256.50      1.56270E-03
  257.50      1.55420E-03
  258.50      1.54580E-03
  259.50      1.53730E-03
  260.50      1.53090E-03
  261.50      1.52260E-03
  262.50      1.51450E-03
  263.50      1.50620E-03
  264.50      1.49800E-03
  265.50      1.48970E-03
  266.50      1.48110E-03
  267.50      1.47260E-03
  268.50      1.46660E-03
  269.50      1.45650E-03
  270.50      1.45120E-03
  271.50      1.44350E-03
  272.50      1.43260E-03
  273.50      1.39620E-03
  274.50      1.42090E-03
  275.50      1.41350E-03
  276.50      1.40230E-03
  277.50      1.39890E-03
  278.50      1.39160E-03
  279.50      1.38430E-03
  280.50      1.37720E-03
  281.50      1.37020E-03
  282.50      1.35880E-03
  283.50      1.35440E-03
  284.50      1.34920E-03
  285.50      1.34230E-03
  286.50      1.33550E-03
  287.50      1.32870E-03
  288.50      1.32190E-03
  289.50      1.31520E-03
  291.00      1.30530E-03
  293.00      1.29220E-03
  295.00      1.27590E-03
  297.00      1.26660E-03
  299.00      1.25390E-03
  301.00      1.24170E-03
  303.00      1.22940E-03
  305.00      1.21740E-03
  307.00      1.20570E-03
  309.00      1.19400E-03
  311.00      1.18250E-03
  313.00      1.17140E-03
  315.00      1.16030E-03
  317.00      1.14920E-03
  319.00      1.13380E-03
  321.00      1.11450E-03
  323.00      1.11690E-03
  325.00      1.10640E-03
  327.00      1.09620E-03
  329.00      1.08580E-03
  331.00      1.07630E-03
  333.00      1.06640E-03
  335.00      1.05590E-03
  337.00      1.04700E-03
  339.00      1.03750E-03
  341.00      1.02820E-03
  343.00      1.01780E-03
  345.00      1.00740E-03
  347.00      9.99550E-04
  349.00      9.90990E-04
  351.00      9.82930E-04
  353.00      9.74010E-04
  355.00      9.65170E-04
  357.00      9.58960E-04
  359.00      9.47670E-04
  361.00      9.40860E-04
  363.00      9.31140E-04
  364.00      9.19490E-04
  365.00      8.67720E-04
  367.00      8.61850E-04
  369.00      8.56140E-04
  371.00      8.50990E-04
  373.00      8.48860E-04
  375.00      8.57160E-04
  377.00      8.57680E-04
  379.00      8.74390E-04
  381.00      8.92280E-04
  383.00      8.37680E-04
  385.00      8.97110E-04
  387.00      9.02240E-04
  389.00      8.13470E-04
  391.00      8.92680E-04
  393.00      8.82510E-04
  395.00      8.79590E-04
  397.00      7.84990E-04
  399.00      8.63430E-04
  401.00      8.60030E-04
  403.00      8.34030E-04
  405.00      8.49750E-04
  407.00      8.41690E-04
  409.00      8.12060E-04
  411.00      7.58270E-04
  413.00      8.17980E-04
  415.00      8.12870E-04
  417.00      8.08930E-04
  419.00      8.00610E-04
  421.00      7.88710E-04
  423.00      7.90260E-04
  425.00      7.84030E-04
  427.00      7.77860E-04
  429.00      7.71770E-04
  431.00      7.64470E-04
  433.00      7.31400E-04
  435.00      6.97910E-04
  437.00      7.46300E-04
  439.00      7.35510E-04
  441.00      7.36660E-04
  443.00      7.30360E-04
  445.00      7.25500E-04
  447.00      7.07810E-04
  449.00      7.14570E-04
  451.00      7.09200E-04
  453.00      7.03270E-04
  455.00      6.90020E-04
  457.00      6.93440E-04
  459.00      6.88290E-04
  461.00      6.83220E-04
  463.00      6.78140E-04
  465.00      6.72720E-04
  467.00      6.67970E-04
  469.00      6.46310E-04
  471.00      6.55290E-04
  473.00      6.53850E-04
  475.00      6.49140E-04
  477.00      6.44480E-04
  479.00      6.39860E-04
  481.00      6.35290E-04
  483.00      6.29700E-04
  485.00      6.07800E-04
  487.00      5.72470E-04
  489.00      6.15530E-04
  491.00      6.13120E-04
  493.00      6.02750E-04
  495.00      6.04650E-04
  497.00      6.00450E-04
  499.00      5.96290E-04
  501.00      5.89070E-04
  503.00      5.88100E-04
  505.00      5.82990E-04
  507.00      5.80080E-04
  509.00      5.76130E-04
  511.00      5.72220E-04
  513.00      5.68340E-04
  515.00      5.64510E-04
  517.00      5.60710E-04
  519.00      5.56960E-04
  521.00      5.53240E-04
  523.00      5.49550E-04
  525.00      5.45900E-04
  527.00      5.42290E-04
  529.00      5.38720E-04
  531.00      5.35180E-04
  533.00      5.31670E-04
  535.00      5.28200E-04
  537.00      5.24760E-04
  539.00      5.21350E-04
  541.00      5.11390E-04
  543.00      5.14630E-04
  545.00      5.11330E-04
  547.00      5.08050E-04
  549.00      5.04810E-04
  551.00      5.01590E-04
  553.00      4.98410E-04
  555.00      4.95250E-04
  557.00      4.92130E-04
  559.00      4.89020E-04
  561.00      4.85960E-04
  563.00      4.82930E-04
  565.00      4.79920E-04
  567.00      4.76930E-04
  569.00      4.70850E-04
  571.00      4.54180E-04
  573.00      4.51540E-04
  575.00      4.48930E-04
  577.00      4.46360E-04
  579.00      4.43860E-04
  581.00      4.41520E-04
  583.00      4.39480E-04
  585.00      4.37910E-04
  587.00      4.30710E-04
  589.00      4.34990E-04
  591.00      4.34040E-04
  593.00      4.33040E-04
  595.00      4.32170E-04
  597.00      4.31360E-04
  599.00      4.30690E-04
  601.00      4.29240E-04
  603.00      4.27350E-04
  605.00      4.25560E-04
  607.00      4.23060E-04
  609.00      4.20590E-04
  611.00      4.18130E-04
  613.00      4.15700E-04
  615.00      4.13300E-04
  617.00      4.10740E-04
  619.00      4.08530E-04
  621.00      4.06190E-04
  623.00      4.03440E-04
  625.00      4.01540E-04
  627.00      3.99260E-04
  629.00      3.96980E-04
  631.00      3.94010E-04
  633.00      3.92500E-04
  635.00      3.90290E-04
  637.00      3.88090E-04
  639.00      3.85910E-04
  641.00      3.82720E-04
  643.00      3.81610E-04
  645.00      3.79490E-04
  647.00      3.77390E-04
  649.00      3.75300E-04
  651.00      3.73190E-04
  653.00      3.68930E-04
  655.00      3.62940E-04
  657.00      3.39610E-04
  659.00      3.63830E-04
  661.00      3.63120E-04
  663.00      3.61150E-04
  665.00      3.59260E-04
  667.00      3.55370E-04
  669.00      3.51780E-04
  671.00      3.53480E-04
  673.00      3.51590E-04
  675.00      3.49710E-04
  677.00      3.47850E-04
  679.00      3.46000E-04
  681.00      3.44170E-04
  683.00      3.42350E-04
  685.00      3.40540E-04
  687.00      3.38750E-04
  689.00      3.35030E-04
  691.00      3.35200E-04
  693.00      3.33460E-04
  695.00      3.31720E-04
  697.00      3.30000E-04
  699.00      3.28290E-04
  701.00      3.26590E-04
  703.00      3.24910E-04
  705.00      3.23240E-04
  707.00      3.19060E-04
  709.00      3.19940E-04
  711.00      3.18300E-04
  713.00      3.16680E-04
  715.00      3.15070E-04
  717.00      3.12070E-04
  719.00      3.11150E-04
  721.00      3.10320E-04
  723.00      3.08760E-04
  725.00      3.07220E-04
  727.00      3.05680E-04
  729.00      3.02950E-04
  731.00      3.02630E-04
  733.00      3.01140E-04
  735.00      2.99640E-04
  737.00      2.98160E-04
  739.00      2.96690E-04
  741.00      2.95230E-04
  743.00      2.93790E-04
  745.00      2.92360E-04
  747.00      2.90930E-04
  749.00      2.89510E-04
  751.00      2.88080E-04
  753.00      2.86710E-04
  755.00      2.85330E-04
  757.00      2.83950E-04
  759.00      2.80450E-04
  761.00      2.81200E-04
  763.00      2.79880E-04
  765.00      2.78540E-04
  767.00      2.77210E-04
  769.00      2.75890E-04
  771.00      2.74580E-04
  773.00      2.73280E-04
  775.00      2.71990E-04
  777.00      2.70710E-04
  779.00      2.69440E-04
  781.00      2.68130E-04
  783.00      2.66920E-04
  785.00      2.65760E-04
  787.00      2.64530E-04
  789.00      2.63290E-04
  791.00      2.62080E-04
  793.00      2.60860E-04
  795.00      2.59660E-04
  797.00      2.58460E-04
  799.00      2.57280E-04
  801.00      2.56100E-04
  803.00      2.54920E-04
  805.00      2.53760E-04
  807.00      2.52600E-04
  809.00      2.51410E-04
  811.00      2.50270E-04
  813.00      2.49180E-04
  815.00      2.47950E-04
  817.00      2.46940E-04
  819.00      2.45250E-04
  821.00      2.39950E-04
  823.00      2.37910E-04
  825.00      2.37830E-04
  827.00      2.36760E-04
  829.00      2.36010E-04
  831.00      2.35020E-04
  833.00      2.33980E-04
  835.00      2.32670E-04
  837.00      2.31910E-04
  839.00      2.31010E-04
  841.00      2.30080E-04
  843.00      2.29110E-04
  845.00      2.27760E-04
  847.00      2.27310E-04
  849.00      2.26340E-04
  851.00      2.25570E-04
  853.00      2.24630E-04
  855.00      2.23550E-04
  857.00      2.23520E-04
  859.00      2.21050E-04
  861.00      2.20910E-04
  863.00      2.21620E-04
  865.00      2.19540E-04
  867.00      2.16340E-04
  869.00      2.19360E-04
  871.00      2.19510E-04
  873.00      2.17060E-04
  875.00      2.10470E-04
  877.00      2.14470E-04
  879.00      2.16980E-04
  881.00      2.16650E-04
  883.00      2.15470E-04
  885.00      2.09340E-04
  887.00      2.03160E-04
  889.00      2.11730E-04
  891.00      2.12660E-04
  893.00      2.12010E-04
  895.00      2.11400E-04
  897.00      2.10270E-04
  899.00      2.07190E-04
  901.00      1.96320E-04
  903.00      2.00280E-04
  905.00      2.05970E-04
  907.00      2.05290E-04
  909.00      2.05440E-04
  911.00      2.04850E-04
  913.00      2.04150E-04
  915.00      2.03320E-04
  917.00      2.02160E-04
  919.00      2.00770E-04
  921.00      1.96060E-04
  923.00      1.84460E-04
  925.00      1.94380E-04
  927.00      1.97410E-04
  929.00      1.97450E-04
  931.00      1.96480E-04
  933.00      1.96000E-04
  935.00      1.92800E-04
  937.00      1.94300E-04
  939.00      1.93700E-04
  941.00      1.92930E-04
  943.00      1.92160E-04
  945.00      1.91400E-04
  947.00      1.90180E-04
  949.00      1.89680E-04
  951.00      1.87410E-04
  953.00      1.82800E-04
  955.00      1.72350E-04
  957.00      1.83390E-04
  959.00      1.85390E-04
  961.00      1.85120E-04
  963.00      1.84360E-04
  965.00      1.84030E-04
  967.00      1.83310E-04
  969.00      1.82550E-04
  971.00      1.81690E-04
  973.00      1.81200E-04
  975.00      1.80490E-04
  977.00      1.79500E-04
  979.00      1.79110E-04
  981.00      1.78430E-04
  983.00      1.77750E-04
  985.00      1.77070E-04
  987.00      1.76400E-04
  989.00      1.75730E-04
  991.00      1.75060E-04
  993.00      1.74400E-04
  995.00      1.73740E-04
  997.00      1.73080E-04
  999.00      1.72320E-04
  1002.5      1.67100E-04
  1007.5      1.64250E-04
  1012.5      1.66270E-04
  1017.5      1.66570E-04
  1022.5      1.65020E-04
  1027.5      1.63530E-04
  1032.5      1.61720E-04
  1037.5      1.60570E-04
  1042.5      1.58900E-04
  1047.5      1.57690E-04
  1052.5      1.56280E-04
  1057.5      1.54890E-04
  1062.5      1.53510E-04
  1067.5      1.52050E-04
  1072.5      1.50820E-04
  1077.5      1.49500E-04
  1082.5      1.47440E-04
  1087.5      1.46690E-04
  1092.5      1.39010E-04
  1097.5      1.42510E-04
  1102.5      1.42830E-04
  1107.5      1.41890E-04
  1112.5      1.40720E-04
  1117.5      1.39550E-04
  1122.5      1.38340E-04
  1127.5      1.37210E-04
  1132.5      1.36060E-04
  1137.5      1.34930E-04
  1142.5      1.33810E-04
  1147.5      1.32710E-04
  1152.5      1.31620E-04
  1157.5      1.30540E-04
  1162.5      1.28820E-04
  1167.5      1.28110E-04
  1172.5      1.27380E-04
  1177.5      1.26360E-04
  1182.5      1.25340E-04
  1187.5      1.24340E-04
  1192.5      1.23350E-04
  1197.5      1.21780E-04
  1202.5      1.21410E-04
  1207.5      1.20450E-04
  1212.5      1.19510E-04
  1217.5      1.18580E-04
  1222.5      1.17650E-04
  1227.5      1.16740E-04
  1232.5      1.15840E-04
  1237.5      1.14950E-04
  1242.5      1.14070E-04
  1247.5      1.13200E-04
  1252.5      1.12250E-04
  1257.5      1.11490E-04
  1262.5      1.10650E-04
  1267.5      1.09820E-04
  1272.5      1.08990E-04
  1277.5      1.07130E-04
  1282.5      1.02470E-04
  1287.5      1.06200E-04
  1292.5      1.05800E-04
  1297.5      1.04710E-04
  1302.5      1.04250E-04
  1307.5      1.03490E-04
  1312.5      1.02740E-04
  1317.5      1.02000E-04
  1322.5      1.01260E-04
  1327.5      1.00530E-04
  1332.5      9.98110E-05
  1337.5      9.90980E-05
  1342.5      9.83610E-05
  1347.5      9.76950E-05
  1352.5      9.70050E-05
  1357.5      9.63220E-05
  1362.5      9.56460E-05
  1367.5      9.49780E-05
  1372.5      9.43160E-05
  1377.5      9.36610E-05
  1382.5      9.30130E-05
  1387.5      9.23720E-05
  1392.5      9.17370E-05
  1397.5      9.11090E-05
