 Castelli and Kurucz 2004-2012 Atmosphere
 T     35000.     G    4.50000 [-2.5] N(He)/Ntot=0.0784 VTURB=2  L/H=1.25 NOVER
 Wavelength  Eddington Hnu
   (nm)    (ergs/s/cm2/Hz/sr)
  9.0900      5.31080E-28
  9.3500      2.82670E-27
  9.6100      1.38240E-26
  9.7700      3.53070E-26
  9.9600      1.03640E-25
  10.200      3.82760E-25
  10.380      9.82790E-25
  10.560      2.44840E-24
  10.770      6.84620E-24
  11.040      2.43350E-23
  11.400      1.20800E-22
  11.780      5.92550E-22
  12.130      2.35750E-21
  12.480      8.70190E-21
  12.710      1.97660E-20
  12.840      3.10410E-20
  13.050      6.31740E-20
  13.240      1.17860E-19
  13.390      1.90450E-19
  13.660      4.40560E-19
  13.980      1.14330E-18
  14.330      3.09070E-18
  14.720      8.85560E-18
  15.100      2.34730E-17
  15.520      6.51590E-17
  15.880      1.49830E-16
  16.200      3.04660E-16
  16.600      7.11110E-16
  17.030      1.69060E-15
  17.340      3.07570E-15
  17.680      5.78200E-15
  18.020      1.06070E-14
  18.170      1.37600E-14
  18.610      2.88230E-14
  19.100      6.30680E-14
  19.390      9.82860E-14
  19.840      1.90550E-13
  20.180      3.08100E-13
  20.500      4.77200E-13
  21.050      9.79630E-13
  21.620      1.98240E-12
  21.980      3.03550E-12
  22.300      4.38060E-12
  22.680      6.67690E-12
  23.000      1.42720E-10
  23.400      7.88460E-10
  24.000      2.95260E-09
  24.650      1.19140E-08
  25.240      2.70060E-08
  25.680      1.72440E-08
  26.000      7.74040E-08
  26.400      1.50810E-07
  26.850      2.59160E-07
  27.350      3.77020E-07
  27.850      4.49600E-07
  28.400      6.14580E-07
  29.000      6.73260E-07
  29.600      4.57830E-07
  30.100      1.23990E-07
  30.800      3.08900E-07
  31.800      9.89170E-07
  32.800      1.23840E-06
  33.800      1.42680E-06
  34.800      1.71880E-06
  35.700      1.91590E-06
  36.600      2.26510E-06
  37.500      2.58480E-06
  38.500      3.10790E-06
  39.500      3.73930E-06
  40.500      4.46020E-06
  41.400      5.24160E-06
  42.200      5.96080E-06
  43.000      6.77640E-06
  44.100      8.17660E-06
  45.100      9.54570E-06
  46.000      1.08790E-05
  47.000      1.27650E-05
  48.000      1.47270E-05
  49.000      1.67010E-05
  50.000      1.93270E-05
  50.600      7.19450E-05
  51.200      1.78710E-04
  52.000      1.81220E-04
  53.000      1.90450E-04
  54.000      1.82530E-04
  55.000      1.97760E-04
  56.000      2.13620E-04
  57.000      2.21290E-04
  58.000      2.18370E-04
  59.000      2.33680E-04
  60.000      2.36740E-04
  61.000      2.42440E-04
  62.000      2.57970E-04
  63.000      2.64870E-04
  64.000      2.71800E-04
  65.000      2.78620E-04
  65.800      2.80940E-04
  66.500      2.88820E-04
  67.500      3.00470E-04
  68.500      2.99640E-04
  69.500      3.16640E-04
  70.500      3.16960E-04
  71.600      3.34680E-04
  72.600      3.43200E-04
  73.500      3.52680E-04
  74.500      3.58280E-04
  75.500      3.66380E-04
  76.500      3.73390E-04
  77.500      3.83820E-04
  78.500      3.94650E-04
  79.500      4.03240E-04
  80.500      4.11230E-04
  81.500      4.20990E-04
  82.500      4.32380E-04
  83.500      4.26660E-04
  84.500      4.49640E-04
  85.500      4.58450E-04
  86.500      4.68640E-04
  87.500      4.77580E-04
  88.500      4.86500E-04
  89.500      4.95450E-04
  90.500      5.02460E-04
  91.500      5.12320E-04
  92.500      1.24540E-03
  93.500      1.81380E-03
  94.500      2.58040E-03
  95.500      2.85150E-03
  96.500      3.37930E-03
  97.500      2.46310E-03
  98.500      3.39570E-03
  99.500      3.20700E-03
  100.50      3.41650E-03
  101.50      3.39120E-03
  102.50      2.47920E-03
  103.50      3.33050E-03
  104.50      3.38860E-03
  105.50      3.37470E-03
  106.50      3.31010E-03
  107.50      3.29730E-03
  108.50      3.14220E-03
  109.50      3.30360E-03
  110.50      3.27300E-03
  111.50      3.24310E-03
  112.50      3.18100E-03
  113.50      3.22940E-03
  114.50      3.20930E-03
  115.50      3.17770E-03
  116.50      3.16490E-03
  117.50      2.92470E-03
  118.50      3.11440E-03
  119.50      3.10080E-03
  120.50      3.03720E-03
  121.50      2.27910E-03
  122.50      3.01090E-03
  123.50      3.02810E-03
  124.50      2.99020E-03
  125.50      3.00620E-03
  126.50      2.99000E-03
  127.50      2.97220E-03
  128.50      2.95450E-03
  129.50      2.91920E-03
  130.50      2.91040E-03
  131.50      2.89940E-03
  132.50      2.87890E-03
  133.50      2.85300E-03
  134.50      2.84530E-03
  135.50      2.82590E-03
  136.50      2.80660E-03
  137.50      2.78570E-03
  138.50      2.77040E-03
  139.50      2.71350E-03
  140.50      2.69580E-03
  141.50      2.71740E-03
  142.50      2.69270E-03
  143.50      2.68230E-03
  144.20      2.66990E-03
  144.70      2.66120E-03
  145.50      2.64610E-03
  146.50      2.63040E-03
  147.50      2.61320E-03
  148.50      2.59930E-03
  149.50      2.58030E-03
  150.50      2.56540E-03
  151.20      2.55510E-03
  151.70      2.54510E-03
  152.50      2.52940E-03
  153.50      2.50030E-03
  154.50      2.43820E-03
  155.50      2.43230E-03
  156.50      2.45020E-03
  157.50      2.44330E-03
  158.50      2.43170E-03
  159.50      2.41540E-03
  160.50      2.38600E-03
  161.50      2.37040E-03
  162.50      2.35240E-03
  163.50      2.30080E-03
  164.50      2.19970E-03
  165.50      2.31990E-03
  166.50      2.30660E-03
  167.20      2.29000E-03
  167.70      2.29600E-03
  168.50      2.28240E-03
  169.50      2.26850E-03
  170.50      2.25230E-03
  171.50      2.22270E-03
  172.50      2.21590E-03
  173.50      2.21420E-03
  174.50      2.19880E-03
  175.50      2.18210E-03
  176.50      2.17200E-03
  177.50      2.15920E-03
  178.50      2.14590E-03
  179.50      2.13130E-03
  180.50      2.11890E-03
  181.50      2.10550E-03
  182.50      2.09180E-03
  183.50      2.08020E-03
  184.50      2.06620E-03
  185.50      2.05180E-03
  186.50      2.03910E-03
  187.50      2.02730E-03
  188.50      2.01460E-03
  189.50      2.00250E-03
  190.50      1.99160E-03
  191.50      1.97830E-03
  192.50      1.96270E-03
  193.50      1.95470E-03
  194.50      1.94330E-03
  195.50      1.93000E-03
  196.70      1.91720E-03
  197.60      1.90710E-03
  198.40      1.89750E-03
  199.50      1.88420E-03
  200.50      1.87390E-03
  201.50      1.86270E-03
  202.50      1.85150E-03
  203.50      1.84030E-03
  204.50      1.82920E-03
  205.50      1.51710E-03
  206.50      1.47970E-03
  207.40      1.49810E-03
  207.80      1.52300E-03
  208.50      1.59160E-03
  209.50      1.72450E-03
  210.50      1.76530E-03
  211.50      1.75950E-03
  212.50      1.74920E-03
  213.50      1.73670E-03
  214.50      1.72840E-03
  215.50      1.73350E-03
  216.50      1.69850E-03
  217.50      1.72200E-03
  218.50      1.67770E-03
  219.50      1.70080E-03
  220.50      1.69250E-03
  221.50      1.64580E-03
  222.50      1.67250E-03
  223.50      1.66270E-03
  224.50      1.65220E-03
  225.50      1.60790E-03
  226.50      1.63350E-03
  227.50      1.62390E-03
  228.50      1.61420E-03
  229.50      1.59000E-03
  230.50      1.56270E-03
  231.50      1.58570E-03
  232.50      1.57720E-03
  233.50      1.56810E-03
  234.50      1.55900E-03
  235.50      1.55010E-03
  236.50      1.54120E-03
  237.50      1.53230E-03
  238.50      1.49300E-03
  239.50      1.51420E-03
  240.50      1.50630E-03
  241.50      1.49770E-03
  242.50      1.48920E-03
  243.50      1.48080E-03
  244.50      1.47250E-03
  245.50      1.46410E-03
  246.50      1.45600E-03
  247.50      1.44780E-03
  248.50      1.43980E-03
  249.50      1.40630E-03
  250.50      1.42110E-03
  251.30      1.35620E-03
  251.80      1.41180E-03
  252.50      1.40810E-03
  253.50      1.40040E-03
  254.50      1.39260E-03
  255.50      1.38500E-03
  256.50      1.37750E-03
  257.50      1.37000E-03
  258.50      1.36250E-03
  259.50      1.35510E-03
  260.50      1.35050E-03
  261.50      1.34320E-03
  262.50      1.33600E-03
  263.50      1.32850E-03
  264.50      1.32110E-03
  265.50      1.31340E-03
  266.50      1.30560E-03
  267.50      1.29780E-03
  268.50      1.29360E-03
  269.50      1.28320E-03
  270.50      1.27990E-03
  271.50      1.27310E-03
  272.50      1.26180E-03
  273.50      1.23730E-03
  274.50      1.25310E-03
  275.50      1.24660E-03
  276.50      1.23470E-03
  277.50      1.23360E-03
  278.50      1.22720E-03
  279.50      1.22060E-03
  280.50      1.21440E-03
  281.50      1.20820E-03
  282.50      1.19590E-03
  283.50      1.19320E-03
  284.50      1.18970E-03
  285.50      1.18360E-03
  286.50      1.17750E-03
  287.50      1.17150E-03
  288.50      1.16560E-03
  289.50      1.15970E-03
  291.00      1.15090E-03
  293.00      1.13930E-03
  295.00      1.12340E-03
  297.00      1.11670E-03
  299.00      1.10560E-03
  301.00      1.09480E-03
  303.00      1.08390E-03
  305.00      1.07340E-03
  307.00      1.06300E-03
  309.00      1.05260E-03
  311.00      1.04250E-03
  313.00      1.03290E-03
  315.00      1.02300E-03
  317.00      1.01330E-03
  319.00      9.98220E-04
  321.00      9.85340E-04
  323.00      9.84630E-04
  325.00      9.75310E-04
  327.00      9.66620E-04
  329.00      9.57110E-04
  331.00      9.48950E-04
  333.00      9.40230E-04
  335.00      9.30710E-04
  337.00      9.23180E-04
  339.00      9.14820E-04
  341.00      9.06580E-04
  343.00      8.96730E-04
  345.00      8.86930E-04
  347.00      8.80540E-04
  349.00      8.72690E-04
  351.00      8.66020E-04
  353.00      8.58690E-04
  355.00      8.50820E-04
  357.00      8.46410E-04
  359.00      8.35290E-04
  361.00      8.29860E-04
  363.00      8.20870E-04
  364.00      8.15930E-04
  365.00      7.85530E-04
  367.00      7.80620E-04
  369.00      7.74720E-04
  371.00      7.65330E-04
  373.00      7.57110E-04
  375.00      7.61990E-04
  377.00      7.57750E-04
  379.00      7.77420E-04
  381.00      7.98710E-04
  383.00      7.37990E-04
  385.00      8.09340E-04
  387.00      8.16060E-04
  389.00      7.16960E-04
  391.00      8.08970E-04
  393.00      8.01620E-04
  395.00      7.97100E-04
  397.00      6.91380E-04
  399.00      7.81640E-04
  401.00      7.79070E-04
  403.00      7.53060E-04
  405.00      7.71510E-04
  407.00      7.63470E-04
  409.00      7.30410E-04
  411.00      6.72580E-04
  413.00      7.40300E-04
  415.00      7.36580E-04
  417.00      7.33940E-04
  419.00      7.27170E-04
  421.00      7.17960E-04
  423.00      7.17160E-04
  425.00      7.11460E-04
  427.00      7.05780E-04
  429.00      7.00230E-04
  431.00      6.92870E-04
  433.00      6.56230E-04
  435.00      6.20480E-04
  437.00      6.75900E-04
  439.00      6.63690E-04
  441.00      6.68170E-04
  443.00      6.61990E-04
  445.00      6.58030E-04
  447.00      6.37280E-04
  449.00      6.48010E-04
  451.00      6.43150E-04
  453.00      6.37980E-04
  455.00      6.27930E-04
  457.00      6.28770E-04
  459.00      6.24060E-04
  461.00      6.19440E-04
  463.00      6.14810E-04
  465.00      6.09720E-04
  467.00      6.05700E-04
  469.00      5.89330E-04
  471.00      5.92780E-04
  473.00      5.92650E-04
  475.00      5.88350E-04
  477.00      5.84090E-04
  479.00      5.79880E-04
  481.00      5.75710E-04
  483.00      5.69970E-04
  485.00      5.45450E-04
  487.00      5.08310E-04
  489.00      5.56710E-04
  491.00      5.55290E-04
  493.00      5.43810E-04
  495.00      5.47760E-04
  497.00      5.43950E-04
  499.00      5.40160E-04
  501.00      5.32600E-04
  503.00      5.32690E-04
  505.00      5.27500E-04
  507.00      5.25390E-04
  509.00      5.21790E-04
  511.00      5.18230E-04
  513.00      5.14700E-04
  515.00      5.11220E-04
  517.00      5.07760E-04
  519.00      5.04340E-04
  521.00      5.00960E-04
  523.00      4.97610E-04
  525.00      4.94290E-04
  527.00      4.91000E-04
  529.00      4.87750E-04
  531.00      4.84530E-04
  533.00      4.81340E-04
  535.00      4.78180E-04
  537.00      4.75050E-04
  539.00      4.71950E-04
  541.00      4.64850E-04
  543.00      4.65840E-04
  545.00      4.62840E-04
  547.00      4.59860E-04
  549.00      4.56910E-04
  551.00      4.53980E-04
  553.00      4.51090E-04
  555.00      4.48220E-04
  557.00      4.45380E-04
  559.00      4.42550E-04
  561.00      4.39770E-04
  563.00      4.37010E-04
  565.00      4.34270E-04
  567.00      4.31560E-04
  569.00      4.27310E-04
  571.00      4.18030E-04
  573.00      4.15550E-04
  575.00      4.13090E-04
  577.00      4.10660E-04
  579.00      4.08260E-04
  581.00      4.05910E-04
  583.00      4.03690E-04
  585.00      4.01720E-04
  587.00      3.92540E-04
  589.00      3.97710E-04
  591.00      3.96390E-04
  593.00      3.94770E-04
  595.00      3.93190E-04
  597.00      3.91660E-04
  599.00      3.90210E-04
  601.00      3.88830E-04
  603.00      3.86920E-04
  605.00      3.84640E-04
  607.00      3.82380E-04
  609.00      3.80140E-04
  611.00      3.77910E-04
  613.00      3.75700E-04
  615.00      3.73520E-04
  617.00      3.71350E-04
  619.00      3.69200E-04
  621.00      3.67070E-04
  623.00      3.64960E-04
  625.00      3.62870E-04
  627.00      3.60790E-04
  629.00      3.58730E-04
  631.00      3.56690E-04
  633.00      3.54670E-04
  635.00      3.52670E-04
  637.00      3.50680E-04
  639.00      3.48700E-04
  641.00      3.46520E-04
  643.00      3.44810E-04
  645.00      3.42890E-04
  647.00      3.40980E-04
  649.00      3.39090E-04
  651.00      3.37200E-04
  653.00      3.33840E-04
  655.00      3.26330E-04
  657.00      3.02250E-04
  659.00      3.28210E-04
  661.00      3.28050E-04
  663.00      3.26270E-04
  665.00      3.24590E-04
  667.00      3.20670E-04
  669.00      3.18260E-04
  671.00      3.19360E-04
  673.00      3.17650E-04
  675.00      3.15950E-04
  677.00      3.14260E-04
  679.00      3.12580E-04
  681.00      3.10920E-04
  683.00      3.09270E-04
  685.00      3.07640E-04
  687.00      3.06010E-04
  689.00      3.03720E-04
  691.00      3.02800E-04
  693.00      3.01220E-04
  695.00      2.99650E-04
  697.00      2.98090E-04
  699.00      2.96540E-04
  701.00      2.95000E-04
  703.00      2.93480E-04
  705.00      2.91970E-04
  707.00      2.87520E-04
  709.00      2.88980E-04
  711.00      2.87500E-04
  713.00      2.86030E-04
  715.00      2.84580E-04
  717.00      2.82590E-04
  719.00      2.81420E-04
  721.00      2.80280E-04
  723.00      2.78860E-04
  725.00      2.77460E-04
  727.00      2.76070E-04
  729.00      2.73250E-04
  731.00      2.73300E-04
  733.00      2.71960E-04
  735.00      2.70610E-04
  737.00      2.69270E-04
  739.00      2.67940E-04
  741.00      2.66620E-04
  743.00      2.65310E-04
  745.00      2.64030E-04
  747.00      2.62740E-04
  749.00      2.61450E-04
  751.00      2.60140E-04
  753.00      2.58920E-04
  755.00      2.57670E-04
  757.00      2.56420E-04
  759.00      2.54380E-04
  761.00      2.53960E-04
  763.00      2.52740E-04
  765.00      2.51530E-04
  767.00      2.50330E-04
  769.00      2.49140E-04
  771.00      2.47950E-04
  773.00      2.46780E-04
  775.00      2.45610E-04
  777.00      2.44450E-04
  779.00      2.43300E-04
  781.00      2.42100E-04
  783.00      2.41030E-04
  785.00      2.40020E-04
  787.00      2.38900E-04
  789.00      2.37780E-04
  791.00      2.36680E-04
  793.00      2.35590E-04
  795.00      2.34500E-04
  797.00      2.33370E-04
  799.00      2.32340E-04
  801.00      2.31280E-04
  803.00      2.30220E-04
  805.00      2.29160E-04
  807.00      2.28120E-04
  809.00      2.26920E-04
  811.00      2.25910E-04
  813.00      2.25010E-04
  815.00      2.23810E-04
  817.00      2.22980E-04
  819.00      2.21650E-04
  821.00      2.18860E-04
  823.00      2.17520E-04
  825.00      2.17100E-04
  827.00      2.15850E-04
  829.00      2.15310E-04
  831.00      2.14410E-04
  833.00      2.13410E-04
  835.00      2.12010E-04
  837.00      2.11430E-04
  839.00      2.10650E-04
  841.00      2.09770E-04
  843.00      2.08800E-04
  845.00      2.07240E-04
  847.00      2.07050E-04
  849.00      2.05980E-04
  851.00      2.05250E-04
  853.00      2.04220E-04
  855.00      2.03050E-04
  857.00      2.03300E-04
  859.00      2.00100E-04
  861.00      2.00240E-04
  863.00      2.01470E-04
  865.00      1.98830E-04
  867.00      1.94880E-04
  869.00      1.99080E-04
  871.00      1.99460E-04
  873.00      1.96340E-04
  875.00      1.88410E-04
  877.00      1.93430E-04
  879.00      1.96830E-04
  881.00      1.96580E-04
  883.00      1.95220E-04
  885.00      1.88050E-04
  887.00      1.81240E-04
  889.00      1.91430E-04
  891.00      1.92790E-04
  893.00      1.92290E-04
  895.00      1.91780E-04
  897.00      1.90660E-04
  899.00      1.87180E-04
  901.00      1.75050E-04
  903.00      1.79710E-04
  905.00      1.86480E-04
  907.00      1.85810E-04
  909.00      1.86230E-04
  911.00      1.85950E-04
  913.00      1.85280E-04
  915.00      1.84520E-04
  917.00      1.83220E-04
  919.00      1.81950E-04
  921.00      1.76590E-04
  923.00      1.63940E-04
  925.00      1.75150E-04
  927.00      1.78850E-04
  929.00      1.78970E-04
  931.00      1.78110E-04
  933.00      1.77890E-04
  935.00      1.75950E-04
  937.00      1.76470E-04
  939.00      1.75770E-04
  941.00      1.75070E-04
  943.00      1.74370E-04
  945.00      1.73670E-04
  947.00      1.72330E-04
  949.00      1.71940E-04
  951.00      1.69540E-04
  953.00      1.64380E-04
  955.00      1.53170E-04
  957.00      1.65460E-04
  959.00      1.67970E-04
  961.00      1.67790E-04
  963.00      1.67100E-04
  965.00      1.66960E-04
  967.00      1.66320E-04
  969.00      1.65600E-04
  971.00      1.64750E-04
  973.00      1.64390E-04
  975.00      1.63750E-04
  977.00      1.63120E-04
  979.00      1.62500E-04
  981.00      1.61870E-04
  983.00      1.61250E-04
  985.00      1.60640E-04
  987.00      1.60020E-04
  989.00      1.59410E-04
  991.00      1.58800E-04
  993.00      1.58200E-04
  995.00      1.57600E-04
  997.00      1.57010E-04
  999.00      1.56150E-04
  1002.5      1.50570E-04
  1007.5      1.47810E-04
  1012.5      1.51220E-04
  1017.5      1.51090E-04
  1022.5      1.49660E-04
  1027.5      1.48320E-04
  1032.5      1.46580E-04
  1037.5      1.45630E-04
  1042.5      1.44280E-04
  1047.5      1.43010E-04
  1052.5      1.41730E-04
  1057.5      1.40460E-04
  1062.5      1.39220E-04
  1067.5      1.37840E-04
  1072.5      1.36770E-04
  1077.5      1.35570E-04
  1082.5      1.33520E-04
  1087.5      1.32900E-04
  1092.5      1.24660E-04
  1097.5      1.28730E-04
  1102.5      1.29300E-04
  1107.5      1.28620E-04
  1112.5      1.27590E-04
  1117.5      1.26510E-04
  1122.5      1.25410E-04
  1127.5      1.24390E-04
  1132.5      1.23350E-04
  1137.5      1.22320E-04
  1142.5      1.21310E-04
  1147.5      1.20300E-04
  1152.5      1.19310E-04
  1157.5      1.18330E-04
  1162.5      1.17070E-04
  1167.5      1.16340E-04
  1172.5      1.15470E-04
  1177.5      1.14540E-04
  1182.5      1.13620E-04
  1187.5      1.12710E-04
  1192.5      1.11810E-04
  1197.5      1.10170E-04
  1202.5      1.10040E-04
  1207.5      1.09170E-04
  1212.5      1.08320E-04
  1217.5      1.07470E-04
  1222.5      1.06630E-04
  1227.5      1.05810E-04
  1232.5      1.04990E-04
  1237.5      1.04180E-04
  1242.5      1.03380E-04
  1247.5      1.02590E-04
  1252.5      1.01690E-04
  1257.5      1.01040E-04
  1262.5      1.00270E-04
  1267.5      9.95180E-05
  1272.5      9.87700E-05
  1277.5      9.67850E-05
  1282.5      9.18920E-05
  1287.5      9.60820E-05
  1292.5      9.58680E-05
  1297.5      9.47630E-05
  1302.5      9.44670E-05
  1307.5      9.37770E-05
  1312.5      9.30940E-05
  1317.5      9.24190E-05
  1322.5      9.17510E-05
  1327.5      9.10900E-05
  1332.5      9.04370E-05
  1337.5      8.97900E-05
  1342.5      8.91080E-05
  1347.5      8.85170E-05
  1352.5      8.78910E-05
  1357.5      8.72720E-05
  1362.5      8.66580E-05
  1367.5      8.60520E-05
  1372.5      8.54520E-05
  1377.5      8.48580E-05
  1382.5      8.42700E-05
  1387.5      8.36880E-05
  1392.5      8.31120E-05
  1397.5      8.25420E-05
