 Castelli and Kurucz 2004-2012 Atmosphere
 T     33000.     G    5.00000 [-2.5] N(He)/Ntot=0.0784 VTURB=2  L/H=1.25 NOVER
 Wavelength  Eddington Hnu
   (nm)    (ergs/s/cm2/Hz/sr)
  9.0900      1.82790E-31
  9.3500      1.21260E-30
  9.6100      7.29740E-30
  9.7700      2.10460E-29
  9.9600      7.09700E-29
  10.200      3.09640E-28
  10.380      8.95850E-28
  10.560      2.50300E-27
  10.770      7.95870E-27
  11.040      3.30820E-26
  11.400      1.99750E-25
  11.780      1.18750E-24
  12.130      5.56810E-24
  12.480      2.39820E-23
  12.710      5.99780E-23
  12.840      9.92870E-23
  13.050      2.19500E-22
  13.240      4.40420E-22
  13.390      7.52670E-22
  13.660      1.91900E-21
  13.980      5.55750E-21
  14.330      1.68470E-20
  14.720      5.45020E-20
  15.100      1.61580E-19
  15.520      5.04730E-19
  15.880      1.27790E-18
  16.200      2.81960E-18
  16.600      7.26050E-18
  17.030      1.91140E-17
  17.340      3.72690E-17
  17.680      7.54420E-17
  18.020      1.48680E-16
  18.170      1.98960E-16
  18.610      4.55130E-16
  19.100      1.09260E-15
  19.390      1.79710E-15
  19.840      3.77600E-15
  20.180      6.47110E-15
  20.500      1.05670E-14
  21.050      2.37040E-14
  21.620      5.23780E-14
  21.980      8.45690E-14
  22.300      1.27750E-13
  22.680      2.05320E-13
  23.000      5.50140E-12
  23.400      3.77430E-11
  24.000      1.05610E-10
  24.650      2.38610E-10
  25.240      3.88900E-10
  25.680      3.35160E-10
  26.000      6.40630E-10
  26.400      7.97830E-10
  26.850      1.04300E-09
  27.350      1.35790E-09
  27.850      1.72820E-09
  28.400      2.33640E-09
  29.000      3.11520E-09
  29.600      4.03120E-09
  30.100      4.29950E-09
  30.800      5.64340E-09
  31.800      1.13750E-08
  32.800      1.74150E-08
  33.800      2.64850E-08
  34.800      3.91520E-08
  35.700      5.40280E-08
  36.600      7.50680E-08
  37.500      1.00370E-07
  38.500      1.40280E-07
  39.500      1.90460E-07
  40.500      2.54560E-07
  41.400      3.28080E-07
  42.200      4.04860E-07
  43.000      4.95630E-07
  44.100      6.50170E-07
  45.100      8.21960E-07
  46.000      9.98800E-07
  47.000      1.24540E-06
  48.000      1.52670E-06
  49.000      1.85080E-06
  50.000      2.24100E-06
  50.600      1.01060E-05
  51.200      3.63430E-05
  52.000      3.74720E-05
  53.000      4.17330E-05
  54.000      3.96630E-05
  55.000      4.51050E-05
  56.000      4.78230E-05
  57.000      5.03240E-05
  58.000      4.94110E-05
  59.000      5.45080E-05
  60.000      5.64210E-05
  61.000      5.92590E-05
  62.000      6.24510E-05
  63.000      6.55540E-05
  64.000      6.77450E-05
  65.000      7.13680E-05
  65.800      7.33850E-05
  66.500      7.57990E-05
  67.500      7.91000E-05
  68.500      8.07150E-05
  69.500      8.68880E-05
  70.500      8.87450E-05
  71.600      9.43490E-05
  72.600      9.81510E-05
  73.500      1.02640E-04
  74.500      1.06400E-04
  75.500      1.10400E-04
  76.500      1.14430E-04
  77.500      1.19320E-04
  78.500      1.24460E-04
  79.500      1.28700E-04
  80.500      1.33320E-04
  81.500      1.37960E-04
  82.500      1.43190E-04
  83.500      1.43540E-04
  84.500      1.52850E-04
  85.500      1.57750E-04
  86.500      1.62950E-04
  87.500      1.68070E-04
  88.500      1.73230E-04
  89.500      1.78410E-04
  90.500      1.82980E-04
  91.500      1.94630E-04
  92.500      5.79220E-04
  93.500      1.02790E-03
  94.500      1.89140E-03
  95.500      2.26100E-03
  96.500      2.95450E-03
  97.500      1.74300E-03
  98.500      3.15830E-03
  99.500      2.94720E-03
  100.50      3.20580E-03
  101.50      3.08710E-03
  102.50      1.66350E-03
  103.50      2.97510E-03
  104.50      3.15830E-03
  105.50      3.14980E-03
  106.50      3.07110E-03
  107.50      3.06010E-03
  108.50      2.85260E-03
  109.50      3.05800E-03
  110.50      3.00360E-03
  111.50      2.98560E-03
  112.50      2.91400E-03
  113.50      2.96530E-03
  114.50      2.93440E-03
  115.50      2.90830E-03
  116.50      2.89090E-03
  117.50      2.63990E-03
  118.50      2.82780E-03
  119.50      2.79460E-03
  120.50      2.65340E-03
  121.50      1.51930E-03
  122.50      2.60960E-03
  123.50      2.71730E-03
  124.50      2.68440E-03
  125.50      2.69900E-03
  126.50      2.68070E-03
  127.50      2.66070E-03
  128.50      2.64050E-03
  129.50      2.57800E-03
  130.50      2.57760E-03
  131.50      2.57910E-03
  132.50      2.55410E-03
  133.50      2.50690E-03
  134.50      2.51820E-03
  135.50      2.49930E-03
  136.50      2.47840E-03
  137.50      2.45910E-03
  138.50      2.44020E-03
  139.50      2.37810E-03
  140.50      2.36430E-03
  141.50      2.38250E-03
  142.50      2.35940E-03
  143.50      2.34660E-03
  144.20      2.33550E-03
  144.70      2.32600E-03
  145.50      2.31070E-03
  146.50      2.29360E-03
  147.50      2.27530E-03
  148.50      2.25980E-03
  149.50      2.24130E-03
  150.50      2.22330E-03
  151.20      2.21290E-03
  151.70      2.20390E-03
  152.50      2.18860E-03
  153.50      2.16100E-03
  154.50      2.11280E-03
  155.50      2.10290E-03
  156.50      2.11380E-03
  157.50      2.10400E-03
  158.50      2.09170E-03
  159.50      2.07580E-03
  160.50      2.04980E-03
  161.50      2.03350E-03
  162.50      2.01970E-03
  163.50      1.97850E-03
  164.50      1.89640E-03
  165.50      1.98370E-03
  166.50      1.97060E-03
  167.20      1.95730E-03
  167.70      1.95850E-03
  168.50      1.94570E-03
  169.50      1.93160E-03
  170.50      1.91640E-03
  171.50      1.89460E-03
  172.50      1.88320E-03
  173.50      1.87870E-03
  174.50      1.86430E-03
  175.50      1.84970E-03
  176.50      1.83760E-03
  177.50      1.82590E-03
  178.50      1.81370E-03
  179.50      1.80070E-03
  180.50      1.78900E-03
  181.50      1.77610E-03
  182.50      1.76360E-03
  183.50      1.75220E-03
  184.50      1.73800E-03
  185.50      1.72180E-03
  186.50      1.71190E-03
  187.50      1.70350E-03
  188.50      1.68970E-03
  189.50      1.67520E-03
  190.50      1.66900E-03
  191.50      1.65340E-03
  192.50      1.64040E-03
  193.50      1.63390E-03
  194.50      1.62540E-03
  195.50      1.61050E-03
  196.70      1.60170E-03
  197.60      1.59350E-03
  198.40      1.58350E-03
  199.50      1.56950E-03
  200.50      1.56320E-03
  201.50      1.55360E-03
  202.50      1.54390E-03
  203.50      1.53330E-03
  204.50      1.52340E-03
  205.50      1.36890E-03
  206.50      1.34550E-03
  207.40      1.34490E-03
  207.80      1.34570E-03
  208.50      1.36490E-03
  209.50      1.41090E-03
  210.50      1.45650E-03
  211.50      1.45840E-03
  212.50      1.45050E-03
  213.50      1.44050E-03
  214.50      1.43160E-03
  215.50      1.42630E-03
  216.50      1.40980E-03
  217.50      1.41250E-03
  218.50      1.39130E-03
  219.50      1.39480E-03
  220.50      1.38710E-03
  221.50      1.36310E-03
  222.50      1.37000E-03
  223.50      1.36160E-03
  224.50      1.35280E-03
  225.50      1.32920E-03
  226.50      1.33670E-03
  227.50      1.32860E-03
  228.50      1.32040E-03
  229.50      1.29970E-03
  230.50      1.28900E-03
  231.50      1.29660E-03
  232.50      1.28910E-03
  233.50      1.28130E-03
  234.50      1.27370E-03
  235.50      1.26620E-03
  236.50      1.25870E-03
  237.50      1.25130E-03
  238.50      1.22960E-03
  239.50      1.23640E-03
  240.50      1.22940E-03
  241.50      1.22220E-03
  242.50      1.21520E-03
  243.50      1.20810E-03
  244.50      1.20120E-03
  245.50      1.19430E-03
  246.50      1.18740E-03
  247.50      1.18060E-03
  248.50      1.17390E-03
  249.50      1.14890E-03
  250.50      1.15920E-03
  251.30      1.12730E-03
  251.80      1.15140E-03
  252.50      1.14760E-03
  253.50      1.14120E-03
  254.50      1.13470E-03
  255.50      1.12840E-03
  256.50      1.12230E-03
  257.50      1.11600E-03
  258.50      1.10990E-03
  259.50      1.10380E-03
  260.50      1.10180E-03
  261.50      1.09580E-03
  262.50      1.08980E-03
  263.50      1.08360E-03
  264.50      1.07740E-03
  265.50      1.07090E-03
  266.50      1.06380E-03
  267.50      1.05660E-03
  268.50      1.05480E-03
  269.50      1.04380E-03
  270.50      1.04350E-03
  271.50      1.03790E-03
  272.50      1.02600E-03
  273.50      1.01770E-03
  274.50      1.02150E-03
  275.50      1.01610E-03
  276.50      1.00360E-03
  277.50      1.00550E-03
  278.50      1.00020E-03
  279.50      9.94530E-04
  280.50      9.89710E-04
  281.50      9.84680E-04
  282.50      9.71220E-04
  283.50      9.69730E-04
  284.50      9.69530E-04
  285.50      9.64540E-04
  286.50      9.59610E-04
  287.50      9.54720E-04
  288.50      9.49880E-04
  289.50      9.45050E-04
  291.00      9.37890E-04
  293.00      9.28470E-04
  295.00      9.12930E-04
  297.00      9.10050E-04
  299.00      9.01020E-04
  301.00      8.92180E-04
  303.00      8.83460E-04
  305.00      8.74860E-04
  307.00      8.66400E-04
  309.00      8.57940E-04
  311.00      8.49830E-04
  313.00      8.42260E-04
  315.00      8.34240E-04
  317.00      8.26370E-04
  319.00      8.11820E-04
  321.00      8.07700E-04
  323.00      8.03050E-04
  325.00      7.95460E-04
  327.00      7.88740E-04
  329.00      7.80700E-04
  331.00      7.74440E-04
  333.00      7.67410E-04
  335.00      7.59350E-04
  337.00      7.53650E-04
  339.00      7.46920E-04
  341.00      7.40270E-04
  343.00      7.31400E-04
  345.00      7.22810E-04
  347.00      7.18180E-04
  349.00      7.11950E-04
  351.00      7.06250E-04
  353.00      7.00640E-04
  355.00      6.94700E-04
  357.00      6.92680E-04
  359.00      6.81760E-04
  361.00      6.78750E-04
  363.00      6.70300E-04
  364.00      6.71830E-04
  365.00      6.63460E-04
  367.00      6.60050E-04
  369.00      6.55120E-04
  371.00      6.42480E-04
  373.00      6.32680E-04
  375.00      6.27510E-04
  377.00      6.13960E-04
  379.00      6.31040E-04
  381.00      6.54840E-04
  383.00      5.89910E-04
  385.00      6.75220E-04
  387.00      6.90580E-04
  389.00      5.69210E-04
  391.00      6.87780E-04
  393.00      6.89970E-04
  395.00      6.78700E-04
  397.00      5.48600E-04
  399.00      6.62460E-04
  401.00      6.68200E-04
  403.00      6.36220E-04
  405.00      6.64290E-04
  407.00      6.55830E-04
  409.00      6.06490E-04
  411.00      5.43710E-04
  413.00      6.32360E-04
  415.00      6.32580E-04
  417.00      6.33180E-04
  419.00      6.28530E-04
  421.00      6.22830E-04
  423.00      6.19030E-04
  425.00      6.13980E-04
  427.00      6.08880E-04
  429.00      6.02890E-04
  431.00      5.94160E-04
  433.00      5.42180E-04
  435.00      5.05040E-04
  437.00      5.78390E-04
  439.00      5.64300E-04
  441.00      5.75660E-04
  443.00      5.69960E-04
  445.00      5.67120E-04
  447.00      5.37890E-04
  449.00      5.57930E-04
  451.00      5.54370E-04
  453.00      5.50100E-04
  455.00      5.44370E-04
  457.00      5.41820E-04
  459.00      5.37710E-04
  461.00      5.33710E-04
  463.00      5.29720E-04
  465.00      5.25360E-04
  467.00      5.21820E-04
  469.00      5.13090E-04
  471.00      5.08560E-04
  473.00      5.10420E-04
  475.00      5.06670E-04
  477.00      5.03000E-04
  479.00      4.99340E-04
  481.00      4.94470E-04
  483.00      4.87750E-04
  485.00      4.52630E-04
  487.00      4.13800E-04
  489.00      4.75100E-04
  491.00      4.75870E-04
  493.00      4.62720E-04
  495.00      4.71470E-04
  497.00      4.68200E-04
  499.00      4.64920E-04
  501.00      4.56590E-04
  503.00      4.58460E-04
  505.00      4.53170E-04
  507.00      4.52150E-04
  509.00      4.49040E-04
  511.00      4.45960E-04
  513.00      4.42910E-04
  515.00      4.39900E-04
  517.00      4.36910E-04
  519.00      4.33960E-04
  521.00      4.31040E-04
  523.00      4.28140E-04
  525.00      4.25280E-04
  527.00      4.22440E-04
  529.00      4.19630E-04
  531.00      4.16850E-04
  533.00      4.14100E-04
  535.00      4.11370E-04
  537.00      4.08670E-04
  539.00      4.06000E-04
  541.00      4.02250E-04
  543.00      4.00730E-04
  545.00      3.98130E-04
  547.00      3.95560E-04
  549.00      3.93020E-04
  551.00      3.90500E-04
  553.00      3.88000E-04
  555.00      3.85520E-04
  557.00      3.83080E-04
  559.00      3.80650E-04
  561.00      3.78250E-04
  563.00      3.75860E-04
  565.00      3.73510E-04
  567.00      3.71170E-04
  569.00      3.68620E-04
  571.00      3.65480E-04
  573.00      3.63240E-04
  575.00      3.61010E-04
  577.00      3.58820E-04
  579.00      3.56640E-04
  581.00      3.54470E-04
  583.00      3.52330E-04
  585.00      3.50150E-04
  587.00      3.38080E-04
  589.00      3.45240E-04
  591.00      3.44060E-04
  593.00      3.42690E-04
  595.00      3.40640E-04
  597.00      3.38630E-04
  599.00      3.36610E-04
  601.00      3.34620E-04
  603.00      3.32640E-04
  605.00      3.30680E-04
  607.00      3.28740E-04
  609.00      3.26810E-04
  611.00      3.24900E-04
  613.00      3.23010E-04
  615.00      3.21130E-04
  617.00      3.19270E-04
  619.00      3.17430E-04
  621.00      3.15600E-04
  623.00      3.13790E-04
  625.00      3.11990E-04
  627.00      3.10210E-04
  629.00      3.08440E-04
  631.00      3.06690E-04
  633.00      3.04950E-04
  635.00      3.03230E-04
  637.00      3.01520E-04
  639.00      2.99830E-04
  641.00      2.98150E-04
  643.00      2.96480E-04
  645.00      2.94830E-04
  647.00      2.93190E-04
  649.00      2.91560E-04
  651.00      2.89550E-04
  653.00      2.86600E-04
  655.00      2.74890E-04
  657.00      2.49390E-04
  659.00      2.80200E-04
  661.00      2.81250E-04
  663.00      2.80560E-04
  665.00      2.79160E-04
  667.00      2.74780E-04
  669.00      2.73300E-04
  671.00      2.74670E-04
  673.00      2.73200E-04
  675.00      2.71740E-04
  677.00      2.70290E-04
  679.00      2.68860E-04
  681.00      2.67430E-04
  683.00      2.66020E-04
  685.00      2.64610E-04
  687.00      2.63220E-04
  689.00      2.61840E-04
  691.00      2.60470E-04
  693.00      2.59110E-04
  695.00      2.57760E-04
  697.00      2.56430E-04
  699.00      2.55100E-04
  701.00      2.53780E-04
  703.00      2.52470E-04
  705.00      2.51180E-04
  707.00      2.46390E-04
  709.00      2.48610E-04
  711.00      2.47350E-04
  713.00      2.46090E-04
  715.00      2.44840E-04
  717.00      2.43580E-04
  719.00      2.42370E-04
  721.00      2.41150E-04
  723.00      2.39920E-04
  725.00      2.38740E-04
  727.00      2.37550E-04
  729.00      2.34650E-04
  731.00      2.35170E-04
  733.00      2.34020E-04
  735.00      2.32860E-04
  737.00      2.31720E-04
  739.00      2.30570E-04
  741.00      2.29440E-04
  743.00      2.28320E-04
  745.00      2.27220E-04
  747.00      2.26120E-04
  749.00      2.25020E-04
  751.00      2.23870E-04
  753.00      2.22840E-04
  755.00      2.21760E-04
  757.00      2.20700E-04
  759.00      2.19630E-04
  761.00      2.18580E-04
  763.00      2.17540E-04
  765.00      2.16500E-04
  767.00      2.15470E-04
  769.00      2.14450E-04
  771.00      2.13430E-04
  773.00      2.12420E-04
  775.00      2.11420E-04
  777.00      2.10420E-04
  779.00      2.09440E-04
  781.00      2.08380E-04
  783.00      2.07480E-04
  785.00      2.06670E-04
  787.00      2.05710E-04
  789.00      2.04730E-04
  791.00      2.03800E-04
  793.00      2.02860E-04
  795.00      2.01930E-04
  797.00      2.00910E-04
  799.00      2.00080E-04
  801.00      1.99160E-04
  803.00      1.98250E-04
  805.00      1.97310E-04
  807.00      1.96420E-04
  809.00      1.95260E-04
  811.00      1.94490E-04
  813.00      1.93680E-04
  815.00      1.92660E-04
  817.00      1.91940E-04
  819.00      1.90850E-04
  821.00      1.89740E-04
  823.00      1.89120E-04
  825.00      1.88380E-04
  827.00      1.87040E-04
  829.00      1.86720E-04
  831.00      1.85960E-04
  833.00      1.85050E-04
  835.00      1.83660E-04
  837.00      1.83290E-04
  839.00      1.82680E-04
  841.00      1.81890E-04
  843.00      1.81020E-04
  845.00      1.79360E-04
  847.00      1.79480E-04
  849.00      1.78430E-04
  851.00      1.77890E-04
  853.00      1.76730E-04
  855.00      1.75990E-04
  857.00      1.75780E-04
  859.00      1.72700E-04
  861.00      1.73330E-04
  863.00      1.74040E-04
  865.00      1.71370E-04
  867.00      1.68610E-04
  869.00      1.71720E-04
  871.00      1.72160E-04
  873.00      1.68680E-04
  875.00      1.62220E-04
  877.00      1.65880E-04
  879.00      1.69640E-04
  881.00      1.69740E-04
  883.00      1.68020E-04
  885.00      1.60240E-04
  887.00      1.54540E-04
  889.00      1.64120E-04
  891.00      1.66430E-04
  893.00      1.66400E-04
  895.00      1.66040E-04
  897.00      1.64670E-04
  899.00      1.60190E-04
  901.00      1.48000E-04
  903.00      1.52350E-04
  905.00      1.60260E-04
  907.00      1.60250E-04
  909.00      1.61270E-04
  911.00      1.61200E-04
  913.00      1.60630E-04
  915.00      1.59860E-04
  917.00      1.58530E-04
  919.00      1.56900E-04
  921.00      1.50150E-04
  923.00      1.37450E-04
  925.00      1.48730E-04
  927.00      1.54100E-04
  929.00      1.54930E-04
  931.00      1.54240E-04
  933.00      1.54490E-04
  935.00      1.53650E-04
  937.00      1.53380E-04
  939.00      1.52770E-04
  941.00      1.52160E-04
  943.00      1.51550E-04
  945.00      1.50820E-04
  947.00      1.49100E-04
  949.00      1.48840E-04
  951.00      1.45810E-04
  953.00      1.39170E-04
  955.00      1.27770E-04
  957.00      1.40760E-04
  959.00      1.44860E-04
  961.00      1.45220E-04
  963.00      1.44670E-04
  965.00      1.45120E-04
  967.00      1.44550E-04
  969.00      1.43890E-04
  971.00      1.43080E-04
  973.00      1.42880E-04
  975.00      1.42330E-04
  977.00      1.41780E-04
  979.00      1.41240E-04
  981.00      1.40700E-04
  983.00      1.40160E-04
  985.00      1.39620E-04
  987.00      1.39090E-04
  989.00      1.38560E-04
  991.00      1.38020E-04
  993.00      1.37510E-04
  995.00      1.36960E-04
  997.00      1.36090E-04
  999.00      1.35210E-04
  1002.5      1.28310E-04
  1007.5      1.25620E-04
  1012.5      1.31540E-04
  1017.5      1.31320E-04
  1022.5      1.30070E-04
  1027.5      1.28920E-04
  1032.5      1.27230E-04
  1037.5      1.26580E-04
  1042.5      1.25440E-04
  1047.5      1.24310E-04
  1052.5      1.23190E-04
  1057.5      1.22090E-04
  1062.5      1.21010E-04
  1067.5      1.19740E-04
  1072.5      1.18880E-04
  1077.5      1.17830E-04
  1082.5      1.15720E-04
  1087.5      1.15030E-04
  1092.5      1.05310E-04
  1097.5      1.10240E-04
  1102.5      1.11960E-04
  1107.5      1.11690E-04
  1112.5      1.10900E-04
  1117.5      1.09960E-04
  1122.5      1.08990E-04
  1127.5      1.08120E-04
  1132.5      1.07210E-04
  1137.5      1.06320E-04
  1142.5      1.05430E-04
  1147.5      1.04560E-04
  1152.5      1.03700E-04
  1157.5      1.02850E-04
  1162.5      1.01980E-04
  1167.5      1.01180E-04
  1172.5      1.00360E-04
  1177.5      9.95520E-05
  1182.5      9.87520E-05
  1187.5      9.79620E-05
  1192.5      9.71790E-05
  1197.5      9.53050E-05
  1202.5      9.56450E-05
  1207.5      9.48920E-05
  1212.5      9.41480E-05
  1217.5      9.34110E-05
  1222.5      9.26840E-05
  1227.5      9.19650E-05
  1232.5      9.12540E-05
  1237.5      9.05520E-05
  1242.5      8.98570E-05
  1247.5      8.91700E-05
  1252.5      8.83200E-05
  1257.5      8.78200E-05
  1262.5      8.71560E-05
  1267.5      8.64990E-05
  1272.5      8.56480E-05
  1277.5      8.33190E-05
  1282.5      7.75500E-05
  1287.5      8.29850E-05
  1292.5      8.31770E-05
  1297.5      8.20970E-05
  1302.5      8.21070E-05
  1307.5      8.15080E-05
  1312.5      8.09150E-05
  1317.5      8.03280E-05
  1322.5      7.97470E-05
  1327.5      7.91730E-05
  1332.5      7.86040E-05
  1337.5      7.80420E-05
  1342.5      7.74320E-05
  1347.5      7.69360E-05
  1352.5      7.63910E-05
  1357.5      7.58530E-05
  1362.5      7.53200E-05
  1367.5      7.47930E-05
  1372.5      7.42710E-05
  1377.5      7.37540E-05
  1382.5      7.32430E-05
  1387.5      7.27370E-05
  1392.5      7.22370E-05
  1397.5      7.17410E-05
