 Castelli and Kurucz 2004-2012 Atmosphere
 T     45000.     G    4.50000 [-1.0a] N(He)/Ntot=0.0784 VTURB=2.0  L/H=1.25 OD
 Wavelength  Eddington Hnu
   (nm)    (ergs/s/cm2/Hz/sr)
  9.0900      8.85830E-21
  9.3500      2.58160E-20
  9.6100      7.03710E-20
  9.7700      1.29220E-19
  9.9600      2.56500E-19
  10.200      5.88880E-19
  10.380      1.07340E-18
  10.560      1.91880E-18
  10.770      3.69160E-18
  11.040      8.27120E-18
  11.400      2.29260E-17
  11.780      6.31760E-17
  12.130      1.52790E-16
  12.480      3.52300E-16
  12.710      5.96220E-16
  12.840      7.98300E-16
  13.050      1.25950E-15
  13.240      1.88120E-15
  13.390      2.56610E-15
  13.660      4.39660E-15
  13.980      8.18840E-15
  14.330      1.55950E-14
  14.720      3.04030E-14
  15.100      5.86820E-14
  15.520      1.14870E-13
  15.880      1.99390E-13
  16.200      3.24400E-13
  16.600      5.74180E-13
  17.030      1.01670E-12
  17.340      1.51550E-12
  17.680      2.34520E-12
  18.020      3.54490E-12
  18.170      4.17410E-12
  18.610      7.02680E-12
  19.100      1.19980E-11
  19.390      1.64230E-11
  19.840      2.59850E-11
  20.180      3.63090E-11
  20.500      4.94700E-11
  21.050      8.22220E-11
  21.620      1.35210E-10
  21.980      1.84380E-10
  22.300      2.39340E-10
  22.680      3.20930E-10
  23.000      7.88240E-08
  23.400      5.15270E-07
  24.000      2.31110E-06
  24.650      1.41320E-05
  25.240      4.87660E-05
  25.680      5.45720E-05
  26.000      8.15550E-05
  26.400      1.63060E-04
  26.850      2.02020E-04
  27.350      2.41510E-04
  27.850      2.04990E-04
  28.400      3.25290E-04
  29.000      4.06850E-04
  29.600      3.41290E-04
  30.100      1.32430E-04
  30.800      2.19770E-04
  31.800      1.48350E-04
  32.800      1.88830E-04
  33.800      1.38450E-04
  34.800      1.48230E-04
  35.700      3.17760E-04
  36.600      5.09050E-04
  37.500      6.19280E-04
  38.500      6.11600E-04
  39.500      8.27840E-04
  40.500      1.05370E-03
  41.400      1.09570E-03
  42.200      1.07670E-03
  43.000      1.05890E-03
  44.100      1.23440E-03
  45.100      1.31480E-03
  46.000      1.24020E-03
  47.000      1.31890E-03
  48.000      1.43970E-03
  49.000      1.30080E-03
  50.000      1.58820E-03
  50.600      1.41520E-03
  51.200      1.74830E-03
  52.000      1.71550E-03
  53.000      1.68940E-03
  54.000      1.55530E-03
  55.000      1.40370E-03
  56.000      1.75090E-03
  57.000      1.92150E-03
  58.000      1.93470E-03
  59.000      1.99480E-03
  60.000      1.88600E-03
  61.000      1.74070E-03
  62.000      2.05040E-03
  63.000      1.98490E-03
  64.000      2.15770E-03
  65.000      2.10120E-03
  65.800      1.98320E-03
  66.500      2.18730E-03
  67.500      2.24910E-03
  68.500      2.14350E-03
  69.500      2.29480E-03
  70.500      2.13600E-03
  71.600      2.34290E-03
  72.600      2.39660E-03
  73.500      2.41480E-03
  74.500      2.38690E-03
  75.500      2.37190E-03
  76.500      2.31230E-03
  77.500      2.41990E-03
  78.500      2.30630E-03
  79.500      2.42790E-03
  80.500      2.46500E-03
  81.500      2.49520E-03
  82.500      2.52520E-03
  83.500      2.38170E-03
  84.500      2.53350E-03
  85.500      2.48990E-03
  86.500      2.57110E-03
  87.500      2.59690E-03
  88.500      2.58110E-03
  89.500      2.59720E-03
  90.500      2.57060E-03
  91.500      2.03610E-03
  92.500      3.36470E-03
  93.500      4.20820E-03
  94.500      4.83250E-03
  95.500      5.37150E-03
  96.500      5.79600E-03
  97.500      4.80240E-03
  98.500      5.56890E-03
  99.500      5.24300E-03
  100.50      5.45370E-03
  101.50      5.51340E-03
  102.50      4.89870E-03
  103.50      5.59450E-03
  104.50      5.65950E-03
  105.50      5.63510E-03
  106.50      5.44180E-03
  107.50      5.53520E-03
  108.50      5.28980E-03
  109.50      5.50060E-03
  110.50      5.42750E-03
  111.50      5.38650E-03
  112.50      5.26980E-03
  113.50      5.37430E-03
  114.50      5.35360E-03
  115.50      5.24890E-03
  116.50      5.16520E-03
  117.50      4.88000E-03
  118.50      5.11110E-03
  119.50      5.03660E-03
  120.50      5.02680E-03
  121.50      4.33680E-03
  122.50      4.96810E-03
  123.50      4.86790E-03
  124.50      4.81780E-03
  125.50      4.89150E-03
  126.50      4.86300E-03
  127.50      4.84140E-03
  128.50      4.81500E-03
  129.50      4.78870E-03
  130.50      4.71740E-03
  131.50      4.70010E-03
  132.50      4.65050E-03
  133.50      4.63900E-03
  134.50      4.61030E-03
  135.50      4.52830E-03
  136.50      4.43420E-03
  137.50      4.34480E-03
  138.50      4.39660E-03
  139.50      4.31440E-03
  140.50      4.20460E-03
  141.50      4.36060E-03
  142.50      4.27790E-03
  143.50      4.30760E-03
  144.20      4.22290E-03
  144.70      4.22180E-03
  145.50      4.17760E-03
  146.50      4.16380E-03
  147.50      4.15800E-03
  148.50      4.17760E-03
  149.50      4.13020E-03
  150.50      4.11760E-03
  151.20      4.11720E-03
  151.70      4.06420E-03
  152.50      4.06570E-03
  153.50      3.96750E-03
  154.50      3.74370E-03
  155.50      3.75250E-03
  156.50      3.86630E-03
  157.50      3.88550E-03
  158.50      3.83750E-03
  159.50      3.82520E-03
  160.50      3.75610E-03
  161.50      3.72810E-03
  162.50      3.69110E-03
  163.50      3.65430E-03
  164.50      3.51110E-03
  165.50      3.67870E-03
  166.50      3.65810E-03
  167.20      3.59260E-03
  167.70      3.65480E-03
  168.50      3.63570E-03
  169.50      3.61880E-03
  170.50      3.57850E-03
  171.50      3.49430E-03
  172.50      3.49160E-03
  173.50      3.52790E-03
  174.50      3.49590E-03
  175.50      3.46670E-03
  176.50      3.44690E-03
  177.50      3.43030E-03
  178.50      3.41540E-03
  179.50      3.38190E-03
  180.50      3.36200E-03
  181.50      3.33980E-03
  182.50      3.31670E-03
  183.50      3.29760E-03
  184.50      3.27620E-03
  185.50      3.25000E-03
  186.50      3.23020E-03
  187.50      3.20410E-03
  188.50      3.18230E-03
  189.50      3.17250E-03
  190.50      3.15160E-03
  191.50      3.12860E-03
  192.50      3.08240E-03
  193.50      3.08980E-03
  194.50      3.07080E-03
  195.50      3.04590E-03
  196.70      3.02470E-03
  197.60      3.00240E-03
  198.40      2.99230E-03
  199.50      2.96860E-03
  200.50      2.95230E-03
  201.50      2.93310E-03
  202.50      2.91420E-03
  203.50      2.89390E-03
  204.50      2.86700E-03
  205.50      2.22720E-03
  206.50      2.16450E-03
  207.40      2.22270E-03
  207.80      2.28130E-03
  208.50      2.44970E-03
  209.50      2.70640E-03
  210.50      2.76000E-03
  211.50      2.75560E-03
  212.50      2.73320E-03
  213.50      2.71830E-03
  214.50      2.70460E-03
  215.50      2.72890E-03
  216.50      2.63130E-03
  217.50      2.71120E-03
  218.50      2.61720E-03
  219.50      2.68050E-03
  220.50      2.66480E-03
  221.50      2.56610E-03
  222.50      2.63200E-03
  223.50      2.61710E-03
  224.50      2.59980E-03
  225.50      2.50970E-03
  226.50      2.56730E-03
  227.50      2.55420E-03
  228.50      2.53150E-03
  229.50      2.50200E-03
  230.50      2.43590E-03
  231.50      2.48410E-03
  232.50      2.47540E-03
  233.50      2.46120E-03
  234.50      2.44460E-03
  235.50      2.42910E-03
  236.50      2.41420E-03
  237.50      2.39730E-03
  238.50      2.30880E-03
  239.50      2.35850E-03
  240.50      2.35100E-03
  241.50      2.33370E-03
  242.50      2.32900E-03
  243.50      2.31270E-03
  244.50      2.29990E-03
  245.50      2.27810E-03
  246.50      2.27220E-03
  247.50      2.26150E-03
  248.50      2.24590E-03
  249.50      2.15090E-03
  250.50      2.21330E-03
  251.30      2.07790E-03
  251.80      2.18010E-03
  252.50      2.18510E-03
  253.50      2.18220E-03
  254.50      2.17000E-03
  255.50      2.15700E-03
  256.50      2.14530E-03
  257.50      2.13260E-03
  258.50      2.12010E-03
  259.50      2.09490E-03
  260.50      2.09670E-03
  261.50      2.07780E-03
  262.50      2.07330E-03
  263.50      2.06200E-03
  264.50      2.04850E-03
  265.50      2.03880E-03
  266.50      2.02650E-03
  267.50      2.00760E-03
  268.50      2.00230E-03
  269.50      1.99110E-03
  270.50      1.98280E-03
  271.50      1.97140E-03
  272.50      1.95960E-03
  273.50      1.89770E-03
  274.50      1.93930E-03
  275.50      1.92780E-03
  276.50      1.91750E-03
  277.50      1.90620E-03
  278.50      1.89340E-03
  279.50      1.88240E-03
  280.50      1.87520E-03
  281.50      1.86530E-03
  282.50      1.85340E-03
  283.50      1.84540E-03
  284.50      1.83630E-03
  285.50      1.82640E-03
  286.50      1.81640E-03
  287.50      1.80650E-03
  288.50      1.79730E-03
  289.50      1.78710E-03
  291.00      1.77310E-03
  293.00      1.75500E-03
  295.00      1.73630E-03
  297.00      1.71700E-03
  299.00      1.69610E-03
  301.00      1.68020E-03
  303.00      1.65890E-03
  305.00      1.64410E-03
  307.00      1.62630E-03
  309.00      1.61390E-03
  311.00      1.59750E-03
  313.00      1.58040E-03
  315.00      1.56700E-03
  317.00      1.55060E-03
  319.00      1.53540E-03
  321.00      1.49830E-03
  323.00      1.50670E-03
  325.00      1.49220E-03
  327.00      1.47100E-03
  329.00      1.46220E-03
  331.00      1.44790E-03
  333.00      1.43420E-03
  335.00      1.41760E-03
  337.00      1.40720E-03
  339.00      1.39290E-03
  341.00      1.37900E-03
  343.00      1.36850E-03
  345.00      1.35330E-03
  347.00      1.34330E-03
  349.00      1.33100E-03
  351.00      1.31930E-03
  353.00      1.30640E-03
  355.00      1.29460E-03
  357.00      1.28320E-03
  359.00      1.27140E-03
  361.00      1.26010E-03
  363.00      1.24800E-03
  364.00      1.21870E-03
  365.00      1.11540E-03
  367.00      1.10710E-03
  369.00      1.10160E-03
  371.00      1.10270E-03
  373.00      1.11160E-03
  375.00      1.12840E-03
  377.00      1.14050E-03
  379.00      1.15590E-03
  381.00      1.16850E-03
  383.00      1.12480E-03
  385.00      1.16250E-03
  387.00      1.16390E-03
  389.00      1.08780E-03
  391.00      1.14880E-03
  393.00      1.13120E-03
  395.00      1.13010E-03
  397.00      1.04840E-03
  399.00      1.11130E-03
  401.00      1.10540E-03
  403.00      1.07870E-03
  405.00      1.08860E-03
  407.00      1.07860E-03
  409.00      1.05010E-03
  411.00      1.00110E-03
  413.00      1.05140E-03
  415.00      1.04380E-03
  417.00      1.03600E-03
  419.00      1.02370E-03
  421.00      1.00560E-03
  423.00      1.01120E-03
  425.00      1.00310E-03
  427.00      9.95090E-04
  429.00      9.87180E-04
  431.00      9.78580E-04
  433.00      9.48390E-04
  435.00      9.16800E-04
  437.00      9.55260E-04
  439.00      9.47140E-04
  441.00      9.40810E-04
  443.00      9.33960E-04
  445.00      9.26550E-04
  447.00      9.15420E-04
  449.00      9.12500E-04
  451.00      9.05390E-04
  453.00      8.97500E-04
  455.00      8.77930E-04
  457.00      8.85220E-04
  459.00      8.78560E-04
  461.00      8.71860E-04
  463.00      8.64100E-04
  465.00      8.55030E-04
  467.00      8.51650E-04
  469.00      8.19600E-04
  471.00      8.39290E-04
  473.00      8.34070E-04
  475.00      8.27970E-04
  477.00      8.21890E-04
  479.00      8.15850E-04
  481.00      8.09970E-04
  483.00      8.03810E-04
  485.00      7.84860E-04
  487.00      7.49400E-04
  489.00      7.85960E-04
  491.00      7.81320E-04
  493.00      7.74240E-04
  495.00      7.70320E-04
  497.00      7.64920E-04
  499.00      7.59590E-04
  501.00      7.53380E-04
  503.00      7.48930E-04
  505.00      7.43570E-04
  507.00      7.38630E-04
  509.00      7.33560E-04
  511.00      7.28520E-04
  513.00      7.23500E-04
  515.00      7.18560E-04
  517.00      7.13690E-04
  519.00      7.08840E-04
  521.00      7.04040E-04
  523.00      6.99310E-04
  525.00      6.94540E-04
  527.00      6.89690E-04
  529.00      6.85360E-04
  531.00      6.80800E-04
  533.00      6.76270E-04
  535.00      6.71820E-04
  537.00      6.67380E-04
  539.00      6.63000E-04
  541.00      6.47550E-04
  543.00      6.54310E-04
  545.00      6.50110E-04
  547.00      6.45880E-04
  549.00      6.41720E-04
  551.00      6.37420E-04
  553.00      6.33490E-04
  555.00      6.29440E-04
  557.00      6.25360E-04
  559.00      6.20680E-04
  561.00      6.17500E-04
  563.00      6.13590E-04
  565.00      6.09720E-04
  567.00      6.05890E-04
  569.00      5.94700E-04
  571.00      5.60470E-04
  573.00      5.57220E-04
  575.00      5.54010E-04
  577.00      5.50960E-04
  579.00      5.48220E-04
  581.00      5.45180E-04
  583.00      5.44370E-04
  585.00      5.43400E-04
  587.00      5.40360E-04
  589.00      5.42210E-04
  591.00      5.42180E-04
  593.00      5.42560E-04
  595.00      5.43440E-04
  597.00      5.44260E-04
  599.00      5.45590E-04
  601.00      5.43930E-04
  603.00      5.41820E-04
  605.00      5.40210E-04
  607.00      5.36290E-04
  609.00      5.34020E-04
  611.00      5.30240E-04
  613.00      5.27250E-04
  615.00      5.25000E-04
  617.00      5.19950E-04
  619.00      5.18710E-04
  621.00      5.15880E-04
  623.00      5.10640E-04
  625.00      5.09430E-04
  627.00      5.07000E-04
  629.00      5.04080E-04
  631.00      4.98000E-04
  633.00      4.98130E-04
  635.00      4.95500E-04
  637.00      4.92690E-04
  639.00      4.89700E-04
  641.00      4.83160E-04
  643.00      4.84390E-04
  645.00      4.81670E-04
  647.00      4.78970E-04
  649.00      4.76300E-04
  651.00      4.73420E-04
  653.00      4.65890E-04
  655.00      4.63630E-04
  657.00      4.38500E-04
  659.00      4.62630E-04
  661.00      4.60720E-04
  663.00      4.58200E-04
  665.00      4.55700E-04
  667.00      4.51780E-04
  669.00      4.44760E-04
  671.00      4.48130E-04
  673.00      4.45880E-04
  675.00      4.43460E-04
  677.00      4.41100E-04
  679.00      4.38740E-04
  681.00      4.36390E-04
  683.00      4.34070E-04
  685.00      4.31760E-04
  687.00      4.29460E-04
  689.00      4.21470E-04
  691.00      4.24750E-04
  693.00      4.22700E-04
  695.00      4.20490E-04
  697.00      4.18280E-04
  699.00      4.16100E-04
  701.00      4.13900E-04
  703.00      4.11720E-04
  705.00      4.09590E-04
  707.00      4.06550E-04
  709.00      4.05430E-04
  711.00      4.03330E-04
  713.00      4.01260E-04
  715.00      3.99220E-04
  717.00      3.93410E-04
  719.00      3.93090E-04
  721.00      3.93150E-04
  723.00      3.91160E-04
  725.00      3.89180E-04
  727.00      3.87220E-04
  729.00      3.85010E-04
  731.00      3.83280E-04
  733.00      3.81420E-04
  735.00      3.79510E-04
  737.00      3.77600E-04
  739.00      3.75740E-04
  741.00      3.73850E-04
  743.00      3.72030E-04
  745.00      3.70120E-04
  747.00      3.68380E-04
  749.00      3.66520E-04
  751.00      3.64740E-04
  753.00      3.62990E-04
  755.00      3.61220E-04
  757.00      3.59470E-04
  759.00      3.52450E-04
  761.00      3.55700E-04
  763.00      3.54270E-04
  765.00      3.52560E-04
  767.00      3.50880E-04
  769.00      3.49120E-04
  771.00      3.47500E-04
  773.00      3.45750E-04
  775.00      3.44230E-04
  777.00      3.42590E-04
  779.00      3.40970E-04
  781.00      3.39360E-04
  783.00      3.37760E-04
  785.00      3.36110E-04
  787.00      3.34570E-04
  789.00      3.33020E-04
  791.00      3.31480E-04
  793.00      3.29940E-04
  795.00      3.28410E-04
  797.00      3.26820E-04
  799.00      3.25370E-04
  801.00      3.23870E-04
  803.00      3.22360E-04
  805.00      3.20900E-04
  807.00      3.19420E-04
  809.00      3.17960E-04
  811.00      3.16510E-04
  813.00      3.15070E-04
  815.00      3.13640E-04
  817.00      3.12150E-04
  819.00      3.09490E-04
  821.00      2.96920E-04
  823.00      2.93920E-04
  825.00      2.94060E-04
  827.00      2.93110E-04
  829.00      2.91880E-04
  831.00      2.90650E-04
  833.00      2.89370E-04
  835.00      2.88210E-04
  837.00      2.87060E-04
  839.00      2.85950E-04
  841.00      2.84930E-04
  843.00      2.83930E-04
  845.00      2.82920E-04
  847.00      2.82010E-04
  849.00      2.81240E-04
  851.00      2.80300E-04
  853.00      2.79650E-04
  855.00      2.78550E-04
  857.00      2.78240E-04
  859.00      2.77000E-04
  861.00      2.76250E-04
  863.00      2.76340E-04
  865.00      2.75280E-04
  867.00      2.72920E-04
  869.00      2.74490E-04
  871.00      2.74290E-04
  873.00      2.73210E-04
  875.00      2.68450E-04
  877.00      2.71290E-04
  879.00      2.72140E-04
  881.00      2.71720E-04
  883.00      2.70910E-04
  885.00      2.66780E-04
  887.00      2.60990E-04
  889.00      2.66970E-04
  891.00      2.67010E-04
  893.00      2.65940E-04
  895.00      2.65430E-04
  897.00      2.64100E-04
  899.00      2.61700E-04
  901.00      2.52520E-04
  903.00      2.55520E-04
  905.00      2.59090E-04
  907.00      2.58750E-04
  909.00      2.57860E-04
  911.00      2.56240E-04
  913.00      2.55830E-04
  915.00      2.54800E-04
  917.00      2.53700E-04
  919.00      2.52250E-04
  921.00      2.49000E-04
  923.00      2.38040E-04
  925.00      2.46430E-04
  927.00      2.48070E-04
  929.00      2.47640E-04
  931.00      2.46600E-04
  933.00      2.45400E-04
  935.00      2.39700E-04
  937.00      2.42470E-04
  939.00      2.42660E-04
  941.00      2.41730E-04
  943.00      2.40780E-04
  945.00      2.39820E-04
  947.00      2.38810E-04
  949.00      2.37900E-04
  951.00      2.36260E-04
  953.00      2.32660E-04
  955.00      2.22140E-04
  957.00      2.31880E-04
  959.00      2.32910E-04
  961.00      2.32360E-04
  963.00      2.31400E-04
  965.00      2.30550E-04
  967.00      2.29660E-04
  969.00      2.28760E-04
  971.00      2.27740E-04
  973.00      2.26980E-04
  975.00      2.25790E-04
  977.00      2.23710E-04
  979.00      2.24380E-04
  981.00      2.23520E-04
  983.00      2.22640E-04
  985.00      2.21810E-04
  987.00      2.20960E-04
  989.00      2.20120E-04
  991.00      2.19280E-04
  993.00      2.18450E-04
  995.00      2.17620E-04
  997.00      2.16800E-04
  999.00      2.15980E-04
  1002.5      2.11600E-04
  1007.5      2.08030E-04
  1012.5      2.07330E-04
  1017.5      2.08620E-04
  1022.5      2.06700E-04
  1027.5      2.04780E-04
  1032.5      2.02830E-04
  1037.5      2.01080E-04
  1042.5      1.98220E-04
  1047.5      1.97460E-04
  1052.5      1.95690E-04
  1057.5      1.93940E-04
  1062.5      1.92210E-04
  1067.5      1.90500E-04
  1072.5      1.88830E-04
  1077.5      1.87170E-04
  1082.5      1.85200E-04
  1087.5      1.83850E-04
  1092.5      1.76730E-04
  1097.5      1.79570E-04
  1102.5      1.79170E-04
  1107.5      1.77660E-04
  1112.5      1.76150E-04
  1117.5      1.74760E-04
  1122.5      1.73270E-04
  1127.5      1.71820E-04
  1132.5      1.70370E-04
  1137.5      1.68960E-04
  1142.5      1.67550E-04
  1147.5      1.66160E-04
  1152.5      1.64790E-04
  1157.5      1.63440E-04
  1162.5      1.60520E-04
  1167.5      1.59650E-04
  1172.5      1.59480E-04
  1177.5      1.58190E-04
  1182.5      1.56910E-04
  1187.5      1.55650E-04
  1192.5      1.54410E-04
  1197.5      1.53060E-04
  1202.5      1.51970E-04
  1207.5      1.50770E-04
  1212.5      1.49580E-04
  1217.5      1.48410E-04
  1222.5      1.47250E-04
  1227.5      1.46110E-04
  1232.5      1.44980E-04
  1237.5      1.43860E-04
  1242.5      1.42750E-04
  1247.5      1.41660E-04
  1252.5      1.40560E-04
  1257.5      1.39510E-04
  1262.5      1.38450E-04
  1267.5      1.37410E-04
  1272.5      1.36370E-04
  1277.5      1.34850E-04
  1282.5      1.29730E-04
  1287.5      1.33180E-04
  1292.5      1.32360E-04
  1297.5      1.31340E-04
  1302.5      1.30410E-04
  1307.5      1.29460E-04
  1312.5      1.28510E-04
  1317.5      1.27580E-04
  1322.5      1.26650E-04
  1327.5      1.25740E-04
  1332.5      1.24830E-04
  1337.5      1.23940E-04
  1342.5      1.23050E-04
  1347.5      1.22180E-04
  1352.5      1.21310E-04
  1357.5      1.20450E-04
  1362.5      1.19600E-04
  1367.5      1.18760E-04
  1372.5      1.17930E-04
  1377.5      1.17110E-04
  1382.5      1.16300E-04
  1387.5      1.15490E-04
  1392.5      1.14690E-04
  1397.5      1.13900E-04
