 Castelli and Kurucz 2004-2012 Atmosphere
 T     33000.     G    5.00000 [-1.0a] N(He)/Ntot=0.0784 VTURB=2.0  L/H=1.25 OD
 Wavelength  Eddington Hnu
   (nm)    (ergs/s/cm2/Hz/sr)
  9.0900      5.53360E-32
  9.3500      3.17500E-31
  9.6100      1.66540E-30
  9.7700      4.43280E-30
  9.9600      1.36430E-29
  10.200      5.34010E-29
  10.380      1.43190E-28
  10.560      3.72310E-28
  10.770      1.09390E-27
  11.040      4.13840E-27
  11.400      2.23150E-26
  11.780      1.19660E-25
  12.130      5.16370E-25
  12.480      2.06810E-24
  12.710      4.95560E-24
  12.840      8.01920E-24
  13.050      1.71280E-23
  13.240      3.33970E-23
  13.390      5.58970E-23
  13.660      1.37840E-22
  13.980      3.85280E-22
  14.330      1.12830E-21
  14.720      3.53130E-21
  15.100      1.01780E-20
  15.520      3.09740E-20
  15.880      7.69260E-20
  16.200      1.67300E-19
  16.600      4.24470E-19
  17.030      1.10120E-18
  17.340      2.12960E-18
  17.680      4.27780E-18
  18.020      8.37350E-18
  18.170      1.11780E-17
  18.610      2.54060E-17
  19.100      6.07110E-17
  19.390      9.96070E-17
  19.840      2.08850E-16
  20.180      3.57570E-16
  20.500      5.83760E-16
  21.050      1.31070E-15
  21.620      2.90280E-15
  21.980      4.70200E-15
  22.300      7.12480E-15
  22.680      1.14930E-14
  23.000      4.28570E-12
  23.400      1.42440E-11
  24.000      2.57340E-11
  24.650      4.65000E-11
  25.240      7.84610E-11
  25.680      9.71900E-11
  26.000      1.53750E-10
  26.400      2.03640E-10
  26.850      2.98380E-10
  27.350      4.27280E-10
  27.850      5.76650E-10
  28.400      1.02610E-09
  29.000      1.49330E-09
  29.600      2.06750E-09
  30.100      2.57040E-09
  30.800      4.20060E-09
  31.800      8.81410E-09
  32.800      1.35970E-08
  33.800      2.25890E-08
  34.800      3.47670E-08
  35.700      5.78970E-08
  36.600      9.00620E-08
  37.500      1.18100E-07
  38.500      1.70240E-07
  39.500      2.41220E-07
  40.500      3.17210E-07
  41.400      4.16670E-07
  42.200      4.96090E-07
  43.000      6.05440E-07
  44.100      7.89480E-07
  45.100      9.98500E-07
  46.000      1.18570E-06
  47.000      1.47430E-06
  48.000      1.79380E-06
  49.000      2.14510E-06
  50.000      2.63710E-06
  50.600      8.18950E-06
  51.200      4.05660E-05
  52.000      4.01800E-05
  53.000      4.16960E-05
  54.000      3.92360E-05
  55.000      4.65820E-05
  56.000      5.29680E-05
  57.000      5.66770E-05
  58.000      5.45850E-05
  59.000      6.09570E-05
  60.000      6.01270E-05
  61.000      6.58150E-05
  62.000      7.28770E-05
  63.000      7.57230E-05
  64.000      7.64510E-05
  65.000      8.16750E-05
  65.800      8.12630E-05
  66.500      8.58760E-05
  67.500      8.97860E-05
  68.500      8.77510E-05
  69.500      1.00000E-04
  70.500      9.71190E-05
  71.600      1.09850E-04
  72.600      1.12060E-04
  73.500      1.17030E-04
  74.500      1.21450E-04
  75.500      1.24960E-04
  76.500      1.30080E-04
  77.500      1.35540E-04
  78.500      1.42700E-04
  79.500      1.46340E-04
  80.500      1.49700E-04
  81.500      1.54440E-04
  82.500      1.62170E-04
  83.500      1.54440E-04
  84.500      1.70390E-04
  85.500      1.75120E-04
  86.500      1.82280E-04
  87.500      1.87860E-04
  88.500      1.94230E-04
  89.500      2.00440E-04
  90.500      2.02950E-04
  91.500      2.11080E-04
  92.500      6.02470E-04
  93.500      1.06830E-03
  94.500      1.92460E-03
  95.500      2.30410E-03
  96.500      2.99130E-03
  97.500      1.49000E-03
  98.500      3.04810E-03
  99.500      2.80770E-03
  100.50      2.99890E-03
  101.50      2.96930E-03
  102.50      1.67180E-03
  103.50      2.87720E-03
  104.50      3.25580E-03
  105.50      3.22390E-03
  106.50      2.95220E-03
  107.50      3.05930E-03
  108.50      2.82870E-03
  109.50      3.10880E-03
  110.50      3.01770E-03
  111.50      2.99830E-03
  112.50      2.70060E-03
  113.50      2.98070E-03
  114.50      2.83820E-03
  115.50      2.85410E-03
  116.50      2.85230E-03
  117.50      2.34930E-03
  118.50      2.73510E-03
  119.50      2.68450E-03
  120.50      2.50750E-03
  121.50      1.51890E-03
  122.50      2.52950E-03
  123.50      2.70840E-03
  124.50      2.66880E-03
  125.50      2.69180E-03
  126.50      2.70360E-03
  127.50      2.70590E-03
  128.50      2.69790E-03
  129.50      2.53060E-03
  130.50      2.57860E-03
  131.50      2.64450E-03
  132.50      2.58380E-03
  133.50      2.54680E-03
  134.50      2.54300E-03
  135.50      2.55610E-03
  136.50      2.48680E-03
  137.50      2.48530E-03
  138.50      2.46270E-03
  139.50      2.17330E-03
  140.50      2.21760E-03
  141.50      2.38940E-03
  142.50      2.30140E-03
  143.50      2.35150E-03
  144.20      2.36890E-03
  144.70      2.35180E-03
  145.50      2.31520E-03
  146.50      2.29850E-03
  147.50      2.27890E-03
  148.50      2.28210E-03
  149.50      2.24930E-03
  150.50      2.20110E-03
  151.20      2.20530E-03
  151.70      2.19680E-03
  152.50      2.17210E-03
  153.50      2.04520E-03
  154.50      1.97150E-03
  155.50      1.95530E-03
  156.50      2.00600E-03
  157.50      2.04150E-03
  158.50      2.04970E-03
  159.50      2.04850E-03
  160.50      1.97440E-03
  161.50      1.93460E-03
  162.50      1.94990E-03
  163.50      1.94910E-03
  164.50      1.89580E-03
  165.50      1.97160E-03
  166.50      1.95090E-03
  167.20      1.90900E-03
  167.70      1.99600E-03
  168.50      1.96680E-03
  169.50      1.94250E-03
  170.50      1.91600E-03
  171.50      1.88500E-03
  172.50      1.85430E-03
  173.50      1.89590E-03
  174.50      1.88180E-03
  175.50      1.86430E-03
  176.50      1.84660E-03
  177.50      1.83500E-03
  178.50      1.83230E-03
  179.50      1.82520E-03
  180.50      1.82470E-03
  181.50      1.80030E-03
  182.50      1.78970E-03
  183.50      1.78670E-03
  184.50      1.73250E-03
  185.50      1.72070E-03
  186.50      1.72520E-03
  187.50      1.72160E-03
  188.50      1.67800E-03
  189.50      1.65190E-03
  190.50      1.68170E-03
  191.50      1.64650E-03
  192.50      1.60920E-03
  193.50      1.64130E-03
  194.50      1.65250E-03
  195.50      1.59080E-03
  196.70      1.61970E-03
  197.60      1.63510E-03
  198.40      1.60010E-03
  199.50      1.57120E-03
  200.50      1.59360E-03
  201.50      1.59340E-03
  202.50      1.58920E-03
  203.50      1.56450E-03
  204.50      1.55470E-03
  205.50      1.37770E-03
  206.50      1.34990E-03
  207.40      1.37040E-03
  207.80      1.35680E-03
  208.50      1.38230E-03
  209.50      1.41940E-03
  210.50      1.48720E-03
  211.50      1.50210E-03
  212.50      1.49050E-03
  213.50      1.48530E-03
  214.50      1.47350E-03
  215.50      1.47150E-03
  216.50      1.44880E-03
  217.50      1.45770E-03
  218.50      1.43500E-03
  219.50      1.44330E-03
  220.50      1.43530E-03
  221.50      1.40740E-03
  222.50      1.41660E-03
  223.50      1.40750E-03
  224.50      1.39970E-03
  225.50      1.37150E-03
  226.50      1.38320E-03
  227.50      1.37520E-03
  228.50      1.36120E-03
  229.50      1.31980E-03
  230.50      1.32930E-03
  231.50      1.33870E-03
  232.50      1.33250E-03
  233.50      1.32380E-03
  234.50      1.31780E-03
  235.50      1.30980E-03
  236.50      1.30210E-03
  237.50      1.29290E-03
  238.50      1.26500E-03
  239.50      1.27290E-03
  240.50      1.27080E-03
  241.50      1.26190E-03
  242.50      1.25580E-03
  243.50      1.24550E-03
  244.50      1.24030E-03
  245.50      1.23260E-03
  246.50      1.22720E-03
  247.50      1.21940E-03
  248.50      1.21160E-03
  249.50      1.10690E-03
  250.50      1.19240E-03
  251.30      1.15300E-03
  251.80      1.17280E-03
  252.50      1.18530E-03
  253.50      1.17940E-03
  254.50      1.16510E-03
  255.50      1.16190E-03
  256.50      1.15770E-03
  257.50      1.15240E-03
  258.50      1.14650E-03
  259.50      1.13950E-03
  260.50      1.13790E-03
  261.50      1.13090E-03
  262.50      1.12520E-03
  263.50      1.11860E-03
  264.50      1.11210E-03
  265.50      1.10530E-03
  266.50      1.09600E-03
  267.50      1.08840E-03
  268.50      1.08830E-03
  269.50      1.07480E-03
  270.50      1.07490E-03
  271.50      1.06950E-03
  272.50      1.05690E-03
  273.50      1.04670E-03
  274.50      1.05280E-03
  275.50      1.04730E-03
  276.50      1.03430E-03
  277.50      1.03740E-03
  278.50      1.03090E-03
  279.50      1.01340E-03
  280.50      1.01680E-03
  281.50      1.01570E-03
  282.50      1.00200E-03
  283.50      9.96810E-04
  284.50      1.00020E-03
  285.50      9.93610E-04
  286.50      9.88340E-04
  287.50      9.83340E-04
  288.50      9.78980E-04
  289.50      9.73720E-04
  291.00      9.64840E-04
  293.00      9.56500E-04
  295.00      9.39720E-04
  297.00      9.36950E-04
  299.00      9.26820E-04
  301.00      9.16100E-04
  303.00      9.07100E-04
  305.00      8.99720E-04
  307.00      8.92470E-04
  309.00      8.78490E-04
  311.00      8.74540E-04
  313.00      8.65190E-04
  315.00      8.56840E-04
  317.00      8.49000E-04
  319.00      8.35440E-04
  321.00      8.30370E-04
  323.00      8.25110E-04
  325.00      8.18330E-04
  327.00      8.10100E-04
  329.00      8.02520E-04
  331.00      7.96090E-04
  333.00      7.87880E-04
  335.00      7.79910E-04
  337.00      7.73840E-04
  339.00      7.68010E-04
  341.00      7.61060E-04
  343.00      7.52310E-04
  345.00      7.43100E-04
  347.00      7.38090E-04
  349.00      7.31590E-04
  351.00      7.25960E-04
  353.00      7.20420E-04
  355.00      7.14210E-04
  357.00      7.11740E-04
  359.00      7.00200E-04
  361.00      6.97530E-04
  363.00      6.88540E-04
  364.00      6.90120E-04
  365.00      6.76640E-04
  367.00      6.73720E-04
  369.00      6.68660E-04
  371.00      6.54700E-04
  373.00      6.45620E-04
  375.00      6.40450E-04
  377.00      6.26070E-04
  379.00      6.43950E-04
  381.00      6.67160E-04
  383.00      6.02590E-04
  385.00      6.87720E-04
  387.00      6.99180E-04
  389.00      5.81270E-04
  391.00      6.99990E-04
  393.00      7.00140E-04
  395.00      6.87600E-04
  397.00      5.59940E-04
  399.00      6.74470E-04
  401.00      6.79570E-04
  403.00      6.48680E-04
  405.00      6.76390E-04
  407.00      6.60510E-04
  409.00      6.12370E-04
  411.00      5.53110E-04
  413.00      6.41470E-04
  415.00      6.42880E-04
  417.00      6.44740E-04
  419.00      6.38510E-04
  421.00      6.34450E-04
  423.00      6.30510E-04
  425.00      6.22980E-04
  427.00      6.15600E-04
  429.00      6.10910E-04
  431.00      6.01070E-04
  433.00      5.50660E-04
  435.00      5.12600E-04
  437.00      5.86530E-04
  439.00      5.74100E-04
  441.00      5.82850E-04
  443.00      5.80240E-04
  445.00      5.76300E-04
  447.00      5.47760E-04
  449.00      5.66980E-04
  451.00      5.64310E-04
  453.00      5.60270E-04
  455.00      5.53660E-04
  457.00      5.51020E-04
  459.00      5.46080E-04
  461.00      5.42110E-04
  463.00      5.37790E-04
  465.00      5.26680E-04
  467.00      5.29530E-04
  469.00      5.21940E-04
  471.00      5.14850E-04
  473.00      5.19960E-04
  475.00      5.15780E-04
  477.00      5.12830E-04
  479.00      5.09000E-04
  481.00      5.03680E-04
  483.00      4.96000E-04
  485.00      4.61450E-04
  487.00      4.21990E-04
  489.00      4.83980E-04
  491.00      4.84610E-04
  493.00      4.71230E-04
  495.00      4.79180E-04
  497.00      4.77300E-04
  499.00      4.73900E-04
  501.00      4.64610E-04
  503.00      4.66970E-04
  505.00      4.61740E-04
  507.00      4.60890E-04
  509.00      4.57550E-04
  511.00      4.54430E-04
  513.00      4.51250E-04
  515.00      4.48190E-04
  517.00      4.45020E-04
  519.00      4.42200E-04
  521.00      4.39240E-04
  523.00      4.36330E-04
  525.00      4.33370E-04
  527.00      4.30430E-04
  529.00      4.27630E-04
  531.00      4.24780E-04
  533.00      4.21980E-04
  535.00      4.19180E-04
  537.00      4.16450E-04
  539.00      4.13630E-04
  541.00      4.09650E-04
  543.00      4.08340E-04
  545.00      4.05650E-04
  547.00      4.03040E-04
  549.00      4.00460E-04
  551.00      3.97900E-04
  553.00      3.95350E-04
  555.00      3.92850E-04
  557.00      3.90340E-04
  559.00      3.87780E-04
  561.00      3.85420E-04
  563.00      3.82990E-04
  565.00      3.80550E-04
  567.00      3.78050E-04
  569.00      3.74900E-04
  571.00      3.71990E-04
  573.00      3.69800E-04
  575.00      3.67230E-04
  577.00      3.65330E-04
  579.00      3.63090E-04
  581.00      3.60890E-04
  583.00      3.58610E-04
  585.00      3.56480E-04
  587.00      3.44200E-04
  589.00      3.51290E-04
  591.00      3.50210E-04
  593.00      3.48240E-04
  595.00      3.46510E-04
  597.00      3.44920E-04
  599.00      3.42750E-04
  601.00      3.40840E-04
  603.00      3.38790E-04
  605.00      3.36830E-04
  607.00      3.34880E-04
  609.00      3.32910E-04
  611.00      3.30960E-04
  613.00      3.29030E-04
  615.00      3.27030E-04
  617.00      3.25150E-04
  619.00      3.23330E-04
  621.00      3.21470E-04
  623.00      3.19620E-04
  625.00      3.17760E-04
  627.00      3.15960E-04
  629.00      3.14160E-04
  631.00      3.12350E-04
  633.00      3.10600E-04
  635.00      3.08810E-04
  637.00      3.07110E-04
  639.00      3.05370E-04
  641.00      3.03650E-04
  643.00      3.01970E-04
  645.00      3.00280E-04
  647.00      2.98510E-04
  649.00      2.96860E-04
  651.00      2.94870E-04
  653.00      2.91790E-04
  655.00      2.79990E-04
  657.00      2.53420E-04
  659.00      2.85080E-04
  661.00      2.86400E-04
  663.00      2.85690E-04
  665.00      2.84210E-04
  667.00      2.79740E-04
  669.00      2.78270E-04
  671.00      2.79620E-04
  673.00      2.78040E-04
  675.00      2.76720E-04
  677.00      2.75260E-04
  679.00      2.73640E-04
  681.00      2.72320E-04
  683.00      2.70830E-04
  685.00      2.69450E-04
  687.00      2.68020E-04
  689.00      2.66510E-04
  691.00      2.65060E-04
  693.00      2.63850E-04
  695.00      2.62470E-04
  697.00      2.61110E-04
  699.00      2.59750E-04
  701.00      2.58400E-04
  703.00      2.57050E-04
  705.00      2.55730E-04
  707.00      2.50880E-04
  709.00      2.53130E-04
  711.00      2.51810E-04
  713.00      2.50550E-04
  715.00      2.49290E-04
  717.00      2.47980E-04
  719.00      2.46770E-04
  721.00      2.45530E-04
  723.00      2.43800E-04
  725.00      2.42960E-04
  727.00      2.41850E-04
  729.00      2.38910E-04
  731.00      2.39430E-04
  733.00      2.38250E-04
  735.00      2.37070E-04
  737.00      2.35900E-04
  739.00      2.34740E-04
  741.00      2.33590E-04
  743.00      2.32440E-04
  745.00      2.31320E-04
  747.00      2.30020E-04
  749.00      2.29050E-04
  751.00      2.27910E-04
  753.00      2.26840E-04
  755.00      2.25760E-04
  757.00      2.24670E-04
  759.00      2.23550E-04
  761.00      2.22450E-04
  763.00      2.21450E-04
  765.00      2.20390E-04
  767.00      2.19350E-04
  769.00      2.18290E-04
  771.00      2.17270E-04
  773.00      2.16200E-04
  775.00      2.15220E-04
  777.00      2.14190E-04
  779.00      2.13200E-04
  781.00      2.12120E-04
  783.00      2.11210E-04
  785.00      2.10370E-04
  787.00      2.09300E-04
  789.00      2.08270E-04
  791.00      2.07450E-04
  793.00      2.06480E-04
  795.00      2.05540E-04
  797.00      2.04500E-04
  799.00      2.03640E-04
  801.00      2.02710E-04
  803.00      2.01780E-04
  805.00      2.00840E-04
  807.00      1.99920E-04
  809.00      1.98740E-04
  811.00      1.97640E-04
  813.00      1.97130E-04
  815.00      1.96090E-04
  817.00      1.95360E-04
  819.00      1.94130E-04
  821.00      1.92860E-04
  823.00      1.92160E-04
  825.00      1.91470E-04
  827.00      1.89960E-04
  829.00      1.89770E-04
  831.00      1.89030E-04
  833.00      1.88100E-04
  835.00      1.86690E-04
  837.00      1.86280E-04
  839.00      1.85690E-04
  841.00      1.84870E-04
  843.00      1.84010E-04
  845.00      1.82330E-04
  847.00      1.82440E-04
  849.00      1.81380E-04
  851.00      1.80770E-04
  853.00      1.79660E-04
  855.00      1.78910E-04
  857.00      1.78680E-04
  859.00      1.75620E-04
  861.00      1.76220E-04
  863.00      1.76900E-04
  865.00      1.74250E-04
  867.00      1.71490E-04
  869.00      1.74550E-04
  871.00      1.74950E-04
  873.00      1.71500E-04
  875.00      1.65090E-04
  877.00      1.68700E-04
  879.00      1.72380E-04
  881.00      1.72470E-04
  883.00      1.70700E-04
  885.00      1.63030E-04
  887.00      1.57330E-04
  889.00      1.66840E-04
  891.00      1.69100E-04
  893.00      1.69050E-04
  895.00      1.68660E-04
  897.00      1.67310E-04
  899.00      1.62840E-04
  901.00      1.50680E-04
  903.00      1.55040E-04
  905.00      1.62870E-04
  907.00      1.62840E-04
  909.00      1.63820E-04
  911.00      1.63770E-04
  913.00      1.63190E-04
  915.00      1.62410E-04
  917.00      1.61070E-04
  919.00      1.59420E-04
  921.00      1.52690E-04
  923.00      1.39970E-04
  925.00      1.51240E-04
  927.00      1.56550E-04
  929.00      1.57390E-04
  931.00      1.56690E-04
  933.00      1.56830E-04
  935.00      1.56050E-04
  937.00      1.55790E-04
  939.00      1.55190E-04
  941.00      1.54550E-04
  943.00      1.53910E-04
  945.00      1.53170E-04
  947.00      1.51480E-04
  949.00      1.51180E-04
  951.00      1.48160E-04
  953.00      1.41560E-04
  955.00      1.30090E-04
  957.00      1.43110E-04
  959.00      1.47190E-04
  961.00      1.47510E-04
  963.00      1.46920E-04
  965.00      1.47400E-04
  967.00      1.46850E-04
  969.00      1.46180E-04
  971.00      1.45210E-04
  973.00      1.45140E-04
  975.00      1.44590E-04
  977.00      1.44040E-04
  979.00      1.43480E-04
  981.00      1.42900E-04
  983.00      1.42380E-04
  985.00      1.41820E-04
  987.00      1.41290E-04
  989.00      1.40700E-04
  991.00      1.40030E-04
  993.00      1.39680E-04
  995.00      1.39100E-04
  997.00      1.38240E-04
  999.00      1.37360E-04
  1002.5      1.30460E-04
  1007.5      1.27680E-04
  1012.5      1.33580E-04
  1017.5      1.33410E-04
  1022.5      1.32130E-04
  1027.5      1.30970E-04
  1032.5      1.29260E-04
  1037.5      1.28590E-04
  1042.5      1.27430E-04
  1047.5      1.26280E-04
  1052.5      1.25140E-04
  1057.5      1.24030E-04
  1062.5      1.22920E-04
  1067.5      1.21640E-04
  1072.5      1.20760E-04
  1077.5      1.19700E-04
  1082.5      1.17550E-04
  1087.5      1.16860E-04
  1092.5      1.07070E-04
  1097.5      1.12040E-04
  1102.5      1.13740E-04
  1107.5      1.13460E-04
  1112.5      1.12650E-04
  1117.5      1.11700E-04
  1122.5      1.10710E-04
  1127.5      1.09830E-04
  1132.5      1.08880E-04
  1137.5      1.07990E-04
  1142.5      1.07090E-04
  1147.5      1.06210E-04
  1152.5      1.05340E-04
  1157.5      1.04470E-04
  1162.5      1.03580E-04
  1167.5      1.02750E-04
  1172.5      1.01950E-04
  1177.5      1.01120E-04
  1182.5      1.00310E-04
  1187.5      9.95070E-05
  1192.5      9.87120E-05
  1197.5      9.68210E-05
  1202.5      9.71530E-05
  1207.5      9.63880E-05
  1212.5      9.56310E-05
  1217.5      9.48840E-05
  1222.5      9.41440E-05
  1227.5      9.34140E-05
  1232.5      9.26910E-05
  1237.5      9.19770E-05
  1242.5      9.12730E-05
  1247.5      9.05680E-05
  1252.5      8.97050E-05
  1257.5      8.91950E-05
  1262.5      8.85210E-05
  1267.5      8.78610E-05
  1272.5      8.70010E-05
  1277.5      8.46550E-05
  1282.5      7.88020E-05
  1287.5      8.43100E-05
  1292.5      8.45050E-05
  1297.5      8.33990E-05
  1302.5      8.33870E-05
  1307.5      8.27910E-05
  1312.5      8.21890E-05
  1317.5      8.15920E-05
  1322.5      8.10020E-05
  1327.5      8.04190E-05
  1332.5      7.98400E-05
  1337.5      7.92610E-05
  1342.5      7.86450E-05
  1347.5      7.81430E-05
  1352.5      7.75830E-05
  1357.5      7.70430E-05
  1362.5      7.64850E-05
  1367.5      7.59670E-05
  1372.5      7.54240E-05
  1377.5      7.49120E-05
  1382.5      7.43930E-05
  1387.5      7.38790E-05
  1392.5      7.33620E-05
  1397.5      7.28660E-05
