 Castelli and Kurucz 2004-2012 Atmosphere
 T     34000.     G    5.00000 [-1.0a] N(He)/Ntot=0.0784 VTURB=2.0  L/H=1.25 OD
 Wavelength  Eddington Hnu
   (nm)    (ergs/s/cm2/Hz/sr)
  9.0900      1.71380E-30
  9.3500      9.02090E-30
  9.6100      4.36150E-29
  9.7700      1.10650E-28
  9.9600      3.22230E-28
  10.200      1.17910E-27
  10.380      3.01070E-27
  10.560      7.46310E-27
  10.770      2.07690E-26
  11.040      7.34350E-26
  11.400      3.62990E-25
  11.780      1.78220E-24
  12.130      7.11390E-24
  12.480      2.64310E-23
  12.710      6.03810E-23
  12.840      9.51580E-23
  13.050      1.94900E-22
  13.240      3.66210E-22
  13.390      5.95480E-22
  13.660      1.39580E-21
  13.980      3.68370E-21
  14.330      1.01600E-20
  14.720      2.98230E-20
  15.100      8.10070E-20
  15.520      2.31600E-19
  15.880      5.46760E-19
  16.200      1.13900E-18
  16.600      2.74530E-18
  17.030      6.76060E-18
  17.340      1.26160E-17
  17.680      2.44150E-17
  18.020      4.61080E-17
  18.170      6.06370E-17
  18.610      1.32010E-16
  19.100      3.01580E-16
  19.390      4.82440E-16
  19.840      9.74640E-16
  20.180      1.62460E-15
  20.500      2.58860E-15
  21.050      5.58770E-15
  21.620      1.19060E-14
  21.980      1.88610E-14
  22.300      2.80290E-14
  22.680      4.41710E-14
  23.000      1.95800E-11
  23.400      7.56650E-11
  24.000      1.39410E-10
  24.650      2.46650E-10
  25.240      4.07400E-10
  25.680      4.73640E-10
  26.000      7.84640E-10
  26.400      1.05440E-09
  26.850      1.52590E-09
  27.350      2.09700E-09
  27.850      2.67920E-09
  28.400      4.93750E-09
  29.000      6.92600E-09
  29.600      9.05620E-09
  30.100      1.06220E-08
  30.800      1.86230E-08
  31.800      3.99580E-08
  32.800      5.76290E-08
  33.800      9.22320E-08
  34.800      1.35800E-07
  35.700      2.11410E-07
  36.600      3.21130E-07
  37.500      4.02480E-07
  38.500      5.58140E-07
  39.500      7.61580E-07
  40.500      9.66600E-07
  41.400      1.23250E-06
  42.200      1.42710E-06
  43.000      1.69200E-06
  44.100      2.14890E-06
  45.100      2.64080E-06
  46.000      3.05800E-06
  47.000      3.71290E-06
  48.000      4.42500E-06
  49.000      5.14430E-06
  50.000      6.22850E-06
  50.600      1.69270E-05
  51.200      8.02220E-05
  52.000      7.84200E-05
  53.000      7.94650E-05
  54.000      7.46450E-05
  55.000      8.64870E-05
  56.000      9.94960E-05
  57.000      1.05360E-04
  58.000      1.01410E-04
  59.000      1.11290E-04
  60.000      1.07380E-04
  61.000      1.17340E-04
  62.000      1.30580E-04
  63.000      1.34270E-04
  64.000      1.35830E-04
  65.000      1.42480E-04
  65.800      1.39110E-04
  66.500      1.47900E-04
  67.500      1.55660E-04
  68.500      1.49790E-04
  69.500      1.69060E-04
  70.500      1.61900E-04
  71.600      1.83890E-04
  72.600      1.86830E-04
  73.500      1.94350E-04
  74.500      1.98220E-04
  75.500      2.02710E-04
  76.500      2.09670E-04
  77.500      2.17190E-04
  78.500      2.27220E-04
  79.500      2.32050E-04
  80.500      2.35680E-04
  81.500      2.42670E-04
  82.500      2.53420E-04
  83.500      2.39610E-04
  84.500      2.63860E-04
  85.500      2.69830E-04
  86.500      2.79810E-04
  87.500      2.86520E-04
  88.500      2.94360E-04
  89.500      3.02290E-04
  90.500      3.04740E-04
  91.500      3.10360E-04
  92.500      7.91000E-04
  93.500      1.31750E-03
  94.500      2.21060E-03
  95.500      2.59690E-03
  96.500      3.32420E-03
  97.500      1.78900E-03
  98.500      3.34400E-03
  99.500      3.07850E-03
  100.50      3.27670E-03
  101.50      3.26710E-03
  102.50      1.98240E-03
  103.50      3.19280E-03
  104.50      3.53540E-03
  105.50      3.50710E-03
  106.50      3.24060E-03
  107.50      3.33610E-03
  108.50      3.08820E-03
  109.50      3.38230E-03
  110.50      3.28640E-03
  111.50      3.26800E-03
  112.50      2.96690E-03
  113.50      3.24660E-03
  114.50      3.12020E-03
  115.50      3.11020E-03
  116.50      3.10460E-03
  117.50      2.58700E-03
  118.50      2.97590E-03
  119.50      2.93510E-03
  120.50      2.78090E-03
  121.50      1.78620E-03
  122.50      2.78650E-03
  123.50      2.95080E-03
  124.50      2.90730E-03
  125.50      2.93220E-03
  126.50      2.94590E-03
  127.50      2.94580E-03
  128.50      2.93920E-03
  129.50      2.78290E-03
  130.50      2.82360E-03
  131.50      2.88290E-03
  132.50      2.82250E-03
  133.50      2.78530E-03
  134.50      2.78320E-03
  135.50      2.78570E-03
  136.50      2.72230E-03
  137.50      2.71540E-03
  138.50      2.68950E-03
  139.50      2.40760E-03
  140.50      2.44150E-03
  141.50      2.61530E-03
  142.50      2.51570E-03
  143.50      2.57270E-03
  144.20      2.58510E-03
  144.70      2.56800E-03
  145.50      2.52800E-03
  146.50      2.51440E-03
  147.50      2.49140E-03
  148.50      2.49780E-03
  149.50      2.46150E-03
  150.50      2.42230E-03
  151.20      2.42970E-03
  151.70      2.41610E-03
  152.50      2.38700E-03
  153.50      2.25570E-03
  154.50      2.15940E-03
  155.50      2.14990E-03
  156.50      2.20200E-03
  157.50      2.23960E-03
  158.50      2.24970E-03
  159.50      2.24650E-03
  160.50      2.16480E-03
  161.50      2.12080E-03
  162.50      2.13460E-03
  163.50      2.12890E-03
  164.50      2.06840E-03
  165.50      2.16050E-03
  166.50      2.13600E-03
  167.20      2.08650E-03
  167.70      2.18490E-03
  168.50      2.15370E-03
  169.50      2.13010E-03
  170.50      2.10240E-03
  171.50      2.06840E-03
  172.50      2.03520E-03
  173.50      2.08260E-03
  174.50      2.06710E-03
  175.50      2.04500E-03
  176.50      2.03180E-03
  177.50      2.02000E-03
  178.50      2.01630E-03
  179.50      2.00290E-03
  180.50      2.00110E-03
  181.50      1.97910E-03
  182.50      1.96470E-03
  183.50      1.96380E-03
  184.50      1.91670E-03
  185.50      1.90140E-03
  186.50      1.90060E-03
  187.50      1.89230E-03
  188.50      1.85720E-03
  189.50      1.83670E-03
  190.50      1.85890E-03
  191.50      1.82500E-03
  192.50      1.78280E-03
  193.50      1.81450E-03
  194.50      1.82200E-03
  195.50      1.76480E-03
  196.70      1.78830E-03
  197.60      1.79750E-03
  198.40      1.76740E-03
  199.50      1.73850E-03
  200.50      1.75770E-03
  201.50      1.75360E-03
  202.50      1.74590E-03
  203.50      1.72460E-03
  204.50      1.71330E-03
  205.50      1.48020E-03
  206.50      1.44450E-03
  207.40      1.46240E-03
  207.80      1.45580E-03
  208.50      1.49140E-03
  209.50      1.55330E-03
  210.50      1.63490E-03
  211.50      1.65100E-03
  212.50      1.63520E-03
  213.50      1.63090E-03
  214.50      1.61960E-03
  215.50      1.61790E-03
  216.50      1.58710E-03
  217.50      1.60370E-03
  218.50      1.57270E-03
  219.50      1.58730E-03
  220.50      1.57890E-03
  221.50      1.54090E-03
  222.50      1.55830E-03
  223.50      1.54900E-03
  224.50      1.53880E-03
  225.50      1.50160E-03
  226.50      1.52100E-03
  227.50      1.51220E-03
  228.50      1.49620E-03
  229.50      1.45170E-03
  230.50      1.45520E-03
  231.50      1.47130E-03
  232.50      1.46520E-03
  233.50      1.45610E-03
  234.50      1.44850E-03
  235.50      1.43930E-03
  236.50      1.43090E-03
  237.50      1.42080E-03
  238.50      1.38290E-03
  239.50      1.39740E-03
  240.50      1.39630E-03
  241.50      1.38650E-03
  242.50      1.37970E-03
  243.50      1.36900E-03
  244.50      1.36280E-03
  245.50      1.35370E-03
  246.50      1.34780E-03
  247.50      1.33940E-03
  248.50      1.33060E-03
  249.50      1.21350E-03
  250.50      1.30850E-03
  251.30      1.25710E-03
  251.80      1.28500E-03
  252.50      1.30130E-03
  253.50      1.29470E-03
  254.50      1.28120E-03
  255.50      1.27630E-03
  256.50      1.27110E-03
  257.50      1.26500E-03
  258.50      1.25830E-03
  259.50      1.25010E-03
  260.50      1.24800E-03
  261.50      1.24010E-03
  262.50      1.23390E-03
  263.50      1.22690E-03
  264.50      1.21950E-03
  265.50      1.21210E-03
  266.50      1.20240E-03
  267.50      1.19360E-03
  268.50      1.19290E-03
  269.50      1.17950E-03
  270.50      1.17880E-03
  271.50      1.17250E-03
  272.50      1.15940E-03
  273.50      1.14300E-03
  274.50      1.15400E-03
  275.50      1.14790E-03
  276.50      1.13420E-03
  277.50      1.13670E-03
  278.50      1.12950E-03
  279.50      1.11180E-03
  280.50      1.11460E-03
  281.50      1.11240E-03
  282.50      1.09840E-03
  283.50      1.09330E-03
  284.50      1.09530E-03
  285.50      1.08830E-03
  286.50      1.08230E-03
  287.50      1.07670E-03
  288.50      1.07180E-03
  289.50      1.06590E-03
  291.00      1.05620E-03
  293.00      1.04700E-03
  295.00      1.02920E-03
  297.00      1.02510E-03
  299.00      1.01360E-03
  301.00      1.00230E-03
  303.00      9.91610E-04
  305.00      9.83420E-04
  307.00      9.75560E-04
  309.00      9.61040E-04
  311.00      9.55680E-04
  313.00      9.45540E-04
  315.00      9.36090E-04
  317.00      9.27370E-04
  319.00      9.13160E-04
  321.00      9.05290E-04
  323.00      9.01280E-04
  325.00      8.93630E-04
  327.00      8.83970E-04
  329.00      8.76110E-04
  331.00      8.68780E-04
  333.00      8.59740E-04
  335.00      8.50780E-04
  337.00      8.44210E-04
  339.00      8.37660E-04
  341.00      8.29970E-04
  343.00      8.20610E-04
  345.00      8.10520E-04
  347.00      8.05010E-04
  349.00      7.97840E-04
  351.00      7.91430E-04
  353.00      7.85310E-04
  355.00      7.78250E-04
  357.00      7.75110E-04
  359.00      7.63010E-04
  361.00      7.59610E-04
  363.00      7.50020E-04
  364.00      7.50270E-04
  365.00      7.31910E-04
  367.00      7.28290E-04
  369.00      7.22710E-04
  371.00      7.08690E-04
  373.00      7.00450E-04
  375.00      6.95260E-04
  377.00      6.80650E-04
  379.00      6.98330E-04
  381.00      7.21820E-04
  383.00      6.55790E-04
  385.00      7.40860E-04
  387.00      7.51480E-04
  389.00      6.32420E-04
  391.00      7.51460E-04
  393.00      7.50760E-04
  395.00      7.37740E-04
  397.00      6.08830E-04
  399.00      7.24310E-04
  401.00      7.28080E-04
  403.00      6.97050E-04
  405.00      7.24100E-04
  407.00      7.08360E-04
  409.00      6.59700E-04
  411.00      5.99100E-04
  413.00      6.88090E-04
  415.00      6.88700E-04
  417.00      6.90000E-04
  419.00      6.82770E-04
  421.00      6.77530E-04
  423.00      6.74420E-04
  425.00      6.66720E-04
  427.00      6.59320E-04
  429.00      6.54180E-04
  431.00      6.44090E-04
  433.00      5.93400E-04
  435.00      5.54500E-04
  437.00      6.28610E-04
  439.00      6.15640E-04
  441.00      6.23790E-04
  443.00      6.20710E-04
  445.00      6.16510E-04
  447.00      5.87970E-04
  449.00      6.06470E-04
  451.00      6.03170E-04
  453.00      5.98800E-04
  455.00      5.90830E-04
  457.00      5.89290E-04
  459.00      5.83910E-04
  461.00      5.79590E-04
  463.00      5.74560E-04
  465.00      5.62660E-04
  467.00      5.66090E-04
  469.00      5.55790E-04
  471.00      5.51160E-04
  473.00      5.55700E-04
  475.00      5.51310E-04
  477.00      5.47890E-04
  479.00      5.43810E-04
  481.00      5.38440E-04
  483.00      5.30670E-04
  485.00      4.95940E-04
  487.00      4.55580E-04
  489.00      5.17760E-04
  491.00      5.17960E-04
  493.00      5.04530E-04
  495.00      5.11980E-04
  497.00      5.09740E-04
  499.00      5.06110E-04
  501.00      4.96710E-04
  503.00      4.98640E-04
  505.00      4.93290E-04
  507.00      4.92120E-04
  509.00      4.88580E-04
  511.00      4.85220E-04
  513.00      4.81870E-04
  515.00      4.78540E-04
  517.00      4.75140E-04
  519.00      4.72080E-04
  521.00      4.68910E-04
  523.00      4.65760E-04
  525.00      4.62550E-04
  527.00      4.59410E-04
  529.00      4.56420E-04
  531.00      4.53370E-04
  533.00      4.50380E-04
  535.00      4.47360E-04
  537.00      4.44430E-04
  539.00      4.41410E-04
  541.00      4.36320E-04
  543.00      4.35730E-04
  545.00      4.32860E-04
  547.00      4.30040E-04
  549.00      4.27270E-04
  551.00      4.24510E-04
  553.00      4.21780E-04
  555.00      4.19090E-04
  557.00      4.16410E-04
  559.00      4.13610E-04
  561.00      4.11130E-04
  563.00      4.08520E-04
  565.00      4.05920E-04
  567.00      4.03260E-04
  569.00      3.99590E-04
  571.00      3.95480E-04
  573.00      3.93140E-04
  575.00      3.90490E-04
  577.00      3.88400E-04
  579.00      3.86020E-04
  581.00      3.83670E-04
  583.00      3.81260E-04
  585.00      3.79040E-04
  587.00      3.66800E-04
  589.00      3.73730E-04
  591.00      3.72570E-04
  593.00      3.70570E-04
  595.00      3.68540E-04
  597.00      3.66670E-04
  599.00      3.64650E-04
  601.00      3.63240E-04
  603.00      3.61150E-04
  605.00      3.59060E-04
  607.00      3.56960E-04
  609.00      3.54850E-04
  611.00      3.52760E-04
  613.00      3.50690E-04
  615.00      3.48560E-04
  617.00      3.46570E-04
  619.00      3.44580E-04
  621.00      3.42590E-04
  623.00      3.40600E-04
  625.00      3.38630E-04
  627.00      3.36690E-04
  629.00      3.34760E-04
  631.00      3.32820E-04
  633.00      3.30950E-04
  635.00      3.29040E-04
  637.00      3.27200E-04
  639.00      3.25350E-04
  641.00      3.23500E-04
  643.00      3.21700E-04
  645.00      3.19890E-04
  647.00      3.18010E-04
  649.00      3.16240E-04
  651.00      3.14190E-04
  653.00      3.10910E-04
  655.00      2.99240E-04
  657.00      2.72260E-04
  659.00      3.04080E-04
  661.00      3.05190E-04
  663.00      3.04300E-04
  665.00      3.02690E-04
  667.00      2.98060E-04
  669.00      2.96450E-04
  671.00      2.97720E-04
  673.00      2.96100E-04
  675.00      2.94640E-04
  677.00      2.93090E-04
  679.00      2.91410E-04
  681.00      2.89950E-04
  683.00      2.88370E-04
  685.00      2.86880E-04
  687.00      2.85350E-04
  689.00      2.83710E-04
  691.00      2.82200E-04
  693.00      2.80880E-04
  695.00      2.79410E-04
  697.00      2.77950E-04
  699.00      2.76500E-04
  701.00      2.75050E-04
  703.00      2.73590E-04
  705.00      2.72190E-04
  707.00      2.67270E-04
  709.00      2.69420E-04
  711.00      2.68010E-04
  713.00      2.66650E-04
  715.00      2.65310E-04
  717.00      2.63840E-04
  719.00      2.62590E-04
  721.00      2.61280E-04
  723.00      2.59570E-04
  725.00      2.58560E-04
  727.00      2.57350E-04
  729.00      2.54350E-04
  731.00      2.54760E-04
  733.00      2.53510E-04
  735.00      2.52240E-04
  737.00      2.50990E-04
  739.00      2.49750E-04
  741.00      2.48520E-04
  743.00      2.47290E-04
  745.00      2.46090E-04
  747.00      2.44750E-04
  749.00      2.43640E-04
  751.00      2.42450E-04
  753.00      2.41310E-04
  755.00      2.40150E-04
  757.00      2.38980E-04
  759.00      2.37650E-04
  761.00      2.36610E-04
  763.00      2.35540E-04
  765.00      2.34410E-04
  767.00      2.33290E-04
  769.00      2.32150E-04
  771.00      2.31070E-04
  773.00      2.29910E-04
  775.00      2.28880E-04
  777.00      2.27800E-04
  779.00      2.26730E-04
  781.00      2.25580E-04
  783.00      2.24600E-04
  785.00      2.23690E-04
  787.00      2.22560E-04
  789.00      2.21470E-04
  791.00      2.20570E-04
  793.00      2.19540E-04
  795.00      2.18530E-04
  797.00      2.17430E-04
  799.00      2.16500E-04
  801.00      2.15520E-04
  803.00      2.14510E-04
  805.00      2.13540E-04
  807.00      2.12550E-04
  809.00      2.11380E-04
  811.00      2.10210E-04
  813.00      2.09600E-04
  815.00      2.08500E-04
  817.00      2.07700E-04
  819.00      2.06370E-04
  821.00      2.04820E-04
  823.00      2.03950E-04
  825.00      2.03270E-04
  827.00      2.01800E-04
  829.00      2.01510E-04
  831.00      2.00700E-04
  833.00      1.99720E-04
  835.00      1.98290E-04
  837.00      1.97810E-04
  839.00      1.97160E-04
  841.00      1.96290E-04
  843.00      1.95370E-04
  845.00      1.93710E-04
  847.00      1.93720E-04
  849.00      1.92630E-04
  851.00      1.91930E-04
  853.00      1.90820E-04
  855.00      1.90040E-04
  857.00      1.89710E-04
  859.00      1.86740E-04
  861.00      1.87240E-04
  863.00      1.87780E-04
  865.00      1.85190E-04
  867.00      1.82540E-04
  869.00      1.85310E-04
  871.00      1.85600E-04
  873.00      1.82240E-04
  875.00      1.76090E-04
  877.00      1.79420E-04
  879.00      1.82860E-04
  881.00      1.82900E-04
  883.00      1.81120E-04
  885.00      1.73610E-04
  887.00      1.68060E-04
  889.00      1.77190E-04
  891.00      1.79330E-04
  893.00      1.79220E-04
  895.00      1.78770E-04
  897.00      1.77400E-04
  899.00      1.72970E-04
  901.00      1.61000E-04
  903.00      1.65200E-04
  905.00      1.72820E-04
  907.00      1.72740E-04
  909.00      1.73640E-04
  911.00      1.73530E-04
  913.00      1.72900E-04
  915.00      1.72080E-04
  917.00      1.70720E-04
  919.00      1.69060E-04
  921.00      1.62380E-04
  923.00      1.49780E-04
  925.00      1.60840E-04
  927.00      1.66040E-04
  929.00      1.66790E-04
  931.00      1.66060E-04
  933.00      1.66180E-04
  935.00      1.65090E-04
  937.00      1.65000E-04
  939.00      1.64370E-04
  941.00      1.63680E-04
  943.00      1.63010E-04
  945.00      1.62270E-04
  947.00      1.60550E-04
  949.00      1.60200E-04
  951.00      1.57180E-04
  953.00      1.50610E-04
  955.00      1.39210E-04
  957.00      1.52060E-04
  959.00      1.56040E-04
  961.00      1.56310E-04
  963.00      1.55690E-04
  965.00      1.56110E-04
  967.00      1.55510E-04
  969.00      1.54800E-04
  971.00      1.53740E-04
  973.00      1.53690E-04
  975.00      1.53110E-04
  977.00      1.52520E-04
  979.00      1.51930E-04
  981.00      1.51320E-04
  983.00      1.50760E-04
  985.00      1.50170E-04
  987.00      1.49610E-04
  989.00      1.49000E-04
  991.00      1.48300E-04
  993.00      1.47890E-04
  995.00      1.47310E-04
  997.00      1.46410E-04
  999.00      1.45510E-04
  1002.5      1.38620E-04
  1007.5      1.35760E-04
  1012.5      1.41330E-04
  1017.5      1.41230E-04
  1022.5      1.39880E-04
  1027.5      1.38640E-04
  1032.5      1.36870E-04
  1037.5      1.36120E-04
  1042.5      1.34890E-04
  1047.5      1.33670E-04
  1052.5      1.32460E-04
  1057.5      1.31280E-04
  1062.5      1.30110E-04
  1067.5      1.28770E-04
  1072.5      1.27810E-04
  1077.5      1.26690E-04
  1082.5      1.24520E-04
  1087.5      1.23750E-04
  1092.5      1.13980E-04
  1097.5      1.18850E-04
  1102.5      1.20460E-04
  1107.5      1.20110E-04
  1112.5      1.19210E-04
  1117.5      1.18200E-04
  1122.5      1.17160E-04
  1127.5      1.16210E-04
  1132.5      1.15220E-04
  1137.5      1.14270E-04
  1142.5      1.13320E-04
  1147.5      1.12380E-04
  1152.5      1.11460E-04
  1157.5      1.10540E-04
  1162.5      1.09540E-04
  1167.5      1.08700E-04
  1172.5      1.07860E-04
  1177.5      1.06990E-04
  1182.5      1.06120E-04
  1187.5      1.05270E-04
  1192.5      1.04430E-04
  1197.5      1.02520E-04
  1202.5      1.02780E-04
  1207.5      1.01960E-04
  1212.5      1.01160E-04
  1217.5      1.00370E-04
  1222.5      9.95860E-05
  1227.5      9.88120E-05
  1232.5      9.80470E-05
  1237.5      9.72890E-05
  1242.5      9.65430E-05
  1247.5      9.57980E-05
  1252.5      9.49000E-05
  1257.5      9.43430E-05
  1262.5      9.36280E-05
  1267.5      9.29270E-05
  1272.5      9.20510E-05
  1277.5      8.96880E-05
  1282.5      8.38440E-05
  1287.5      8.92540E-05
  1292.5      8.93840E-05
  1297.5      8.82770E-05
  1302.5      8.81880E-05
  1307.5      8.75550E-05
  1312.5      8.69170E-05
  1317.5      8.62850E-05
  1322.5      8.56600E-05
  1327.5      8.50420E-05
  1332.5      8.44290E-05
  1337.5      8.38170E-05
  1342.5      8.31700E-05
  1347.5      8.26320E-05
  1352.5      8.20400E-05
  1357.5      8.14670E-05
  1362.5      8.08790E-05
  1367.5      8.03270E-05
  1372.5      7.97530E-05
  1377.5      7.92100E-05
  1382.5      7.86600E-05
  1387.5      7.81150E-05
  1392.5      7.75690E-05
  1397.5      7.70430E-05
