 Castelli and Kurucz 2004-2012 Atmosphere
 T     37000.     G    4.00000 [-1.0a] N(He)/Ntot=0.0784 VTURB=2.0  L/H=1.25 OD
 Wavelength  Eddington Hnu
   (nm)    (ergs/s/cm2/Hz/sr)
  9.0900      2.77620E-27
  9.3500      1.18670E-26
  9.6100      4.73000E-26
  9.7700      1.07790E-25
  9.9600      2.77590E-25
  10.200      8.78120E-25
  10.380      2.02380E-24
  10.560      4.55080E-24
  10.770      1.13680E-23
  11.040      3.52940E-23
  11.400      1.48600E-22
  11.780      6.23190E-22
  12.130      2.17180E-21
  12.480      7.09750E-21
  12.710      1.49600E-20
  12.840      2.25500E-20
  13.050      4.30530E-20
  13.240      7.60120E-20
  13.390      1.17840E-19
  13.660      2.53570E-19
  13.980      6.07500E-19
  14.330      1.51160E-18
  14.720      3.95830E-18
  15.100      9.74470E-18
  15.520      2.49700E-17
  15.880      5.38400E-17
  16.200      1.03640E-16
  16.600      2.27590E-16
  17.030      5.08210E-16
  17.340      8.85820E-16
  17.680      1.59570E-15
  18.020      2.80960E-15
  18.170      3.57830E-15
  18.610      7.16180E-15
  19.100      1.49250E-14
  19.390      2.26690E-14
  19.840      4.23450E-14
  20.180      6.66560E-14
  20.500      1.00880E-13
  21.050      1.99930E-13
  21.620      3.91510E-13
  21.980      5.89920E-13
  22.300      8.39020E-13
  22.680      1.25490E-12
  23.000      1.41950E-09
  23.400      6.58100E-09
  24.000      1.21490E-08
  24.650      2.52080E-08
  25.240      7.33030E-08
  25.680      7.03540E-08
  26.000      2.13800E-07
  26.400      1.20350E-06
  26.850      2.17710E-06
  27.350      2.87520E-06
  27.850      2.01020E-06
  28.400      5.31690E-06
  29.000      6.91190E-06
  29.600      3.81820E-06
  30.100      8.20430E-07
  30.800      4.36630E-06
  31.800      7.07100E-06
  32.800      1.12100E-05
  33.800      1.11820E-05
  34.800      1.37330E-05
  35.700      2.79200E-05
  36.600      4.69800E-05
  37.500      5.64480E-05
  38.500      6.06740E-05
  39.500      8.23370E-05
  40.500      1.03950E-04
  41.400      1.10340E-04
  42.200      1.10800E-04
  43.000      1.08430E-04
  44.100      1.26050E-04
  45.100      1.37310E-04
  46.000      1.31970E-04
  47.000      1.38810E-04
  48.000      1.54980E-04
  49.000      1.39270E-04
  50.000      1.75130E-04
  50.600      2.06340E-04
  51.200      4.51690E-04
  52.000      4.33630E-04
  53.000      4.13420E-04
  54.000      3.94630E-04
  55.000      3.82640E-04
  56.000      4.99560E-04
  57.000      5.51340E-04
  58.000      5.44570E-04
  59.000      5.75550E-04
  60.000      5.13740E-04
  61.000      5.36630E-04
  62.000      6.51600E-04
  63.000      6.48260E-04
  64.000      6.97020E-04
  65.000      6.87930E-04
  65.800      6.32500E-04
  66.500      7.14350E-04
  67.500      7.70930E-04
  68.500      7.17650E-04
  69.500      7.93410E-04
  70.500      7.06670E-04
  71.600      8.47090E-04
  72.600      8.67250E-04
  73.500      8.90730E-04
  74.500      8.70760E-04
  75.500      8.79020E-04
  76.500      8.78990E-04
  77.500      9.20400E-04
  78.500      8.97820E-04
  79.500      9.50350E-04
  80.500      9.58220E-04
  81.500      9.82200E-04
  82.500      1.01070E-03
  83.500      9.18130E-04
  84.500      1.02740E-03
  85.500      1.02600E-03
  86.500      1.06460E-03
  87.500      1.08040E-03
  88.500      1.08840E-03
  89.500      1.10140E-03
  90.500      1.09790E-03
  91.500      9.92880E-04
  92.500      1.91400E-03
  93.500      2.49990E-03
  94.500      2.88040E-03
  95.500      3.14370E-03
  96.500      3.40310E-03
  97.500      2.71350E-03
  98.500      3.25080E-03
  99.500      3.10180E-03
  100.50      3.16530E-03
  101.50      3.27260E-03
  102.50      2.91280E-03
  103.50      3.30190E-03
  104.50      3.38470E-03
  105.50      3.37320E-03
  106.50      3.26840E-03
  107.50      3.29940E-03
  108.50      3.20270E-03
  109.50      3.32150E-03
  110.50      3.27210E-03
  111.50      3.25200E-03
  112.50      3.12950E-03
  113.50      3.25900E-03
  114.50      3.24730E-03
  115.50      3.17090E-03
  116.50      3.16440E-03
  117.50      2.84940E-03
  118.50      3.07350E-03
  119.50      3.06350E-03
  120.50      3.04410E-03
  121.50      2.65510E-03
  122.50      3.02540E-03
  123.50      3.04990E-03
  124.50      3.01850E-03
  125.50      3.05010E-03
  126.50      3.05670E-03
  127.50      3.06050E-03
  128.50      3.05860E-03
  129.50      3.01390E-03
  130.50      2.99750E-03
  131.50      3.01600E-03
  132.50      2.98960E-03
  133.50      2.97870E-03
  134.50      2.97680E-03
  135.50      2.93340E-03
  136.50      2.89460E-03
  137.50      2.86180E-03
  138.50      2.87040E-03
  139.50      2.76420E-03
  140.50      2.71520E-03
  141.50      2.83900E-03
  142.50      2.75240E-03
  143.50      2.80080E-03
  144.20      2.77600E-03
  144.70      2.77140E-03
  145.50      2.73540E-03
  146.50      2.73890E-03
  147.50      2.73030E-03
  148.50      2.74510E-03
  149.50      2.71040E-03
  150.50      2.71970E-03
  151.20      2.72270E-03
  151.70      2.69420E-03
  152.50      2.67680E-03
  153.50      2.57670E-03
  154.50      2.40200E-03
  155.50      2.42110E-03
  156.50      2.50680E-03
  157.50      2.55200E-03
  158.50      2.54500E-03
  159.50      2.53920E-03
  160.50      2.46480E-03
  161.50      2.43910E-03
  162.50      2.42940E-03
  163.50      2.42430E-03
  164.50      2.35120E-03
  165.50      2.46050E-03
  166.50      2.43610E-03
  167.20      2.37860E-03
  167.70      2.47730E-03
  168.50      2.45370E-03
  169.50      2.44400E-03
  170.50      2.41620E-03
  171.50      2.36790E-03
  172.50      2.35980E-03
  173.50      2.40460E-03
  174.50      2.38770E-03
  175.50      2.36240E-03
  176.50      2.36100E-03
  177.50      2.35480E-03
  178.50      2.34950E-03
  179.50      2.32230E-03
  180.50      2.31800E-03
  181.50      2.30470E-03
  182.50      2.28790E-03
  183.50      2.28830E-03
  184.50      2.27110E-03
  185.50      2.25560E-03
  186.50      2.24230E-03
  187.50      2.22340E-03
  188.50      2.21340E-03
  189.50      2.21600E-03
  190.50      2.20790E-03
  191.50      2.19320E-03
  192.50      2.15220E-03
  193.50      2.17210E-03
  194.50      2.16160E-03
  195.50      2.13750E-03
  196.70      2.13270E-03
  197.60      2.12240E-03
  198.40      2.11460E-03
  199.50      2.09980E-03
  200.50      2.09240E-03
  201.50      2.08070E-03
  202.50      2.06870E-03
  203.50      2.05660E-03
  204.50      2.04100E-03
  205.50      1.61560E-03
  206.50      1.58220E-03
  207.40      1.64080E-03
  207.80      1.69120E-03
  208.50      1.83910E-03
  209.50      1.97500E-03
  210.50      1.97430E-03
  211.50      1.97710E-03
  212.50      1.95930E-03
  213.50      1.95500E-03
  214.50      1.94640E-03
  215.50      1.96270E-03
  216.50      1.90220E-03
  217.50      1.94740E-03
  218.50      1.89620E-03
  219.50      1.92820E-03
  220.50      1.91750E-03
  221.50      1.86500E-03
  222.50      1.89590E-03
  223.50      1.88640E-03
  224.50      1.87540E-03
  225.50      1.82750E-03
  226.50      1.85490E-03
  227.50      1.84610E-03
  228.50      1.82980E-03
  229.50      1.79710E-03
  230.50      1.77850E-03
  231.50      1.80120E-03
  232.50      1.79530E-03
  233.50      1.78620E-03
  234.50      1.77550E-03
  235.50      1.76550E-03
  236.50      1.75580E-03
  237.50      1.74440E-03
  238.50      1.69180E-03
  239.50      1.71660E-03
  240.50      1.71610E-03
  241.50      1.70470E-03
  242.50      1.70030E-03
  243.50      1.68940E-03
  244.50      1.68110E-03
  245.50      1.66770E-03
  246.50      1.66320E-03
  247.50      1.65590E-03
  248.50      1.64430E-03
  249.50      1.50460E-03
  250.50      1.62220E-03
  251.30      1.54440E-03
  251.80      1.59680E-03
  252.50      1.60850E-03
  253.50      1.60370E-03
  254.50      1.59530E-03
  255.50      1.58610E-03
  256.50      1.57860E-03
  257.50      1.57060E-03
  258.50      1.56260E-03
  259.50      1.54730E-03
  260.50      1.54670E-03
  261.50      1.53570E-03
  262.50      1.53100E-03
  263.50      1.52360E-03
  264.50      1.51450E-03
  265.50      1.50780E-03
  266.50      1.49910E-03
  267.50      1.48640E-03
  268.50      1.48320E-03
  269.50      1.47520E-03
  270.50      1.47040E-03
  271.50      1.46220E-03
  272.50      1.45350E-03
  273.50      1.41810E-03
  274.50      1.44100E-03
  275.50      1.43300E-03
  276.50      1.42440E-03
  277.50      1.41870E-03
  278.50      1.41010E-03
  279.50      1.39920E-03
  280.50      1.39670E-03
  281.50      1.39030E-03
  282.50      1.38140E-03
  283.50      1.37620E-03
  284.50      1.37080E-03
  285.50      1.36390E-03
  286.50      1.35690E-03
  287.50      1.35030E-03
  288.50      1.34390E-03
  289.50      1.33690E-03
  291.00      1.32660E-03
  293.00      1.31460E-03
  295.00      1.30050E-03
  297.00      1.28800E-03
  299.00      1.27310E-03
  301.00      1.26210E-03
  303.00      1.24640E-03
  305.00      1.23680E-03
  307.00      1.22670E-03
  309.00      1.21550E-03
  311.00      1.20420E-03
  313.00      1.19270E-03
  315.00      1.18310E-03
  317.00      1.17180E-03
  319.00      1.15980E-03
  321.00      1.13770E-03
  323.00      1.14100E-03
  325.00      1.13090E-03
  327.00      1.11530E-03
  329.00      1.10940E-03
  331.00      1.09920E-03
  333.00      1.08950E-03
  335.00      1.07740E-03
  337.00      1.07030E-03
  339.00      1.06120E-03
  341.00      1.05150E-03
  343.00      1.04360E-03
  345.00      1.03200E-03
  347.00      1.02550E-03
  349.00      1.01630E-03
  351.00      1.00780E-03
  353.00      9.98490E-04
  355.00      9.89720E-04
  357.00      9.82530E-04
  359.00      9.72820E-04
  361.00      9.64970E-04
  363.00      9.55810E-04
  364.00      9.38970E-04
  365.00      8.73680E-04
  367.00      8.67740E-04
  369.00      8.64160E-04
  371.00      8.63430E-04
  373.00      8.67860E-04
  375.00      8.82990E-04
  377.00      8.88180E-04
  379.00      8.98710E-04
  381.00      9.11020E-04
  383.00      8.71990E-04
  385.00      9.08340E-04
  387.00      9.06010E-04
  389.00      8.49650E-04
  391.00      8.96690E-04
  393.00      8.83020E-04
  395.00      8.81680E-04
  397.00      8.19460E-04
  399.00      8.68860E-04
  401.00      8.61870E-04
  403.00      8.42890E-04
  405.00      8.50400E-04
  407.00      8.41800E-04
  409.00      8.22540E-04
  411.00      7.83580E-04
  413.00      8.21890E-04
  415.00      8.15620E-04
  417.00      8.11110E-04
  419.00      8.03190E-04
  421.00      7.90920E-04
  423.00      7.92870E-04
  425.00      7.86460E-04
  427.00      7.80440E-04
  429.00      7.74590E-04
  431.00      7.68110E-04
  433.00      7.47960E-04
  435.00      7.20600E-04
  437.00      7.51180E-04
  439.00      7.42560E-04
  441.00      7.39600E-04
  443.00      7.34680E-04
  445.00      7.29420E-04
  447.00      7.17740E-04
  449.00      7.18660E-04
  451.00      7.13110E-04
  453.00      7.07940E-04
  455.00      6.95440E-04
  457.00      6.98270E-04
  459.00      6.92920E-04
  461.00      6.87960E-04
  463.00      6.81800E-04
  465.00      6.72030E-04
  467.00      6.72680E-04
  469.00      6.50970E-04
  471.00      6.61730E-04
  473.00      6.59690E-04
  475.00      6.55050E-04
  477.00      6.50440E-04
  479.00      6.45930E-04
  481.00      6.41370E-04
  483.00      6.36890E-04
  485.00      6.23970E-04
  487.00      5.93900E-04
  489.00      6.23460E-04
  491.00      6.19470E-04
  493.00      6.12100E-04
  495.00      6.11000E-04
  497.00      6.07090E-04
  499.00      6.03010E-04
  501.00      5.96900E-04
  503.00      5.94760E-04
  505.00      5.90330E-04
  507.00      5.86990E-04
  509.00      5.83100E-04
  511.00      5.79240E-04
  513.00      5.75400E-04
  515.00      5.71620E-04
  517.00      5.67840E-04
  519.00      5.64140E-04
  521.00      5.60480E-04
  523.00      5.56840E-04
  525.00      5.53140E-04
  527.00      5.49370E-04
  529.00      5.46110E-04
  531.00      5.42600E-04
  533.00      5.39120E-04
  535.00      5.35690E-04
  537.00      5.32280E-04
  539.00      5.28890E-04
  541.00      5.19200E-04
  543.00      5.22230E-04
  545.00      5.18950E-04
  547.00      5.15690E-04
  549.00      5.12470E-04
  551.00      5.09120E-04
  553.00      5.06110E-04
  555.00      5.02970E-04
  557.00      4.99830E-04
  559.00      4.96060E-04
  561.00      4.93730E-04
  563.00      4.90700E-04
  565.00      4.87700E-04
  567.00      4.84730E-04
  569.00      4.76980E-04
  571.00      4.55740E-04
  573.00      4.53170E-04
  575.00      4.50600E-04
  577.00      4.48190E-04
  579.00      4.46030E-04
  581.00      4.44090E-04
  583.00      4.43140E-04
  585.00      4.42350E-04
  587.00      4.37550E-04
  589.00      4.41010E-04
  591.00      4.40700E-04
  593.00      4.40650E-04
  595.00      4.40950E-04
  597.00      4.40780E-04
  599.00      4.40190E-04
  601.00      4.38380E-04
  603.00      4.35880E-04
  605.00      4.33620E-04
  607.00      4.30720E-04
  609.00      4.28780E-04
  611.00      4.25870E-04
  613.00      4.23460E-04
  615.00      4.21510E-04
  617.00      4.17980E-04
  619.00      4.16740E-04
  621.00      4.14390E-04
  623.00      4.10760E-04
  625.00      4.09580E-04
  627.00      4.07440E-04
  629.00      4.05160E-04
  631.00      4.01170E-04
  633.00      4.00660E-04
  635.00      3.98440E-04
  637.00      3.96240E-04
  639.00      3.94050E-04
  641.00      3.89800E-04
  643.00      3.89740E-04
  645.00      3.87600E-04
  647.00      3.85470E-04
  649.00      3.83390E-04
  651.00      3.81270E-04
  653.00      3.76420E-04
  655.00      3.74130E-04
  657.00      3.52860E-04
  659.00      3.72880E-04
  661.00      3.71160E-04
  663.00      3.69180E-04
  665.00      3.67230E-04
  667.00      3.63650E-04
  669.00      3.59240E-04
  671.00      3.61190E-04
  673.00      3.59460E-04
  675.00      3.57580E-04
  677.00      3.55750E-04
  679.00      3.53890E-04
  681.00      3.52050E-04
  683.00      3.50210E-04
  685.00      3.48390E-04
  687.00      3.46580E-04
  689.00      3.41870E-04
  691.00      3.42960E-04
  693.00      3.41250E-04
  695.00      3.39500E-04
  697.00      3.37760E-04
  699.00      3.36040E-04
  701.00      3.34280E-04
  703.00      3.32550E-04
  705.00      3.30870E-04
  707.00      3.27270E-04
  709.00      3.27610E-04
  711.00      3.25950E-04
  713.00      3.24320E-04
  715.00      3.22700E-04
  717.00      3.19090E-04
  719.00      3.18600E-04
  721.00      3.17900E-04
  723.00      3.16320E-04
  725.00      3.14750E-04
  727.00      3.13200E-04
  729.00      3.10870E-04
  731.00      3.10080E-04
  733.00      3.08610E-04
  735.00      3.07100E-04
  737.00      3.05590E-04
  739.00      3.04120E-04
  741.00      3.02620E-04
  743.00      3.01180E-04
  745.00      2.99670E-04
  747.00      2.98280E-04
  749.00      2.96770E-04
  751.00      2.95390E-04
  753.00      2.94010E-04
  755.00      2.92600E-04
  757.00      2.91210E-04
  759.00      2.87120E-04
  761.00      2.88390E-04
  763.00      2.87080E-04
  765.00      2.85720E-04
  767.00      2.84390E-04
  769.00      2.82950E-04
  771.00      2.81700E-04
  773.00      2.80260E-04
  775.00      2.79100E-04
  777.00      2.77800E-04
  779.00      2.76510E-04
  781.00      2.75210E-04
  783.00      2.73960E-04
  785.00      2.72690E-04
  787.00      2.71440E-04
  789.00      2.70210E-04
  791.00      2.69000E-04
  793.00      2.67770E-04
  795.00      2.66550E-04
  797.00      2.65270E-04
  799.00      2.64130E-04
  801.00      2.62930E-04
  803.00      2.61720E-04
  805.00      2.60560E-04
  807.00      2.59390E-04
  809.00      2.58210E-04
  811.00      2.57050E-04
  813.00      2.55920E-04
  815.00      2.54730E-04
  817.00      2.53590E-04
  819.00      2.51720E-04
  821.00      2.44130E-04
  823.00      2.41970E-04
  825.00      2.41980E-04
  827.00      2.40980E-04
  829.00      2.40090E-04
  831.00      2.39100E-04
  833.00      2.38020E-04
  835.00      2.36930E-04
  837.00      2.36110E-04
  839.00      2.35240E-04
  841.00      2.34410E-04
  843.00      2.33570E-04
  845.00      2.32580E-04
  847.00      2.31940E-04
  849.00      2.31240E-04
  851.00      2.30260E-04
  853.00      2.29870E-04
  855.00      2.28430E-04
  857.00      2.28910E-04
  859.00      2.26780E-04
  861.00      2.26250E-04
  863.00      2.27340E-04
  865.00      2.25820E-04
  867.00      2.21850E-04
  869.00      2.25580E-04
  871.00      2.25590E-04
  873.00      2.24020E-04
  875.00      2.16810E-04
  877.00      2.21860E-04
  879.00      2.23270E-04
  881.00      2.22610E-04
  883.00      2.21690E-04
  885.00      2.17300E-04
  887.00      2.10430E-04
  889.00      2.18410E-04
  891.00      2.18550E-04
  893.00      2.17470E-04
  895.00      2.16870E-04
  897.00      2.16060E-04
  899.00      2.13820E-04
  901.00      2.04240E-04
  903.00      2.08330E-04
  905.00      2.12030E-04
  907.00      2.11140E-04
  909.00      2.10700E-04
  911.00      2.09660E-04
  913.00      2.09150E-04
  915.00      2.08320E-04
  917.00      2.07370E-04
  919.00      2.06460E-04
  921.00      2.03370E-04
  923.00      1.92730E-04
  925.00      2.01770E-04
  927.00      2.03100E-04
  929.00      2.02550E-04
  931.00      2.01570E-04
  933.00      2.00910E-04
  935.00      1.97420E-04
  937.00      1.98700E-04
  939.00      1.98570E-04
  941.00      1.97770E-04
  943.00      1.97010E-04
  945.00      1.96240E-04
  947.00      1.95240E-04
  949.00      1.94710E-04
  951.00      1.93190E-04
  953.00      1.90250E-04
  955.00      1.80460E-04
  957.00      1.90100E-04
  959.00      1.90840E-04
  961.00      1.90130E-04
  963.00      1.89280E-04
  965.00      1.88770E-04
  967.00      1.88040E-04
  969.00      1.87300E-04
  971.00      1.86180E-04
  973.00      1.85870E-04
  975.00      1.85110E-04
  977.00      1.83680E-04
  979.00      1.83780E-04
  981.00      1.83090E-04
  983.00      1.82380E-04
  985.00      1.81710E-04
  987.00      1.81020E-04
  989.00      1.80340E-04
  991.00      1.79650E-04
  993.00      1.78990E-04
  995.00      1.78320E-04
  997.00      1.77660E-04
  999.00      1.76990E-04
  1002.5      1.73300E-04
  1007.5      1.70350E-04
  1012.5      1.70610E-04
  1017.5      1.71040E-04
  1022.5      1.69470E-04
  1027.5      1.67940E-04
  1032.5      1.66190E-04
  1037.5      1.64940E-04
  1042.5      1.62980E-04
  1047.5      1.62010E-04
  1052.5      1.60570E-04
  1057.5      1.59150E-04
  1062.5      1.57750E-04
  1067.5      1.56320E-04
  1072.5      1.55010E-04
  1077.5      1.53660E-04
  1082.5      1.51670E-04
  1087.5      1.51010E-04
  1092.5      1.44750E-04
  1097.5      1.47570E-04
  1102.5      1.47040E-04
  1107.5      1.45940E-04
  1112.5      1.44720E-04
  1117.5      1.43550E-04
  1122.5      1.42330E-04
  1127.5      1.41160E-04
  1132.5      1.39990E-04
  1137.5      1.38840E-04
  1142.5      1.37700E-04
  1147.5      1.36570E-04
  1152.5      1.35460E-04
  1157.5      1.34350E-04
  1162.5      1.32440E-04
  1167.5      1.31670E-04
  1172.5      1.31130E-04
  1177.5      1.30080E-04
  1182.5      1.29040E-04
  1187.5      1.28020E-04
  1192.5      1.27010E-04
  1197.5      1.25640E-04
  1202.5      1.25020E-04
  1207.5      1.24040E-04
  1212.5      1.23070E-04
  1217.5      1.22130E-04
  1222.5      1.21180E-04
  1227.5      1.20250E-04
  1232.5      1.19330E-04
  1237.5      1.18420E-04
  1242.5      1.17520E-04
  1247.5      1.16630E-04
  1252.5      1.15690E-04
  1257.5      1.14880E-04
  1262.5      1.14020E-04
  1267.5      1.13170E-04
  1272.5      1.12320E-04
  1277.5      1.10870E-04
  1282.5      1.06810E-04
  1287.5      1.09730E-04
  1292.5      1.09050E-04
  1297.5      1.08080E-04
  1302.5      1.07460E-04
  1307.5      1.06680E-04
  1312.5      1.05910E-04
  1317.5      1.05150E-04
  1322.5      1.04390E-04
  1327.5      1.03650E-04
  1332.5      1.02910E-04
  1337.5      1.02180E-04
  1342.5      1.01430E-04
  1347.5      1.00740E-04
  1352.5      1.00030E-04
  1357.5      9.93310E-05
  1362.5      9.86370E-05
  1367.5      9.79510E-05
  1372.5      9.72690E-05
  1377.5      9.66000E-05
  1382.5      9.59350E-05
  1387.5      9.52760E-05
  1392.5      9.46240E-05
  1397.5      9.39800E-05
