 Castelli and Kurucz 2004-2012 Atmosphere
 T     41000.     G    4.50000 [-1.0a] N(He)/Ntot=0.0784 VTURB=2.0  L/H=1.25 OD
 Wavelength  Eddington Hnu
   (nm)    (ergs/s/cm2/Hz/sr)
  9.0900      8.21230E-24
  9.3500      2.82770E-23
  9.6100      9.13780E-23
  9.7700      1.84220E-22
  9.9600      4.10800E-22
  10.200      1.08980E-21
  10.380      2.20940E-21
  10.560      4.38560E-21
  10.770      9.51230E-21
  11.040      2.47820E-20
  11.400      8.34720E-20
  11.780      2.80210E-19
  12.130      8.04730E-19
  12.480      2.18900E-18
  12.710      4.11160E-18
  12.840      5.81720E-18
  13.050      1.00530E-17
  13.240      1.62610E-17
  13.390      2.35740E-17
  13.660      4.50920E-17
  13.980      9.47100E-17
  14.330      2.05320E-16
  14.720      4.63770E-16
  15.100      1.00290E-15
  15.520      2.23830E-15
  15.880      4.31770E-15
  16.200      7.57510E-15
  16.600      1.48900E-14
  17.030      2.96680E-14
  17.340      4.78500E-14
  17.680      7.96460E-14
  18.020      1.29900E-13
  18.170      1.59480E-13
  18.610      2.92210E-13
  19.100      5.52760E-13
  19.390      7.95730E-13
  19.840      1.37150E-12
  20.180      2.03770E-12
  20.500      2.92810E-12
  21.050      5.32930E-12
  21.620      9.60050E-12
  21.980      1.37720E-11
  22.300      1.87570E-11
  22.680      2.66910E-11
  23.000      1.22380E-08
  23.400      5.80110E-08
  24.000      1.33500E-07
  24.650      6.15560E-07
  25.240      3.39980E-06
  25.680      3.53760E-06
  26.000      7.95890E-06
  26.400      2.38100E-05
  26.850      3.68740E-05
  27.350      4.60210E-05
  27.850      3.56930E-05
  28.400      7.14900E-05
  29.000      9.09310E-05
  29.600      6.41710E-05
  30.100      1.52870E-05
  30.800      4.73270E-05
  31.800      4.37290E-05
  32.800      6.21630E-05
  33.800      5.06110E-05
  34.800      5.71260E-05
  35.700      1.21180E-04
  36.600      1.95600E-04
  37.500      2.37470E-04
  38.500      2.45420E-04
  39.500      3.26300E-04
  40.500      4.08580E-04
  41.400      4.25970E-04
  42.200      4.21600E-04
  43.000      4.10450E-04
  44.100      4.71040E-04
  45.100      5.08660E-04
  46.000      4.80810E-04
  47.000      5.03280E-04
  48.000      5.52000E-04
  49.000      4.91690E-04
  50.000      6.03940E-04
  50.600      5.79750E-04
  51.200      9.37160E-04
  52.000      9.07990E-04
  53.000      8.79870E-04
  54.000      8.25710E-04
  55.000      7.79830E-04
  56.000      9.88280E-04
  57.000      1.07470E-03
  58.000      1.06820E-03
  59.000      1.11410E-03
  60.000      1.03150E-03
  61.000      1.01830E-03
  62.000      1.20350E-03
  63.000      1.18850E-03
  64.000      1.27050E-03
  65.000      1.24750E-03
  65.800      1.16960E-03
  66.500      1.29500E-03
  67.500      1.36090E-03
  68.500      1.29140E-03
  69.500      1.39220E-03
  70.500      1.27990E-03
  71.600      1.45270E-03
  72.600      1.48560E-03
  73.500      1.51140E-03
  74.500      1.48910E-03
  75.500      1.49300E-03
  76.500      1.47930E-03
  77.500      1.53880E-03
  78.500      1.49450E-03
  79.500      1.56690E-03
  80.500      1.58330E-03
  81.500      1.61400E-03
  82.500      1.64530E-03
  83.500      1.53090E-03
  84.500      1.66230E-03
  85.500      1.64950E-03
  86.500      1.70370E-03
  87.500      1.72450E-03
  88.500      1.72700E-03
  89.500      1.74110E-03
  90.500      1.73100E-03
  91.500      1.42660E-03
  92.500      2.50120E-03
  93.500      3.29260E-03
  94.500      3.95190E-03
  95.500      4.38950E-03
  96.500      4.88410E-03
  97.500      3.83640E-03
  98.500      4.69310E-03
  99.500      4.40620E-03
  100.50      4.56920E-03
  101.50      4.67080E-03
  102.50      3.97990E-03
  103.50      4.70700E-03
  104.50      4.79940E-03
  105.50      4.77690E-03
  106.50      4.60620E-03
  107.50      4.66490E-03
  108.50      4.44950E-03
  109.50      4.65900E-03
  110.50      4.58200E-03
  111.50      4.54850E-03
  112.50      4.40540E-03
  113.50      4.53530E-03
  114.50      4.51460E-03
  115.50      4.40480E-03
  116.50      4.35990E-03
  117.50      4.01500E-03
  118.50      4.25930E-03
  119.50      4.22340E-03
  120.50      4.19330E-03
  121.50      3.52520E-03
  122.50      4.14530E-03
  123.50      4.13360E-03
  124.50      4.09170E-03
  125.50      4.13830E-03
  126.50      4.12730E-03
  127.50      4.12020E-03
  128.50      4.10630E-03
  129.50      4.05860E-03
  130.50      4.01850E-03
  131.50      4.02120E-03
  132.50      3.97980E-03
  133.50      3.96670E-03
  134.50      3.94650E-03
  135.50      3.88390E-03
  136.50      3.81870E-03
  137.50      3.75960E-03
  138.50      3.77610E-03
  139.50      3.67380E-03
  140.50      3.59180E-03
  141.50      3.73090E-03
  142.50      3.63210E-03
  143.50      3.67740E-03
  144.20      3.62490E-03
  144.70      3.61930E-03
  145.50      3.57510E-03
  146.50      3.57100E-03
  147.50      3.55620E-03
  148.50      3.57400E-03
  149.50      3.52970E-03
  150.50      3.53040E-03
  151.20      3.53070E-03
  151.70      3.48890E-03
  152.50      3.47290E-03
  153.50      3.36100E-03
  154.50      3.15010E-03
  155.50      3.16780E-03
  156.50      3.26390E-03
  157.50      3.29820E-03
  158.50      3.27550E-03
  159.50      3.26510E-03
  160.50      3.18420E-03
  161.50      3.15050E-03
  162.50      3.12900E-03
  163.50      3.09970E-03
  164.50      2.98920E-03
  165.50      3.14310E-03
  166.50      3.11710E-03
  167.20      3.05030E-03
  167.70      3.14140E-03
  168.50      3.11730E-03
  169.50      3.10270E-03
  170.50      3.06600E-03
  171.50      2.99880E-03
  172.50      2.99050E-03
  173.50      3.03400E-03
  174.50      3.00860E-03
  175.50      2.97820E-03
  176.50      2.96730E-03
  177.50      2.95510E-03
  178.50      2.94630E-03
  179.50      2.91310E-03
  180.50      2.90070E-03
  181.50      2.88280E-03
  182.50      2.86020E-03
  183.50      2.85180E-03
  184.50      2.83090E-03
  185.50      2.80920E-03
  186.50      2.79100E-03
  187.50      2.76720E-03
  188.50      2.75060E-03
  189.50      2.74810E-03
  190.50      2.73260E-03
  191.50      2.71270E-03
  192.50      2.66400E-03
  193.50      2.68170E-03
  194.50      2.66590E-03
  195.50      2.63980E-03
  196.70      2.62670E-03
  197.60      2.61070E-03
  198.40      2.60010E-03
  199.50      2.58080E-03
  200.50      2.56750E-03
  201.50      2.55120E-03
  202.50      2.53500E-03
  203.50      2.51830E-03
  204.50      2.49750E-03
  205.50      1.92170E-03
  206.50      1.86390E-03
  207.40      1.91650E-03
  207.80      1.96810E-03
  208.50      2.11690E-03
  209.50      2.35190E-03
  210.50      2.40690E-03
  211.50      2.40550E-03
  212.50      2.38360E-03
  213.50      2.37360E-03
  214.50      2.36330E-03
  215.50      2.38640E-03
  216.50      2.29800E-03
  217.50      2.37380E-03
  218.50      2.28710E-03
  219.50      2.34740E-03
  220.50      2.33470E-03
  221.50      2.24410E-03
  222.50      2.30580E-03
  223.50      2.29360E-03
  224.50      2.27770E-03
  225.50      2.19570E-03
  226.50      2.25110E-03
  227.50      2.23960E-03
  228.50      2.21860E-03
  229.50      2.18630E-03
  230.50      2.13290E-03
  231.50      2.17870E-03
  232.50      2.17170E-03
  233.50      2.15980E-03
  234.50      2.14560E-03
  235.50      2.13230E-03
  236.50      2.11950E-03
  237.50      2.10380E-03
  238.50      2.02230E-03
  239.50      2.06850E-03
  240.50      2.06650E-03
  241.50      2.05160E-03
  242.50      2.04630E-03
  243.50      2.03210E-03
  244.50      2.02120E-03
  245.50      2.00340E-03
  246.50      1.99790E-03
  247.50      1.98830E-03
  248.50      1.97450E-03
  249.50      1.85260E-03
  250.50      1.94400E-03
  251.30      1.82340E-03
  251.80      1.91280E-03
  252.50      1.92500E-03
  253.50      1.92010E-03
  254.50      1.90930E-03
  255.50      1.89760E-03
  256.50      1.88770E-03
  257.50      1.87730E-03
  258.50      1.86690E-03
  259.50      1.84630E-03
  260.50      1.84620E-03
  261.50      1.83160E-03
  262.50      1.82630E-03
  263.50      1.81680E-03
  264.50      1.80510E-03
  265.50      1.79650E-03
  266.50      1.78550E-03
  267.50      1.76930E-03
  268.50      1.76470E-03
  269.50      1.75490E-03
  270.50      1.74850E-03
  271.50      1.73820E-03
  272.50      1.72710E-03
  273.50      1.67260E-03
  274.50      1.71080E-03
  275.50      1.70080E-03
  276.50      1.69070E-03
  277.50      1.68250E-03
  278.50      1.67150E-03
  279.50      1.65930E-03
  280.50      1.65500E-03
  281.50      1.64670E-03
  282.50      1.63570E-03
  283.50      1.62890E-03
  284.50      1.62190E-03
  285.50      1.61320E-03
  286.50      1.60450E-03
  287.50      1.59620E-03
  288.50      1.58800E-03
  289.50      1.57920E-03
  291.00      1.56650E-03
  293.00      1.55120E-03
  295.00      1.53410E-03
  297.00      1.51800E-03
  299.00      1.49950E-03
  301.00      1.48570E-03
  303.00      1.46660E-03
  305.00      1.45430E-03
  307.00      1.44090E-03
  309.00      1.42810E-03
  311.00      1.41400E-03
  313.00      1.39930E-03
  315.00      1.38780E-03
  317.00      1.37360E-03
  319.00      1.35920E-03
  321.00      1.32800E-03
  323.00      1.33550E-03
  325.00      1.32300E-03
  327.00      1.30390E-03
  329.00      1.29660E-03
  331.00      1.28420E-03
  333.00      1.27230E-03
  335.00      1.25760E-03
  337.00      1.24880E-03
  339.00      1.23720E-03
  341.00      1.22540E-03
  343.00      1.21570E-03
  345.00      1.20170E-03
  347.00      1.19370E-03
  349.00      1.18300E-03
  351.00      1.17240E-03
  353.00      1.16110E-03
  355.00      1.15040E-03
  357.00      1.14140E-03
  359.00      1.13010E-03
  361.00      1.12040E-03
  363.00      1.10950E-03
  364.00      1.08570E-03
  365.00      9.97440E-04
  367.00      9.90250E-04
  369.00      9.84970E-04
  371.00      9.84230E-04
  373.00      9.91390E-04
  375.00      1.00530E-03
  377.00      1.01380E-03
  379.00      1.03100E-03
  381.00      1.04590E-03
  383.00      9.99440E-04
  385.00      1.04390E-03
  387.00      1.04570E-03
  389.00      9.67800E-04
  391.00      1.03450E-03
  393.00      1.01900E-03
  395.00      1.01700E-03
  397.00      9.32490E-04
  399.00      1.00090E-03
  401.00      9.95490E-04
  403.00      9.69340E-04
  405.00      9.81960E-04
  407.00      9.71900E-04
  409.00      9.42460E-04
  411.00      8.93970E-04
  413.00      9.47260E-04
  415.00      9.40680E-04
  417.00      9.34890E-04
  419.00      9.23660E-04
  421.00      9.07390E-04
  423.00      9.12890E-04
  425.00      9.05430E-04
  427.00      8.98240E-04
  429.00      8.91120E-04
  431.00      8.83060E-04
  433.00      8.52360E-04
  435.00      8.20690E-04
  437.00      8.62220E-04
  439.00      8.53370E-04
  441.00      8.49530E-04
  443.00      8.43480E-04
  445.00      8.37110E-04
  447.00      8.23620E-04
  449.00      8.24410E-04
  451.00      8.17900E-04
  453.00      8.10830E-04
  455.00      7.93150E-04
  457.00      8.00060E-04
  459.00      7.93980E-04
  461.00      7.87910E-04
  463.00      7.80690E-04
  465.00      7.70660E-04
  467.00      7.69610E-04
  469.00      7.40650E-04
  471.00      7.57450E-04
  473.00      7.54330E-04
  475.00      7.48840E-04
  477.00      7.43400E-04
  479.00      7.38060E-04
  481.00      7.32680E-04
  483.00      7.26820E-04
  485.00      7.07290E-04
  487.00      6.72310E-04
  489.00      7.10710E-04
  491.00      7.06880E-04
  493.00      6.98630E-04
  495.00      6.97000E-04
  497.00      6.92290E-04
  499.00      6.87500E-04
  501.00      6.80790E-04
  503.00      6.77830E-04
  505.00      6.72790E-04
  507.00      6.68680E-04
  509.00      6.64120E-04
  511.00      6.59590E-04
  513.00      6.55090E-04
  515.00      6.50650E-04
  517.00      6.46250E-04
  519.00      6.41910E-04
  521.00      6.37600E-04
  523.00      6.33350E-04
  525.00      6.29030E-04
  527.00      6.24630E-04
  529.00      6.20800E-04
  531.00      6.16700E-04
  533.00      6.12630E-04
  535.00      6.08630E-04
  537.00      6.04650E-04
  539.00      6.00700E-04
  541.00      5.86780E-04
  543.00      5.92920E-04
  545.00      5.89110E-04
  547.00      5.85310E-04
  549.00      5.81560E-04
  551.00      5.77660E-04
  553.00      5.74160E-04
  555.00      5.70510E-04
  557.00      5.66860E-04
  559.00      5.62510E-04
  561.00      5.59760E-04
  563.00      5.56250E-04
  565.00      5.52770E-04
  567.00      5.49310E-04
  569.00      5.39460E-04
  571.00      5.10090E-04
  573.00      5.07170E-04
  575.00      5.04270E-04
  577.00      5.01490E-04
  579.00      4.98930E-04
  581.00      4.96290E-04
  583.00      4.95140E-04
  585.00      4.94220E-04
  587.00      4.89880E-04
  589.00      4.92950E-04
  591.00      4.92810E-04
  593.00      4.92950E-04
  595.00      4.93510E-04
  597.00      4.94060E-04
  599.00      4.94910E-04
  601.00      4.93640E-04
  603.00      4.91560E-04
  605.00      4.90110E-04
  607.00      4.86800E-04
  609.00      4.84620E-04
  611.00      4.81290E-04
  613.00      4.78500E-04
  615.00      4.76370E-04
  617.00      4.72060E-04
  619.00      4.70830E-04
  621.00      4.68150E-04
  623.00      4.63720E-04
  625.00      4.62450E-04
  627.00      4.60140E-04
  629.00      4.57510E-04
  631.00      4.52490E-04
  633.00      4.52160E-04
  635.00      4.49770E-04
  637.00      4.47240E-04
  639.00      4.44630E-04
  641.00      4.39100E-04
  643.00      4.39750E-04
  645.00      4.37290E-04
  647.00      4.34840E-04
  649.00      4.32450E-04
  651.00      4.29850E-04
  653.00      4.23420E-04
  655.00      4.20130E-04
  657.00      3.95690E-04
  659.00      4.19870E-04
  661.00      4.18380E-04
  663.00      4.16110E-04
  665.00      4.13870E-04
  667.00      4.09770E-04
  669.00      4.03900E-04
  671.00      4.06970E-04
  673.00      4.04970E-04
  675.00      4.02800E-04
  677.00      4.00690E-04
  679.00      3.98560E-04
  681.00      3.96440E-04
  683.00      3.94340E-04
  685.00      3.92250E-04
  687.00      3.90180E-04
  689.00      3.83390E-04
  691.00      3.85930E-04
  693.00      3.84070E-04
  695.00      3.82070E-04
  697.00      3.80080E-04
  699.00      3.78100E-04
  701.00      3.76100E-04
  703.00      3.74130E-04
  705.00      3.72210E-04
  707.00      3.68580E-04
  709.00      3.68460E-04
  711.00      3.66570E-04
  713.00      3.64700E-04
  715.00      3.62850E-04
  717.00      3.57840E-04
  719.00      3.57450E-04
  721.00      3.57360E-04
  723.00      3.55560E-04
  725.00      3.53770E-04
  727.00      3.52000E-04
  729.00      3.49600E-04
  731.00      3.48430E-04
  733.00      3.46760E-04
  735.00      3.45030E-04
  737.00      3.43300E-04
  739.00      3.41630E-04
  741.00      3.39920E-04
  743.00      3.38270E-04
  745.00      3.36540E-04
  747.00      3.34970E-04
  749.00      3.33260E-04
  751.00      3.31680E-04
  753.00      3.30100E-04
  755.00      3.28500E-04
  757.00      3.26910E-04
  759.00      3.20870E-04
  761.00      3.23520E-04
  763.00      3.22210E-04
  765.00      3.20660E-04
  767.00      3.19140E-04
  769.00      3.17520E-04
  771.00      3.16090E-04
  773.00      3.14460E-04
  775.00      3.13120E-04
  777.00      3.11650E-04
  779.00      3.10180E-04
  781.00      3.08710E-04
  783.00      3.07270E-04
  785.00      3.05800E-04
  787.00      3.04400E-04
  789.00      3.03000E-04
  791.00      3.01610E-04
  793.00      3.00220E-04
  795.00      2.98830E-04
  797.00      2.97380E-04
  799.00      2.96080E-04
  801.00      2.94720E-04
  803.00      2.93350E-04
  805.00      2.92030E-04
  807.00      2.90700E-04
  809.00      2.89370E-04
  811.00      2.88060E-04
  813.00      2.86750E-04
  815.00      2.85460E-04
  817.00      2.84100E-04
  819.00      2.81780E-04
  821.00      2.71410E-04
  823.00      2.68690E-04
  825.00      2.68820E-04
  827.00      2.67920E-04
  829.00      2.66860E-04
  831.00      2.65750E-04
  833.00      2.64560E-04
  835.00      2.63420E-04
  837.00      2.62420E-04
  839.00      2.61410E-04
  841.00      2.60450E-04
  843.00      2.59500E-04
  845.00      2.58450E-04
  847.00      2.57670E-04
  849.00      2.56890E-04
  851.00      2.56000E-04
  853.00      2.55360E-04
  855.00      2.54300E-04
  857.00      2.54100E-04
  859.00      2.52580E-04
  861.00      2.52030E-04
  863.00      2.52310E-04
  865.00      2.51020E-04
  867.00      2.48480E-04
  869.00      2.50440E-04
  871.00      2.50360E-04
  873.00      2.48960E-04
  875.00      2.43770E-04
  877.00      2.46950E-04
  879.00      2.48250E-04
  881.00      2.47860E-04
  883.00      2.46980E-04
  885.00      2.42390E-04
  887.00      2.36530E-04
  889.00      2.43270E-04
  891.00      2.43580E-04
  893.00      2.42650E-04
  895.00      2.42140E-04
  897.00      2.40840E-04
  899.00      2.38360E-04
  901.00      2.28760E-04
  903.00      2.32090E-04
  905.00      2.36260E-04
  907.00      2.35760E-04
  909.00      2.35290E-04
  911.00      2.33970E-04
  913.00      2.33540E-04
  915.00      2.32600E-04
  917.00      2.31510E-04
  919.00      2.30080E-04
  921.00      2.26460E-04
  923.00      2.15430E-04
  925.00      2.24260E-04
  927.00      2.26250E-04
  929.00      2.26070E-04
  931.00      2.25040E-04
  933.00      2.24110E-04
  935.00      2.19070E-04
  937.00      2.21560E-04
  939.00      2.21590E-04
  941.00      2.20700E-04
  943.00      2.19840E-04
  945.00      2.18980E-04
  947.00      2.17930E-04
  949.00      2.17230E-04
  951.00      2.15270E-04
  953.00      2.11500E-04
  955.00      2.01110E-04
  957.00      2.11210E-04
  959.00      2.12510E-04
  961.00      2.12100E-04
  963.00      2.11200E-04
  965.00      2.10540E-04
  967.00      2.09730E-04
  969.00      2.08910E-04
  971.00      2.07800E-04
  973.00      2.07280E-04
  975.00      2.06280E-04
  977.00      2.04570E-04
  979.00      2.04920E-04
  981.00      2.04140E-04
  983.00      2.03340E-04
  985.00      2.02590E-04
  987.00      2.01820E-04
  989.00      2.01050E-04
  991.00      2.00280E-04
  993.00      1.99530E-04
  995.00      1.98770E-04
  997.00      1.98020E-04
  999.00      1.97280E-04
  1002.5      1.92640E-04
  1007.5      1.89370E-04
  1012.5      1.89490E-04
  1017.5      1.90580E-04
  1022.5      1.88820E-04
  1027.5      1.87090E-04
  1032.5      1.85190E-04
  1037.5      1.83710E-04
  1042.5      1.81260E-04
  1047.5      1.80420E-04
  1052.5      1.78810E-04
  1057.5      1.77210E-04
  1062.5      1.75640E-04
  1067.5      1.74050E-04
  1072.5      1.72560E-04
  1077.5      1.71050E-04
  1082.5      1.69000E-04
  1087.5      1.67970E-04
  1092.5      1.60720E-04
  1097.5      1.63820E-04
  1102.5      1.63680E-04
  1107.5      1.62380E-04
  1112.5      1.61010E-04
  1117.5      1.59720E-04
  1122.5      1.58360E-04
  1127.5      1.57040E-04
  1132.5      1.55730E-04
  1137.5      1.54440E-04
  1142.5      1.53160E-04
  1147.5      1.51890E-04
  1152.5      1.50650E-04
  1157.5      1.49410E-04
  1162.5      1.46870E-04
  1167.5      1.46080E-04
  1172.5      1.45800E-04
  1177.5      1.44630E-04
  1182.5      1.43460E-04
  1187.5      1.42320E-04
  1192.5      1.41190E-04
  1197.5      1.39750E-04
  1202.5      1.38960E-04
  1207.5      1.37860E-04
  1212.5      1.36780E-04
  1217.5      1.35720E-04
  1222.5      1.34660E-04
  1227.5      1.33620E-04
  1232.5      1.32590E-04
  1237.5      1.31570E-04
  1242.5      1.30560E-04
  1247.5      1.29560E-04
  1252.5      1.28540E-04
  1257.5      1.27600E-04
  1262.5      1.26640E-04
  1267.5      1.25690E-04
  1272.5      1.24740E-04
  1277.5      1.23090E-04
  1282.5      1.18190E-04
  1287.5      1.21760E-04
  1292.5      1.21080E-04
  1297.5      1.20070E-04
  1302.5      1.19310E-04
  1307.5      1.18440E-04
  1312.5      1.17580E-04
  1317.5      1.16730E-04
  1322.5      1.15880E-04
  1327.5      1.15050E-04
  1332.5      1.14220E-04
  1337.5      1.13410E-04
  1342.5      1.12590E-04
  1347.5      1.11800E-04
  1352.5      1.11010E-04
  1357.5      1.10230E-04
  1362.5      1.09450E-04
  1367.5      1.08690E-04
  1372.5      1.07930E-04
  1377.5      1.07180E-04
  1382.5      1.06430E-04
  1387.5      1.05700E-04
  1392.5      1.04970E-04
  1397.5      1.04250E-04
