 Castelli and Kurucz 2004-2012 Atmosphere
 T     37000.     G    5.00000 [-1.0a] N(He)/Ntot=0.0784 VTURB=2.0  L/H=1.25 OD
 Wavelength  Eddington Hnu
   (nm)    (ergs/s/cm2/Hz/sr)
  9.0900      6.23340E-27
  9.3500      2.63160E-26
  9.6100      1.03150E-25
  9.7700      2.31710E-25
  9.9600      5.86230E-25
  10.200      1.80970E-24
  10.380      4.08920E-24
  10.560      9.00770E-24
  10.770      2.19560E-23
  11.040      6.59670E-23
  11.400      2.65670E-22
  11.780      1.06520E-21
  12.130      3.56840E-21
  12.480      1.12360E-20
  12.710      2.31350E-20
  12.840      3.44350E-20
  13.050      6.44990E-20
  13.240      1.12090E-19
  13.390      1.71560E-19
  13.660      3.61190E-19
  13.980      8.44300E-19
  14.330      2.05070E-18
  14.720      5.25410E-18
  15.100      1.26300E-17
  15.520      3.16930E-17
  15.880      6.72710E-17
  16.200      1.27900E-16
  16.600      2.76740E-16
  17.030      6.10020E-16
  17.340      1.05450E-15
  17.680      1.88300E-15
  18.020      3.29110E-15
  18.170      4.18620E-15
  18.610      8.29690E-15
  19.100      1.71580E-14
  19.390      2.59450E-14
  19.840      4.81870E-14
  20.180      7.55640E-14
  20.500      1.13930E-13
  21.050      2.24560E-13
  21.620      4.37540E-13
  21.980      6.57150E-13
  22.300      9.32320E-13
  22.680      1.39070E-12
  23.000      6.10130E-10
  23.400      3.03720E-09
  24.000      6.58900E-09
  24.650      1.27400E-08
  25.240      2.43710E-08
  25.680      2.41950E-08
  26.000      5.40740E-08
  26.400      1.55590E-07
  26.850      2.74340E-07
  27.350      3.48980E-07
  27.850      2.87280E-07
  28.400      7.05730E-07
  29.000      8.47490E-07
  29.600      6.22410E-07
  30.100      3.94270E-07
  30.800      1.35260E-06
  31.800      2.42930E-06
  32.800      3.21070E-06
  33.800      3.97650E-06
  34.800      5.09960E-06
  35.700      7.63940E-06
  36.600      1.11940E-05
  37.500      1.23770E-05
  38.500      1.40630E-05
  39.500      1.75540E-05
  40.500      2.01140E-05
  41.400      2.25830E-05
  42.200      2.34780E-05
  43.000      2.49080E-05
  44.100      2.89660E-05
  45.100      3.26540E-05
  46.000      3.44380E-05
  47.000      3.84440E-05
  48.000      4.32570E-05
  49.000      4.57000E-05
  50.000      5.33280E-05
  50.600      9.55540E-05
  51.200      3.27000E-04
  52.000      3.14680E-04
  53.000      3.08550E-04
  54.000      2.91280E-04
  55.000      3.14460E-04
  56.000      3.77220E-04
  57.000      3.95450E-04
  58.000      3.84360E-04
  59.000      4.09560E-04
  60.000      3.81640E-04
  61.000      4.11080E-04
  62.000      4.65210E-04
  63.000      4.70260E-04
  64.000      4.84660E-04
  65.000      4.88670E-04
  65.800      4.62130E-04
  66.500      5.00410E-04
  67.500      5.33920E-04
  68.500      5.03150E-04
  69.500      5.54590E-04
  70.500      5.17230E-04
  71.600      5.91710E-04
  72.600      6.00060E-04
  73.500      6.18630E-04
  74.500      6.10970E-04
  75.500      6.18390E-04
  76.500      6.30050E-04
  77.500      6.46940E-04
  78.500      6.62160E-04
  79.500      6.74860E-04
  80.500      6.78510E-04
  81.500      6.94710E-04
  82.500      7.17020E-04
  83.500      6.67810E-04
  84.500      7.32450E-04
  85.500      7.38780E-04
  86.500      7.61160E-04
  87.500      7.71600E-04
  88.500      7.82070E-04
  89.500      7.93570E-04
  90.500      7.93590E-04
  91.500      7.33970E-04
  92.500      1.43460E-03
  93.500      2.09630E-03
  94.500      3.02630E-03
  95.500      3.45190E-03
  96.500      4.25780E-03
  97.500      2.72750E-03
  98.500      4.19590E-03
  99.500      3.86640E-03
  100.50      4.08480E-03
  101.50      4.14050E-03
  102.50      2.90160E-03
  103.50      4.08980E-03
  104.50      4.33830E-03
  105.50      4.31110E-03
  106.50      4.07350E-03
  107.50      4.13940E-03
  108.50      3.84840E-03
  109.50      4.16490E-03
  110.50      4.05590E-03
  111.50      4.03780E-03
  112.50      3.76940E-03
  113.50      4.00960E-03
  114.50      3.93740E-03
  115.50      3.85160E-03
  116.50      3.82910E-03
  117.50      3.32210E-03
  118.50      3.67910E-03
  119.50      3.65480E-03
  120.50      3.54530E-03
  121.50      2.57050E-03
  122.50      3.51170E-03
  123.50      3.63380E-03
  124.50      3.58720E-03
  125.50      3.61510E-03
  126.50      3.62460E-03
  127.50      3.62240E-03
  128.50      3.61490E-03
  129.50      3.48870E-03
  130.50      3.50210E-03
  131.50      3.54580E-03
  132.50      3.49200E-03
  133.50      3.45170E-03
  134.50      3.45050E-03
  135.50      3.42120E-03
  136.50      3.36940E-03
  137.50      3.33840E-03
  138.50      3.31440E-03
  139.50      3.09540E-03
  140.50      3.08430E-03
  141.50      3.24070E-03
  142.50      3.11880E-03
  143.50      3.18510E-03
  144.20      3.17670E-03
  144.70      3.16090E-03
  145.50      3.11280E-03
  146.50      3.10580E-03
  147.50      3.07720E-03
  148.50      3.08990E-03
  149.50      3.04580E-03
  150.50      3.03250E-03
  151.20      3.03520E-03
  151.70      3.01030E-03
  152.50      2.97470E-03
  153.50      2.83720E-03
  154.50      2.67710E-03
  155.50      2.68540E-03
  156.50      2.74870E-03
  157.50      2.78940E-03
  158.50      2.79700E-03
  159.50      2.78860E-03
  160.50      2.69340E-03
  161.50      2.64380E-03
  162.50      2.64680E-03
  163.50      2.62510E-03
  164.50      2.54380E-03
  165.50      2.67810E-03
  166.50      2.64800E-03
  167.20      2.58020E-03
  167.70      2.69710E-03
  168.50      2.66420E-03
  169.50      2.64280E-03
  170.50      2.61050E-03
  171.50      2.56350E-03
  172.50      2.53170E-03
  173.50      2.58750E-03
  174.50      2.56780E-03
  175.50      2.53580E-03
  176.50      2.53100E-03
  177.50      2.51770E-03
  178.50      2.51210E-03
  179.50      2.48360E-03
  180.50      2.47760E-03
  181.50      2.45880E-03
  182.50      2.43750E-03
  183.50      2.43800E-03
  184.50      2.40650E-03
  185.50      2.38640E-03
  186.50      2.37330E-03
  187.50      2.35360E-03
  188.50      2.33340E-03
  189.50      2.32720E-03
  190.50      2.32870E-03
  191.50      2.30260E-03
  192.50      2.24820E-03
  193.50      2.27960E-03
  194.50      2.27430E-03
  195.50      2.23290E-03
  196.70      2.23740E-03
  197.60      2.23140E-03
  198.40      2.21420E-03
  199.50      2.19060E-03
  200.50      2.19190E-03
  201.50      2.17940E-03
  202.50      2.16510E-03
  203.50      2.14880E-03
  204.50      2.13370E-03
  205.50      1.71880E-03
  206.50      1.66450E-03
  207.40      1.68200E-03
  207.80      1.69970E-03
  208.50      1.76790E-03
  209.50      1.91410E-03
  210.50      2.03300E-03
  211.50      2.04960E-03
  212.50      2.02660E-03
  213.50      2.02170E-03
  214.50      2.01070E-03
  215.50      2.01570E-03
  216.50      1.95780E-03
  217.50      2.00290E-03
  218.50      1.94160E-03
  219.50      1.98090E-03
  220.50      1.97220E-03
  221.50      1.89980E-03
  222.50      1.94660E-03
  223.50      1.93710E-03
  224.50      1.92160E-03
  225.50      1.85290E-03
  226.50      1.90030E-03
  227.50      1.89000E-03
  228.50      1.86910E-03
  229.50      1.82340E-03
  230.50      1.79640E-03
  231.50      1.83690E-03
  232.50      1.83090E-03
  233.50      1.82040E-03
  234.50      1.80920E-03
  235.50      1.79750E-03
  236.50      1.78650E-03
  237.50      1.77310E-03
  238.50      1.70340E-03
  239.50      1.74160E-03
  240.50      1.74290E-03
  241.50      1.73080E-03
  242.50      1.72300E-03
  243.50      1.71070E-03
  244.50      1.70190E-03
  245.50      1.68870E-03
  246.50      1.68240E-03
  247.50      1.67260E-03
  248.50      1.66110E-03
  249.50      1.52410E-03
  250.50      1.63100E-03
  251.30      1.53600E-03
  251.80      1.59910E-03
  252.50      1.62290E-03
  253.50      1.61530E-03
  254.50      1.60410E-03
  255.50      1.59450E-03
  256.50      1.58650E-03
  257.50      1.57820E-03
  258.50      1.56950E-03
  259.50      1.55680E-03
  260.50      1.55410E-03
  261.50      1.54370E-03
  262.50      1.53660E-03
  263.50      1.52810E-03
  264.50      1.51870E-03
  265.50      1.51030E-03
  266.50      1.49960E-03
  267.50      1.48680E-03
  268.50      1.48450E-03
  269.50      1.47230E-03
  270.50      1.46920E-03
  271.50      1.46030E-03
  272.50      1.44650E-03
  273.50      1.40750E-03
  274.50      1.43710E-03
  275.50      1.42900E-03
  276.50      1.41530E-03
  277.50      1.41410E-03
  278.50      1.40530E-03
  279.50      1.38830E-03
  280.50      1.38860E-03
  281.50      1.38330E-03
  282.50      1.36980E-03
  283.50      1.36450E-03
  284.50      1.36210E-03
  285.50      1.35410E-03
  286.50      1.34630E-03
  287.50      1.33930E-03
  288.50      1.33270E-03
  289.50      1.32500E-03
  291.00      1.31350E-03
  293.00      1.30140E-03
  295.00      1.28240E-03
  297.00      1.27340E-03
  299.00      1.25820E-03
  301.00      1.24550E-03
  303.00      1.23030E-03
  305.00      1.21990E-03
  307.00      1.21020E-03
  309.00      1.19520E-03
  311.00      1.18530E-03
  313.00      1.17300E-03
  315.00      1.16150E-03
  317.00      1.15000E-03
  319.00      1.13450E-03
  321.00      1.11550E-03
  323.00      1.11800E-03
  325.00      1.10780E-03
  327.00      1.09340E-03
  329.00      1.08560E-03
  331.00      1.07570E-03
  333.00      1.06500E-03
  335.00      1.05290E-03
  337.00      1.04520E-03
  339.00      1.03650E-03
  341.00      1.02670E-03
  343.00      1.01600E-03
  345.00      1.00360E-03
  347.00      9.96950E-04
  349.00      9.88060E-04
  351.00      9.79500E-04
  353.00      9.71540E-04
  355.00      9.62120E-04
  357.00      9.56620E-04
  359.00      9.43650E-04
  361.00      9.37610E-04
  363.00      9.26670E-04
  364.00      9.19210E-04
  365.00      8.74160E-04
  367.00      8.68570E-04
  369.00      8.62000E-04
  371.00      8.50380E-04
  373.00      8.47370E-04
  375.00      8.46040E-04
  377.00      8.36770E-04
  379.00      8.54710E-04
  381.00      8.78170E-04
  383.00      8.13180E-04
  385.00      8.90230E-04
  387.00      8.98490E-04
  389.00      7.83910E-04
  391.00      8.94500E-04
  393.00      8.89990E-04
  395.00      8.78310E-04
  397.00      7.53830E-04
  399.00      8.63500E-04
  401.00      8.63540E-04
  403.00      8.32810E-04
  405.00      8.56410E-04
  407.00      8.42260E-04
  409.00      7.95330E-04
  411.00      7.34270E-04
  413.00      8.18760E-04
  415.00      8.16740E-04
  417.00      8.15610E-04
  419.00      8.05620E-04
  421.00      7.95530E-04
  423.00      7.96830E-04
  425.00      7.89050E-04
  427.00      7.81790E-04
  429.00      7.75550E-04
  431.00      7.64950E-04
  433.00      7.16540E-04
  435.00      6.77310E-04
  437.00      7.46810E-04
  439.00      7.33770E-04
  441.00      7.38800E-04
  443.00      7.34060E-04
  445.00      7.29050E-04
  447.00      7.03260E-04
  449.00      7.17430E-04
  451.00      7.12150E-04
  453.00      7.06320E-04
  455.00      6.92710E-04
  457.00      6.96580E-04
  459.00      6.90370E-04
  461.00      6.85160E-04
  463.00      6.78370E-04
  465.00      6.65240E-04
  467.00      6.68970E-04
  469.00      6.48780E-04
  471.00      6.54090E-04
  473.00      6.56280E-04
  475.00      6.51310E-04
  477.00      6.46700E-04
  479.00      6.41980E-04
  481.00      6.36600E-04
  483.00      6.28830E-04
  485.00      5.95850E-04
  487.00      5.54590E-04
  489.00      6.13640E-04
  491.00      6.12470E-04
  493.00      5.99830E-04
  495.00      6.04910E-04
  497.00      6.01530E-04
  499.00      5.97270E-04
  501.00      5.88170E-04
  503.00      5.88490E-04
  505.00      5.83000E-04
  507.00      5.80680E-04
  509.00      5.76600E-04
  511.00      5.72610E-04
  513.00      5.68670E-04
  515.00      5.64730E-04
  517.00      5.60740E-04
  519.00      5.57000E-04
  521.00      5.53220E-04
  523.00      5.49490E-04
  525.00      5.45640E-04
  527.00      5.41860E-04
  529.00      5.38420E-04
  531.00      5.34810E-04
  533.00      5.31230E-04
  535.00      5.27690E-04
  537.00      5.24190E-04
  539.00      5.20670E-04
  541.00      5.10400E-04
  543.00      5.13870E-04
  545.00      5.10510E-04
  547.00      5.07160E-04
  549.00      5.03860E-04
  551.00      5.00520E-04
  553.00      4.97350E-04
  555.00      4.94150E-04
  557.00      4.90960E-04
  559.00      4.87380E-04
  561.00      4.84700E-04
  563.00      4.81610E-04
  565.00      4.78550E-04
  567.00      4.75480E-04
  569.00      4.69400E-04
  571.00      4.57260E-04
  573.00      4.54570E-04
  575.00      4.51770E-04
  577.00      4.49220E-04
  579.00      4.46560E-04
  581.00      4.43840E-04
  583.00      4.41320E-04
  585.00      4.39140E-04
  587.00      4.28530E-04
  589.00      4.34460E-04
  591.00      4.33320E-04
  593.00      4.31680E-04
  595.00      4.30120E-04
  597.00      4.28690E-04
  599.00      4.27290E-04
  601.00      4.25840E-04
  603.00      4.24130E-04
  605.00      4.22980E-04
  607.00      4.20750E-04
  609.00      4.18250E-04
  611.00      4.15770E-04
  613.00      4.13320E-04
  615.00      4.10850E-04
  617.00      4.08430E-04
  619.00      4.06080E-04
  621.00      4.03710E-04
  623.00      4.01350E-04
  625.00      3.99020E-04
  627.00      3.96710E-04
  629.00      3.94420E-04
  631.00      3.92070E-04
  633.00      3.89900E-04
  635.00      3.87660E-04
  637.00      3.85450E-04
  639.00      3.83250E-04
  641.00      3.80730E-04
  643.00      3.78920E-04
  645.00      3.76780E-04
  647.00      3.74620E-04
  649.00      3.72520E-04
  651.00      3.70040E-04
  653.00      3.65940E-04
  655.00      3.55640E-04
  657.00      3.28040E-04
  659.00      3.59400E-04
  661.00      3.59860E-04
  663.00      3.58320E-04
  665.00      3.56390E-04
  667.00      3.51400E-04
  669.00      3.48810E-04
  671.00      3.50320E-04
  673.00      3.48600E-04
  675.00      3.46770E-04
  677.00      3.44960E-04
  679.00      3.43080E-04
  681.00      3.41260E-04
  683.00      3.39420E-04
  685.00      3.37610E-04
  687.00      3.35790E-04
  689.00      3.32800E-04
  691.00      3.32130E-04
  693.00      3.30500E-04
  695.00      3.28760E-04
  697.00      3.27030E-04
  699.00      3.25310E-04
  701.00      3.23570E-04
  703.00      3.21830E-04
  705.00      3.20170E-04
  707.00      3.15290E-04
  709.00      3.16930E-04
  711.00      3.15280E-04
  713.00      3.13670E-04
  715.00      3.12060E-04
  717.00      3.09620E-04
  719.00      3.08340E-04
  721.00      3.07300E-04
  723.00      3.05620E-04
  725.00      3.04150E-04
  727.00      3.02640E-04
  729.00      2.99590E-04
  731.00      2.99570E-04
  733.00      2.98090E-04
  735.00      2.96600E-04
  737.00      2.95110E-04
  739.00      2.93640E-04
  741.00      2.92180E-04
  743.00      2.90730E-04
  745.00      2.89290E-04
  747.00      2.87850E-04
  749.00      2.86370E-04
  751.00      2.85010E-04
  753.00      2.83650E-04
  755.00      2.82270E-04
  757.00      2.80890E-04
  759.00      2.78000E-04
  761.00      2.78080E-04
  763.00      2.76810E-04
  765.00      2.75460E-04
  767.00      2.74150E-04
  769.00      2.72740E-04
  771.00      2.71510E-04
  773.00      2.70070E-04
  775.00      2.68940E-04
  777.00      2.67660E-04
  779.00      2.66390E-04
  781.00      2.65070E-04
  783.00      2.63870E-04
  785.00      2.62720E-04
  787.00      2.61440E-04
  789.00      2.60200E-04
  791.00      2.59050E-04
  793.00      2.57840E-04
  795.00      2.56640E-04
  797.00      2.55400E-04
  799.00      2.54260E-04
  801.00      2.53080E-04
  803.00      2.51900E-04
  805.00      2.50750E-04
  807.00      2.49600E-04
  809.00      2.48350E-04
  811.00      2.47150E-04
  813.00      2.46180E-04
  815.00      2.44920E-04
  817.00      2.43920E-04
  819.00      2.42340E-04
  821.00      2.38370E-04
  823.00      2.36540E-04
  825.00      2.36210E-04
  827.00      2.35050E-04
  829.00      2.34430E-04
  831.00      2.33470E-04
  833.00      2.32320E-04
  835.00      2.30930E-04
  837.00      2.30250E-04
  839.00      2.29400E-04
  841.00      2.28410E-04
  843.00      2.27390E-04
  845.00      2.25840E-04
  847.00      2.25500E-04
  849.00      2.24420E-04
  851.00      2.23520E-04
  853.00      2.22480E-04
  855.00      2.21620E-04
  857.00      2.21080E-04
  859.00      2.18630E-04
  861.00      2.18740E-04
  863.00      2.18870E-04
  865.00      2.16700E-04
  867.00      2.14420E-04
  869.00      2.16340E-04
  871.00      2.16330E-04
  873.00      2.13520E-04
  875.00      2.08340E-04
  877.00      2.10860E-04
  879.00      2.13420E-04
  881.00      2.13270E-04
  883.00      2.11690E-04
  885.00      2.05100E-04
  887.00      2.00040E-04
  889.00      2.07760E-04
  891.00      2.09380E-04
  893.00      2.09080E-04
  895.00      2.08470E-04
  897.00      2.07130E-04
  899.00      2.03020E-04
  901.00      1.91950E-04
  903.00      1.95610E-04
  905.00      2.02250E-04
  907.00      2.02000E-04
  909.00      2.02570E-04
  911.00      2.02180E-04
  913.00      2.01710E-04
  915.00      2.00540E-04
  917.00      1.99180E-04
  919.00      1.97490E-04
  921.00      1.91290E-04
  923.00      1.79330E-04
  925.00      1.89500E-04
  927.00      1.94040E-04
  929.00      1.94500E-04
  931.00      1.93760E-04
  933.00      1.93530E-04
  935.00      1.90740E-04
  937.00      1.92080E-04
  939.00      1.91390E-04
  941.00      1.90590E-04
  943.00      1.89850E-04
  945.00      1.89070E-04
  947.00      1.87360E-04
  949.00      1.86810E-04
  951.00      1.83940E-04
  953.00      1.77760E-04
  955.00      1.66700E-04
  957.00      1.78750E-04
  959.00      1.82240E-04
  961.00      1.82330E-04
  963.00      1.81680E-04
  965.00      1.81760E-04
  967.00      1.81050E-04
  969.00      1.80260E-04
  971.00      1.78950E-04
  973.00      1.78890E-04
  975.00      1.78240E-04
  977.00      1.77530E-04
  979.00      1.76860E-04
  981.00      1.76170E-04
  983.00      1.75500E-04
  985.00      1.74820E-04
  987.00      1.74160E-04
  989.00      1.73470E-04
  991.00      1.72760E-04
  993.00      1.72160E-04
  995.00      1.71510E-04
  997.00      1.70670E-04
  999.00      1.69590E-04
  1002.5      1.63010E-04
  1007.5      1.59920E-04
  1012.5      1.63940E-04
  1017.5      1.64380E-04
  1022.5      1.62810E-04
  1027.5      1.61350E-04
  1032.5      1.59420E-04
  1037.5      1.58410E-04
  1042.5      1.56890E-04
  1047.5      1.55540E-04
  1052.5      1.54140E-04
  1057.5      1.52750E-04
  1062.5      1.51390E-04
  1067.5      1.49890E-04
  1072.5      1.48710E-04
  1077.5      1.47400E-04
  1082.5      1.45170E-04
  1087.5      1.44190E-04
  1092.5      1.34720E-04
  1097.5      1.39190E-04
  1102.5      1.40420E-04
  1107.5      1.39780E-04
  1112.5      1.38680E-04
  1117.5      1.37510E-04
  1122.5      1.36300E-04
  1127.5      1.35190E-04
  1132.5      1.34040E-04
  1137.5      1.32920E-04
  1142.5      1.31810E-04
  1147.5      1.30720E-04
  1152.5      1.29640E-04
  1157.5      1.28570E-04
  1162.5      1.26970E-04
  1167.5      1.26290E-04
  1172.5      1.25440E-04
  1177.5      1.24420E-04
  1182.5      1.23410E-04
  1187.5      1.22420E-04
  1192.5      1.21440E-04
  1197.5      1.19550E-04
  1202.5      1.19520E-04
  1207.5      1.18570E-04
  1212.5      1.17630E-04
  1217.5      1.16710E-04
  1222.5      1.15800E-04
  1227.5      1.14890E-04
  1232.5      1.14000E-04
  1237.5      1.13120E-04
  1242.5      1.12250E-04
  1247.5      1.11390E-04
  1252.5      1.10400E-04
  1257.5      1.09690E-04
  1262.5      1.08860E-04
  1267.5      1.08040E-04
  1272.5      1.07120E-04
  1277.5      1.04760E-04
  1282.5      9.89950E-05
  1287.5      1.04040E-04
  1292.5      1.03990E-04
  1297.5      1.02850E-04
  1302.5      1.02520E-04
  1307.5      1.01780E-04
  1312.5      1.01030E-04
  1317.5      1.00290E-04
  1322.5      9.95670E-05
  1327.5      9.88460E-05
  1332.5      9.81340E-05
  1337.5      9.74280E-05
  1342.5      9.66880E-05
  1347.5      9.60410E-05
  1352.5      9.53570E-05
  1357.5      9.46840E-05
  1362.5      9.40100E-05
  1367.5      9.33550E-05
  1372.5      9.26920E-05
  1377.5      9.20540E-05
  1382.5      9.14140E-05
  1387.5      9.07800E-05
  1392.5      9.01500E-05
  1397.5      8.95320E-05
