 Castelli and Kurucz 2004-2012 Atmosphere
 T     35000.     G    4.00000 [-1.0a] N(He)/Ntot=0.0784 VTURB=2.0  L/H=1.25 OD
 Wavelength  Eddington Hnu
   (nm)    (ergs/s/cm2/Hz/sr)
  9.0900      2.53010E-29
  9.3500      1.21820E-28
  9.6100      5.41690E-28
  9.7700      1.31240E-27
  9.9600      3.62410E-27
  10.200      1.24550E-26
  10.380      3.04410E-26
  10.560      7.24120E-26
  10.770      1.92670E-25
  11.040      6.46050E-25
  11.400      2.99760E-24
  11.780      1.38770E-23
  12.130      5.28100E-23
  12.480      1.88040E-22
  12.710      4.18860E-22
  12.840      6.51320E-22
  13.050      1.30620E-21
  13.240      2.40860E-21
  13.390      3.86200E-21
  13.660      8.82420E-21
  13.980      2.26410E-20
  14.330      6.06360E-20
  14.720      1.72220E-19
  15.100      4.55490E-19
  15.520      1.26270E-18
  15.880      2.90550E-18
  16.200      5.91550E-18
  16.600      1.38850E-17
  17.030      3.32420E-17
  17.340      6.08140E-17
  17.680      1.15260E-16
  18.020      2.13240E-16
  18.170      2.77880E-16
  18.610      5.89920E-16
  19.100      1.31110E-15
  19.390      2.06470E-15
  19.840      4.07450E-15
  20.180      6.67650E-15
  20.500      1.04720E-14
  21.050      2.20260E-14
  21.620      4.57340E-14
  21.980      7.13600E-14
  22.300      1.04610E-13
  22.680      1.62030E-13
  23.000      2.29190E-10
  23.400      9.89270E-10
  24.000      1.76370E-09
  24.650      3.19040E-09
  25.240      5.81800E-09
  25.680      5.77620E-09
  26.000      1.20510E-08
  26.400      4.13100E-08
  26.850      7.35910E-08
  27.350      9.54960E-08
  27.850      7.64990E-08
  28.400      2.05400E-07
  29.000      2.56560E-07
  29.600      1.77350E-07
  30.100      1.15080E-07
  30.800      4.44400E-07
  31.800      1.11990E-06
  32.800      1.70250E-06
  33.800      2.21350E-06
  34.800      2.93950E-06
  35.700      5.03010E-06
  36.600      8.17960E-06
  37.500      9.31590E-06
  38.500      1.06190E-05
  39.500      1.39850E-05
  40.500      1.68050E-05
  41.400      1.86030E-05
  42.200      1.92710E-05
  43.000      1.98950E-05
  44.100      2.34510E-05
  45.100      2.62260E-05
  46.000      2.70110E-05
  47.000      2.98080E-05
  48.000      3.38840E-05
  49.000      3.43960E-05
  50.000      4.17820E-05
  50.600      7.76760E-05
  51.200      2.44290E-04
  52.000      2.33820E-04
  53.000      2.21760E-04
  54.000      2.13870E-04
  55.000      2.22100E-04
  56.000      2.84420E-04
  57.000      3.07580E-04
  58.000      3.00110E-04
  59.000      3.20710E-04
  60.000      2.84660E-04
  61.000      3.15570E-04
  62.000      3.74950E-04
  63.000      3.77220E-04
  64.000      3.99140E-04
  65.000      3.98660E-04
  65.800      3.64160E-04
  66.500      4.10100E-04
  67.500      4.49470E-04
  68.500      4.12430E-04
  69.500      4.66540E-04
  70.500      4.13990E-04
  71.600      5.05220E-04
  72.600      5.14710E-04
  73.500      5.32520E-04
  74.500      5.18410E-04
  75.500      5.26310E-04
  76.500      5.36710E-04
  77.500      5.58420E-04
  78.500      5.62460E-04
  79.500      5.84880E-04
  80.500      5.86800E-04
  81.500      6.02520E-04
  82.500      6.25820E-04
  83.500      5.65530E-04
  84.500      6.39440E-04
  85.500      6.44300E-04
  86.500      6.67990E-04
  87.500      6.78550E-04
  88.500      6.88270E-04
  89.500      6.99300E-04
  90.500      6.98810E-04
  91.500      6.91710E-04
  92.500      1.52860E-03
  93.500      2.08740E-03
  94.500      2.51350E-03
  95.500      2.74420E-03
  96.500      3.02770E-03
  97.500      2.24460E-03
  98.500      2.87340E-03
  99.500      2.73660E-03
  100.50      2.79450E-03
  101.50      2.89360E-03
  102.50      2.49680E-03
  103.50      2.90910E-03
  104.50      3.02700E-03
  105.50      3.01430E-03
  106.50      2.89440E-03
  107.50      2.93050E-03
  108.50      2.82900E-03
  109.50      2.96360E-03
  110.50      2.90690E-03
  111.50      2.89560E-03
  112.50      2.73140E-03
  113.50      2.90070E-03
  114.50      2.87620E-03
  115.50      2.81020E-03
  116.50      2.81250E-03
  117.50      2.44330E-03
  118.50      2.71100E-03
  119.50      2.70420E-03
  120.50      2.67140E-03
  121.50      2.27100E-03
  122.50      2.66460E-03
  123.50      2.72250E-03
  124.50      2.68860E-03
  125.50      2.71440E-03
  126.50      2.73130E-03
  127.50      2.73920E-03
  128.50      2.74130E-03
  129.50      2.67230E-03
  130.50      2.67340E-03
  131.50      2.70960E-03
  132.50      2.68120E-03
  133.50      2.65930E-03
  134.50      2.66950E-03
  135.50      2.63660E-03
  136.50      2.60500E-03
  137.50      2.58230E-03
  138.50      2.57900E-03
  139.50      2.42160E-03
  140.50      2.40320E-03
  141.50      2.54100E-03
  142.50      2.44550E-03
  143.50      2.50370E-03
  144.20      2.49570E-03
  144.70      2.48810E-03
  145.50      2.45020E-03
  146.50      2.45380E-03
  147.50      2.44370E-03
  148.50      2.45730E-03
  149.50      2.42310E-03
  150.50      2.42980E-03
  151.20      2.43330E-03
  151.70      2.41290E-03
  152.50      2.38890E-03
  153.50      2.27980E-03
  154.50      2.12700E-03
  155.50      2.14080E-03
  156.50      2.21620E-03
  157.50      2.26710E-03
  158.50      2.27030E-03
  159.50      2.26620E-03
  160.50      2.18690E-03
  161.50      2.15700E-03
  162.50      2.15830E-03
  163.50      2.15860E-03
  164.50      2.10090E-03
  165.50      2.19800E-03
  166.50      2.17200E-03
  167.20      2.11290E-03
  167.70      2.22600E-03
  168.50      2.19830E-03
  169.50      2.18620E-03
  170.50      2.16180E-03
  171.50      2.12220E-03
  172.50      2.10490E-03
  173.50      2.15520E-03
  174.50      2.14090E-03
  175.50      2.11580E-03
  176.50      2.11770E-03
  177.50      2.11170E-03
  178.50      2.10860E-03
  179.50      2.08330E-03
  180.50      2.08260E-03
  181.50      2.06930E-03
  182.50      2.05390E-03
  183.50      2.05950E-03
  184.50      2.03820E-03
  185.50      2.02440E-03
  186.50      2.01370E-03
  187.50      1.99670E-03
  188.50      1.98530E-03
  189.50      1.98720E-03
  190.50      1.98730E-03
  191.50      1.97020E-03
  192.50      1.92730E-03
  193.50      1.95390E-03
  194.50      1.94860E-03
  195.50      1.91670E-03
  196.70      1.92160E-03
  197.60      1.91560E-03
  198.40      1.90580E-03
  199.50      1.88890E-03
  200.50      1.88940E-03
  201.50      1.87970E-03
  202.50      1.86880E-03
  203.50      1.85740E-03
  204.50      1.84450E-03
  205.50      1.48390E-03
  206.50      1.44960E-03
  207.40      1.50000E-03
  207.80      1.53540E-03
  208.50      1.65820E-03
  209.50      1.77890E-03
  210.50      1.78300E-03
  211.50      1.78730E-03
  212.50      1.76910E-03
  213.50      1.76740E-03
  214.50      1.75980E-03
  215.50      1.77310E-03
  216.50      1.72030E-03
  217.50      1.75930E-03
  218.50      1.71490E-03
  219.50      1.74260E-03
  220.50      1.73310E-03
  221.50      1.68670E-03
  222.50      1.71330E-03
  223.50      1.70480E-03
  224.50      1.69450E-03
  225.50      1.65270E-03
  226.50      1.67660E-03
  227.50      1.66860E-03
  228.50      1.65250E-03
  229.50      1.61230E-03
  230.50      1.60830E-03
  231.50      1.62800E-03
  232.50      1.62240E-03
  233.50      1.61420E-03
  234.50      1.60500E-03
  235.50      1.59580E-03
  236.50      1.58710E-03
  237.50      1.57670E-03
  238.50      1.53010E-03
  239.50      1.55080E-03
  240.50      1.55190E-03
  241.50      1.54170E-03
  242.50      1.53680E-03
  243.50      1.52690E-03
  244.50      1.51950E-03
  245.50      1.50810E-03
  246.50      1.50360E-03
  247.50      1.49650E-03
  248.50      1.48500E-03
  249.50      1.32840E-03
  250.50      1.46310E-03
  251.30      1.39870E-03
  251.80      1.43950E-03
  252.50      1.45540E-03
  253.50      1.45010E-03
  254.50      1.44170E-03
  255.50      1.43360E-03
  256.50      1.42690E-03
  257.50      1.42010E-03
  258.50      1.41290E-03
  259.50      1.40060E-03
  260.50      1.39930E-03
  261.50      1.39000E-03
  262.50      1.38500E-03
  263.50      1.37820E-03
  264.50      1.37000E-03
  265.50      1.36360E-03
  266.50      1.35520E-03
  267.50      1.34380E-03
  268.50      1.34200E-03
  269.50      1.33360E-03
  270.50      1.33010E-03
  271.50      1.32250E-03
  272.50      1.31320E-03
  273.50      1.28460E-03
  274.50      1.30360E-03
  275.50      1.29650E-03
  276.50      1.28700E-03
  277.50      1.28400E-03
  278.50      1.27630E-03
  279.50      1.26350E-03
  280.50      1.26320E-03
  281.50      1.25820E-03
  282.50      1.24870E-03
  283.50      1.24460E-03
  284.50      1.24060E-03
  285.50      1.23420E-03
  286.50      1.22760E-03
  287.50      1.22170E-03
  288.50      1.21600E-03
  289.50      1.20970E-03
  291.00      1.20010E-03
  293.00      1.18960E-03
  295.00      1.17540E-03
  297.00      1.16550E-03
  299.00      1.15200E-03
  301.00      1.14170E-03
  303.00      1.12780E-03
  305.00      1.11930E-03
  307.00      1.11080E-03
  309.00      1.09910E-03
  311.00      1.08980E-03
  313.00      1.07940E-03
  315.00      1.07000E-03
  317.00      1.06010E-03
  319.00      1.04850E-03
  321.00      1.03090E-03
  323.00      1.03250E-03
  325.00      1.02360E-03
  327.00      1.00990E-03
  329.00      1.00400E-03
  331.00      9.95080E-04
  333.00      9.86050E-04
  335.00      9.75150E-04
  337.00      9.68750E-04
  339.00      9.60990E-04
  341.00      9.52320E-04
  343.00      9.43570E-04
  345.00      9.32860E-04
  347.00      9.27130E-04
  349.00      9.19830E-04
  351.00      9.12330E-04
  353.00      9.04080E-04
  355.00      8.96090E-04
  357.00      8.90260E-04
  359.00      8.80510E-04
  361.00      8.73750E-04
  363.00      8.65200E-04
  364.00      8.54190E-04
  365.00      8.04410E-04
  367.00      7.99230E-04
  369.00      7.94460E-04
  371.00      7.89640E-04
  373.00      7.88450E-04
  375.00      8.02260E-04
  377.00      8.04880E-04
  379.00      8.19650E-04
  381.00      8.35380E-04
  383.00      7.89430E-04
  385.00      8.37000E-04
  387.00      8.34320E-04
  389.00      7.70360E-04
  391.00      8.28070E-04
  393.00      8.15840E-04
  395.00      8.13290E-04
  397.00      7.42290E-04
  399.00      8.02000E-04
  401.00      7.95300E-04
  403.00      7.76360E-04
  405.00      7.85910E-04
  407.00      7.76330E-04
  409.00      7.55130E-04
  411.00      7.12480E-04
  413.00      7.57510E-04
  415.00      7.52280E-04
  417.00      7.49290E-04
  419.00      7.41950E-04
  421.00      7.31600E-04
  423.00      7.32720E-04
  425.00      7.26320E-04
  427.00      7.20490E-04
  429.00      7.15150E-04
  431.00      7.08700E-04
  433.00      6.86650E-04
  435.00      6.55950E-04
  437.00      6.93350E-04
  439.00      6.83730E-04
  441.00      6.82570E-04
  443.00      6.78350E-04
  445.00      6.73660E-04
  447.00      6.60020E-04
  449.00      6.63690E-04
  451.00      6.58550E-04
  453.00      6.53920E-04
  455.00      6.43030E-04
  457.00      6.44950E-04
  459.00      6.39660E-04
  461.00      6.35190E-04
  463.00      6.29280E-04
  465.00      6.17830E-04
  467.00      6.20850E-04
  469.00      6.02920E-04
  471.00      6.09310E-04
  473.00      6.09390E-04
  475.00      6.05020E-04
  477.00      6.00820E-04
  479.00      5.96650E-04
  481.00      5.92380E-04
  483.00      5.87980E-04
  485.00      5.73390E-04
  487.00      5.40870E-04
  489.00      5.75390E-04
  491.00      5.72010E-04
  493.00      5.63500E-04
  495.00      5.63970E-04
  497.00      5.60660E-04
  499.00      5.56880E-04
  501.00      5.50120E-04
  503.00      5.49150E-04
  505.00      5.44610E-04
  507.00      5.42040E-04
  509.00      5.38420E-04
  511.00      5.34850E-04
  513.00      5.31290E-04
  515.00      5.27770E-04
  517.00      5.24230E-04
  519.00      5.20840E-04
  521.00      5.17450E-04
  523.00      5.14090E-04
  525.00      5.10610E-04
  527.00      5.07160E-04
  529.00      5.04140E-04
  531.00      5.00880E-04
  533.00      4.97650E-04
  535.00      4.94470E-04
  537.00      4.91310E-04
  539.00      4.88150E-04
  541.00      4.79950E-04
  543.00      4.82000E-04
  545.00      4.78960E-04
  547.00      4.75930E-04
  549.00      4.72950E-04
  551.00      4.69870E-04
  553.00      4.67060E-04
  555.00      4.64150E-04
  557.00      4.61250E-04
  559.00      4.57820E-04
  561.00      4.55590E-04
  563.00      4.52790E-04
  565.00      4.50010E-04
  567.00      4.47250E-04
  569.00      4.40800E-04
  571.00      4.25860E-04
  573.00      4.23440E-04
  575.00      4.20970E-04
  577.00      4.18680E-04
  579.00      4.16460E-04
  581.00      4.14370E-04
  583.00      4.12910E-04
  585.00      4.11830E-04
  587.00      4.05350E-04
  589.00      4.09590E-04
  591.00      4.08790E-04
  593.00      4.08060E-04
  595.00      4.07540E-04
  597.00      4.06880E-04
  599.00      4.06000E-04
  601.00      4.04490E-04
  603.00      4.02080E-04
  605.00      3.99810E-04
  607.00      3.97450E-04
  609.00      3.95230E-04
  611.00      3.92780E-04
  613.00      3.90540E-04
  615.00      3.88470E-04
  617.00      3.85700E-04
  619.00      3.84060E-04
  621.00      3.81890E-04
  623.00      3.79050E-04
  625.00      3.77520E-04
  627.00      3.75460E-04
  629.00      3.73360E-04
  631.00      3.70310E-04
  633.00      3.69190E-04
  635.00      3.67140E-04
  637.00      3.65110E-04
  639.00      3.63080E-04
  641.00      3.59910E-04
  643.00      3.59090E-04
  645.00      3.57110E-04
  647.00      3.55120E-04
  649.00      3.53200E-04
  651.00      3.51260E-04
  653.00      3.47500E-04
  655.00      3.43740E-04
  657.00      3.21360E-04
  659.00      3.43210E-04
  661.00      3.41890E-04
  663.00      3.40070E-04
  665.00      3.38270E-04
  667.00      3.34510E-04
  669.00      3.31310E-04
  671.00      3.32640E-04
  673.00      3.31050E-04
  675.00      3.29340E-04
  677.00      3.27660E-04
  679.00      3.25950E-04
  681.00      3.24250E-04
  683.00      3.22550E-04
  685.00      3.20860E-04
  687.00      3.19190E-04
  689.00      3.15680E-04
  691.00      3.15810E-04
  693.00      3.14260E-04
  695.00      3.12640E-04
  697.00      3.11040E-04
  699.00      3.09440E-04
  701.00      3.07810E-04
  703.00      3.06180E-04
  705.00      3.04650E-04
  707.00      3.00600E-04
  709.00      3.01650E-04
  711.00      3.00110E-04
  713.00      2.98610E-04
  715.00      2.97110E-04
  717.00      2.94330E-04
  719.00      2.93600E-04
  721.00      2.92680E-04
  723.00      2.91170E-04
  725.00      2.89750E-04
  727.00      2.88340E-04
  729.00      2.85750E-04
  731.00      2.85460E-04
  733.00      2.84100E-04
  735.00      2.82700E-04
  737.00      2.81310E-04
  739.00      2.79950E-04
  741.00      2.78570E-04
  743.00      2.77230E-04
  745.00      2.75860E-04
  747.00      2.74550E-04
  749.00      2.73140E-04
  751.00      2.71880E-04
  753.00      2.70620E-04
  755.00      2.69320E-04
  757.00      2.68030E-04
  759.00      2.64960E-04
  761.00      2.65420E-04
  763.00      2.64210E-04
  765.00      2.62960E-04
  767.00      2.61730E-04
  769.00      2.60380E-04
  771.00      2.59250E-04
  773.00      2.57890E-04
  775.00      2.56850E-04
  777.00      2.55650E-04
  779.00      2.54460E-04
  781.00      2.53230E-04
  783.00      2.52100E-04
  785.00      2.50990E-04
  787.00      2.49800E-04
  789.00      2.48660E-04
  791.00      2.47560E-04
  793.00      2.46430E-04
  795.00      2.45300E-04
  797.00      2.44110E-04
  799.00      2.43060E-04
  801.00      2.41960E-04
  803.00      2.40840E-04
  805.00      2.39770E-04
  807.00      2.38690E-04
  809.00      2.37510E-04
  811.00      2.36370E-04
  813.00      2.35480E-04
  815.00      2.34260E-04
  817.00      2.33340E-04
  819.00      2.31770E-04
  821.00      2.26630E-04
  823.00      2.24880E-04
  825.00      2.24750E-04
  827.00      2.23600E-04
  829.00      2.22930E-04
  831.00      2.22010E-04
  833.00      2.20970E-04
  835.00      2.19750E-04
  837.00      2.19070E-04
  839.00      2.18270E-04
  841.00      2.17430E-04
  843.00      2.16540E-04
  845.00      2.15310E-04
  847.00      2.14860E-04
  849.00      2.14060E-04
  851.00      2.12990E-04
  853.00      2.12610E-04
  855.00      2.10910E-04
  857.00      2.11870E-04
  859.00      2.08840E-04
  861.00      2.08510E-04
  863.00      2.10310E-04
  865.00      2.08180E-04
  867.00      2.03080E-04
  869.00      2.08330E-04
  871.00      2.08520E-04
  873.00      2.06260E-04
  875.00      1.97460E-04
  877.00      2.03780E-04
  879.00      2.06110E-04
  881.00      2.05530E-04
  883.00      2.04530E-04
  885.00      1.99010E-04
  887.00      1.91360E-04
  889.00      2.01260E-04
  891.00      2.01630E-04
  893.00      2.00840E-04
  895.00      2.00230E-04
  897.00      1.99350E-04
  899.00      1.96850E-04
  901.00      1.85760E-04
  903.00      1.90700E-04
  905.00      1.95510E-04
  907.00      1.94560E-04
  909.00      1.94430E-04
  911.00      1.93790E-04
  913.00      1.93130E-04
  915.00      1.92360E-04
  917.00      1.91380E-04
  919.00      1.90450E-04
  921.00      1.86700E-04
  923.00      1.74780E-04
  925.00      1.85410E-04
  927.00      1.87310E-04
  929.00      1.86980E-04
  931.00      1.85950E-04
  933.00      1.85480E-04
  935.00      1.82890E-04
  937.00      1.83800E-04
  939.00      1.83320E-04
  941.00      1.82570E-04
  943.00      1.81870E-04
  945.00      1.81160E-04
  947.00      1.80050E-04
  949.00      1.79710E-04
  951.00      1.77850E-04
  953.00      1.74410E-04
  955.00      1.63680E-04
  957.00      1.74860E-04
  959.00      1.75980E-04
  961.00      1.75390E-04
  963.00      1.74530E-04
  965.00      1.74230E-04
  967.00      1.73560E-04
  969.00      1.72840E-04
  971.00      1.71560E-04
  973.00      1.71520E-04
  975.00      1.70910E-04
  977.00      1.69890E-04
  979.00      1.69610E-04
  981.00      1.68960E-04
  983.00      1.68310E-04
  985.00      1.67680E-04
  987.00      1.67050E-04
  989.00      1.66410E-04
  991.00      1.65760E-04
  993.00      1.65170E-04
  995.00      1.64550E-04
  997.00      1.63930E-04
  999.00      1.63320E-04
  1002.5      1.59080E-04
  1007.5      1.56210E-04
  1012.5      1.57720E-04
  1017.5      1.57800E-04
  1022.5      1.56330E-04
  1027.5      1.54930E-04
  1032.5      1.53220E-04
  1037.5      1.52150E-04
  1042.5      1.50560E-04
  1047.5      1.49430E-04
  1052.5      1.48100E-04
  1057.5      1.46790E-04
  1062.5      1.45500E-04
  1067.5      1.44120E-04
  1072.5      1.42960E-04
  1077.5      1.41710E-04
  1082.5      1.39670E-04
  1087.5      1.39210E-04
  1092.5      1.32270E-04
  1097.5      1.35720E-04
  1102.5      1.35430E-04
  1107.5      1.34550E-04
  1112.5      1.33430E-04
  1117.5      1.32330E-04
  1122.5      1.31190E-04
  1127.5      1.30120E-04
  1132.5      1.29030E-04
  1137.5      1.27960E-04
  1142.5      1.26910E-04
  1147.5      1.25870E-04
  1152.5      1.24840E-04
  1157.5      1.23820E-04
  1162.5      1.22280E-04
  1167.5      1.21530E-04
  1172.5      1.20840E-04
  1177.5      1.19870E-04
  1182.5      1.18900E-04
  1187.5      1.17960E-04
  1192.5      1.17030E-04
  1197.5      1.15580E-04
  1202.5      1.15190E-04
  1207.5      1.14280E-04
  1212.5      1.13390E-04
  1217.5      1.12510E-04
  1222.5      1.11640E-04
  1227.5      1.10780E-04
  1232.5      1.09930E-04
  1237.5      1.09080E-04
  1242.5      1.08250E-04
  1247.5      1.07430E-04
  1252.5      1.06520E-04
  1257.5      1.05810E-04
  1262.5      1.05010E-04
  1267.5      1.04230E-04
  1272.5      1.03450E-04
  1277.5      1.01850E-04
  1282.5      9.75920E-05
  1287.5      1.00980E-04
  1292.5      1.00420E-04
  1297.5      9.94030E-05
  1302.5      9.89550E-05
  1307.5      9.82410E-05
  1312.5      9.75290E-05
  1317.5      9.68240E-05
  1322.5      9.61270E-05
  1327.5      9.54380E-05
  1332.5      9.47560E-05
  1337.5      9.40800E-05
  1342.5      9.33780E-05
  1347.5      9.27520E-05
  1352.5      9.20970E-05
  1357.5      9.14520E-05
  1362.5      9.08090E-05
  1367.5      9.01790E-05
  1372.5      8.95450E-05
  1377.5      8.89320E-05
  1382.5      8.83180E-05
  1387.5      8.77110E-05
  1392.5      8.71070E-05
  1397.5      8.65140E-05
