 Castelli and Kurucz 2004-2012 Atmosphere
 T     50000.     G    5.00000 [-1.0a] N(He)/Ntot=0.0784 VTURB=2.0  L/H=1.25 OD
 Wavelength  Eddington Hnu
   (nm)    (ergs/s/cm2/Hz/sr)
  9.0900      6.19360E-18
  9.3500      1.61380E-17
  9.6100      3.92790E-17
  9.7700      6.77410E-17
  9.9600      1.24450E-16
  10.200      2.59660E-16
  10.380      4.40920E-16
  10.560      7.35130E-16
  10.770      1.30580E-15
  11.040      2.64500E-15
  11.400      6.42990E-15
  11.780      1.54420E-14
  12.130      3.31640E-14
  12.480      6.78520E-14
  12.710      1.06620E-13
  12.840      1.38820E-13
  13.050      2.04470E-13
  13.240      2.87680E-13
  13.390      3.74590E-13
  13.660      5.90480E-13
  13.980      9.99050E-13
  14.330      1.71550E-12
  14.720      2.95600E-12
  15.100      5.18160E-12
  15.520      9.08500E-12
  15.880      1.44300E-11
  16.200      2.24980E-11
  16.600      3.62210E-11
  17.030      5.73810E-11
  17.340      7.96420E-11
  17.680      1.14510E-10
  18.020      1.61660E-10
  18.170      1.82820E-10
  18.610      2.83010E-10
  19.100      4.33880E-10
  19.390      5.69700E-10
  19.840      8.26830E-10
  20.180      1.08400E-09
  20.500      1.40020E-09
  21.050      2.11360E-09
  21.620      3.16280E-09
  21.980      4.08690E-09
  22.300      5.02580E-09
  22.680      6.33340E-09
  23.000      4.25770E-07
  23.400      4.65190E-06
  24.000      2.35780E-05
  24.650      9.59220E-05
  25.240      2.44310E-04
  25.680      2.86170E-04
  26.000      3.69540E-04
  26.400      6.28590E-04
  26.850      6.95090E-04
  27.350      8.14070E-04
  27.850      7.33100E-04
  28.400      9.97670E-04
  29.000      1.17740E-03
  29.600      1.06800E-03
  30.100      6.13380E-04
  30.800      7.24690E-04
  31.800      4.59710E-04
  32.800      5.39830E-04
  33.800      3.96610E-04
  34.800      4.08390E-04
  35.700      7.90900E-04
  36.600      1.17890E-03
  37.500      1.38850E-03
  38.500      1.33500E-03
  39.500      1.73240E-03
  40.500      2.13310E-03
  41.400      2.18470E-03
  42.200      2.13090E-03
  43.000      2.10630E-03
  44.100      2.40440E-03
  45.100      2.51970E-03
  46.000      2.37380E-03
  47.000      2.51440E-03
  48.000      2.68630E-03
  49.000      2.52330E-03
  50.000      2.90470E-03
  50.600      2.67250E-03
  51.200      3.01440E-03
  52.000      2.97040E-03
  53.000      2.96290E-03
  54.000      2.72760E-03
  55.000      2.47660E-03
  56.000      2.97290E-03
  57.000      3.17610E-03
  58.000      3.20460E-03
  59.000      3.27520E-03
  60.000      3.14550E-03
  61.000      2.88890E-03
  62.000      3.26610E-03
  63.000      3.14600E-03
  64.000      3.39360E-03
  65.000      3.29900E-03
  65.800      3.14630E-03
  66.500      3.41260E-03
  67.500      3.46310E-03
  68.500      3.30830E-03
  69.500      3.51300E-03
  70.500      3.30480E-03
  71.600      3.53050E-03
  72.600      3.59940E-03
  73.500      3.60780E-03
  74.500      3.56970E-03
  75.500      3.52590E-03
  76.500      3.43090E-03
  77.500      3.57030E-03
  78.500      3.43510E-03
  79.500      3.55670E-03
  80.500      3.60910E-03
  81.500      3.62940E-03
  82.500      3.65470E-03
  83.500      3.48360E-03
  84.500      3.64910E-03
  85.500      3.57620E-03
  86.500      3.67080E-03
  87.500      3.69580E-03
  88.500      3.65920E-03
  89.500      3.67230E-03
  90.500      3.62740E-03
  91.500      2.75980E-03
  92.500      4.23870E-03
  93.500      5.23880E-03
  94.500      6.18930E-03
  95.500      6.96990E-03
  96.500      7.71400E-03
  97.500      6.24900E-03
  98.500      7.44180E-03
  99.500      6.92760E-03
  100.50      7.31720E-03
  101.50      7.31650E-03
  102.50      6.24460E-03
  103.50      7.39060E-03
  104.50      7.49840E-03
  105.50      7.45730E-03
  106.50      7.14330E-03
  107.50      7.31390E-03
  108.50      6.83920E-03
  109.50      7.22410E-03
  110.50      7.11280E-03
  111.50      7.05690E-03
  112.50      6.91730E-03
  113.50      7.01650E-03
  114.50      6.97850E-03
  115.50      6.84250E-03
  116.50      6.67020E-03
  117.50      6.40130E-03
  118.50      6.64630E-03
  119.50      6.51680E-03
  120.50      6.48530E-03
  121.50      5.40700E-03
  122.50      6.38160E-03
  123.50      6.22320E-03
  124.50      6.15900E-03
  125.50      6.26340E-03
  126.50      6.21230E-03
  127.50      6.16790E-03
  128.50      6.12070E-03
  129.50      6.08650E-03
  130.50      5.98470E-03
  131.50      5.94660E-03
  132.50      5.87270E-03
  133.50      5.85140E-03
  134.50      5.80050E-03
  135.50      5.69420E-03
  136.50      5.56330E-03
  137.50      5.42660E-03
  138.50      5.50160E-03
  139.50      5.40860E-03
  140.50      5.26880E-03
  141.50      5.44270E-03
  142.50      5.35210E-03
  143.50      5.37120E-03
  144.20      5.25340E-03
  144.70      5.24940E-03
  145.50      5.19580E-03
  146.50      5.16590E-03
  147.50      5.16010E-03
  148.50      5.17690E-03
  149.50      5.11870E-03
  150.50      5.08870E-03
  151.20      5.07790E-03
  151.70      5.01730E-03
  152.50      5.01960E-03
  153.50      4.91320E-03
  154.50      4.66370E-03
  155.50      4.65910E-03
  156.50      4.78640E-03
  157.50      4.78800E-03
  158.50      4.71620E-03
  159.50      4.69940E-03
  160.50      4.62660E-03
  161.50      4.59320E-03
  162.50      4.54200E-03
  163.50      4.47000E-03
  164.50      4.28450E-03
  165.50      4.49740E-03
  166.50      4.47260E-03
  167.20      4.40210E-03
  167.70      4.44710E-03
  168.50      4.42550E-03
  169.50      4.39990E-03
  170.50      4.35100E-03
  171.50      4.24890E-03
  172.50      4.23650E-03
  173.50      4.26960E-03
  174.50      4.22970E-03
  175.50      4.19540E-03
  176.50      4.16460E-03
  177.50      4.13850E-03
  178.50      4.11570E-03
  179.50      4.07620E-03
  180.50      4.04650E-03
  181.50      4.01720E-03
  182.50      3.98820E-03
  183.50      3.95950E-03
  184.50      3.93140E-03
  185.50      3.89880E-03
  186.50      3.87340E-03
  187.50      3.84000E-03
  188.50      3.81050E-03
  189.50      3.79280E-03
  190.50      3.76500E-03
  191.50      3.73520E-03
  192.50      3.68240E-03
  193.50      3.68440E-03
  194.50      3.65960E-03
  195.50      3.62960E-03
  196.70      3.60040E-03
  197.60      3.56980E-03
  198.40      3.55790E-03
  199.50      3.52670E-03
  200.50      3.50570E-03
  201.50      3.48140E-03
  202.50      3.45720E-03
  203.50      3.43120E-03
  204.50      3.39840E-03
  205.50      2.63370E-03
  206.50      2.54460E-03
  207.40      2.58410E-03
  207.80      2.63340E-03
  208.50      2.76890E-03
  209.50      3.05970E-03
  210.50      3.23750E-03
  211.50      3.25030E-03
  212.50      3.22330E-03
  213.50      3.20130E-03
  214.50      3.18310E-03
  215.50      3.20670E-03
  216.50      3.08710E-03
  217.50      3.18900E-03
  218.50      3.06070E-03
  219.50      3.15060E-03
  220.50      3.13490E-03
  221.50      2.99160E-03
  222.50      3.09480E-03
  223.50      3.07810E-03
  224.50      3.05280E-03
  225.50      2.91980E-03
  226.50      3.01470E-03
  227.50      2.99910E-03
  228.50      2.97140E-03
  229.50      2.93880E-03
  230.50      2.82910E-03
  231.50      2.90940E-03
  232.50      2.90090E-03
  233.50      2.88300E-03
  234.50      2.86270E-03
  235.50      2.84300E-03
  236.50      2.82460E-03
  237.50      2.80310E-03
  238.50      2.67750E-03
  239.50      2.75650E-03
  240.50      2.74570E-03
  241.50      2.72550E-03
  242.50      2.71910E-03
  243.50      2.69950E-03
  244.50      2.68330E-03
  245.50      2.65560E-03
  246.50      2.64920E-03
  247.50      2.63560E-03
  248.50      2.61700E-03
  249.50      2.53020E-03
  250.50      2.57070E-03
  251.30      2.38680E-03
  251.80      2.53510E-03
  252.50      2.53990E-03
  253.50      2.53810E-03
  254.50      2.52310E-03
  255.50      2.50740E-03
  256.50      2.49320E-03
  257.50      2.47740E-03
  258.50      2.46160E-03
  259.50      2.43220E-03
  260.50      2.43340E-03
  261.50      2.41030E-03
  262.50      2.40470E-03
  263.50      2.39070E-03
  264.50      2.37450E-03
  265.50      2.36240E-03
  266.50      2.34760E-03
  267.50      2.32570E-03
  268.50      2.31840E-03
  269.50      2.30450E-03
  270.50      2.29430E-03
  271.50      2.28060E-03
  272.50      2.26550E-03
  273.50      2.17920E-03
  274.50      2.24130E-03
  275.50      2.22740E-03
  276.50      2.21520E-03
  277.50      2.20150E-03
  278.50      2.18630E-03
  279.50      2.17380E-03
  280.50      2.16420E-03
  281.50      2.15230E-03
  282.50      2.13800E-03
  283.50      2.12830E-03
  284.50      2.11700E-03
  285.50      2.10520E-03
  286.50      2.09310E-03
  287.50      2.08100E-03
  288.50      2.07010E-03
  289.50      2.05770E-03
  291.00      2.04100E-03
  293.00      2.01920E-03
  295.00      1.99700E-03
  297.00      1.97390E-03
  299.00      1.94970E-03
  301.00      1.93040E-03
  303.00      1.90570E-03
  305.00      1.88760E-03
  307.00      1.86480E-03
  309.00      1.85090E-03
  311.00      1.83140E-03
  313.00      1.81100E-03
  315.00      1.79450E-03
  317.00      1.77510E-03
  319.00      1.75670E-03
  321.00      1.70940E-03
  323.00      1.72290E-03
  325.00      1.70560E-03
  327.00      1.68150E-03
  329.00      1.67040E-03
  331.00      1.65360E-03
  333.00      1.63730E-03
  335.00      1.61780E-03
  337.00      1.60510E-03
  339.00      1.58790E-03
  341.00      1.57130E-03
  343.00      1.55950E-03
  345.00      1.54200E-03
  347.00      1.52960E-03
  349.00      1.51520E-03
  351.00      1.50150E-03
  353.00      1.48660E-03
  355.00      1.47270E-03
  357.00      1.45900E-03
  359.00      1.44550E-03
  361.00      1.43210E-03
  363.00      1.41810E-03
  364.00      1.38370E-03
  365.00      1.26330E-03
  367.00      1.25340E-03
  369.00      1.24500E-03
  371.00      1.24210E-03
  373.00      1.24860E-03
  375.00      1.26190E-03
  377.00      1.27530E-03
  379.00      1.29540E-03
  381.00      1.31470E-03
  383.00      1.26510E-03
  385.00      1.30780E-03
  387.00      1.31310E-03
  389.00      1.21600E-03
  391.00      1.29490E-03
  393.00      1.27960E-03
  395.00      1.27470E-03
  397.00      1.16990E-03
  399.00      1.25170E-03
  401.00      1.24760E-03
  403.00      1.21680E-03
  405.00      1.23000E-03
  407.00      1.21760E-03
  409.00      1.17680E-03
  411.00      1.11870E-03
  413.00      1.18540E-03
  415.00      1.17850E-03
  417.00      1.16930E-03
  419.00      1.15240E-03
  421.00      1.13110E-03
  423.00      1.14050E-03
  425.00      1.13110E-03
  427.00      1.12180E-03
  429.00      1.11270E-03
  431.00      1.10150E-03
  433.00      1.05930E-03
  435.00      1.02290E-03
  437.00      1.07420E-03
  439.00      1.06670E-03
  441.00      1.05920E-03
  443.00      1.05120E-03
  445.00      1.04250E-03
  447.00      1.03050E-03
  449.00      1.02640E-03
  451.00      1.01820E-03
  453.00      1.00800E-03
  455.00      9.82720E-04
  457.00      9.94920E-04
  459.00      9.87340E-04
  461.00      9.79590E-04
  463.00      9.70680E-04
  465.00      9.61100E-04
  467.00      9.55970E-04
  469.00      9.17570E-04
  471.00      9.42340E-04
  473.00      9.36080E-04
  475.00      9.29060E-04
  477.00      9.22090E-04
  479.00      9.15040E-04
  481.00      9.08400E-04
  483.00      9.00250E-04
  485.00      8.73440E-04
  487.00      8.32940E-04
  489.00      8.79450E-04
  491.00      8.75500E-04
  493.00      8.67960E-04
  495.00      8.63000E-04
  497.00      8.56800E-04
  499.00      8.50690E-04
  501.00      8.43900E-04
  503.00      8.38530E-04
  505.00      8.32460E-04
  507.00      8.26730E-04
  509.00      8.20940E-04
  511.00      8.15170E-04
  513.00      8.09450E-04
  515.00      8.03810E-04
  517.00      7.98240E-04
  519.00      7.92710E-04
  521.00      7.87230E-04
  523.00      7.81830E-04
  525.00      7.76410E-04
  527.00      7.70920E-04
  529.00      7.65920E-04
  531.00      7.60720E-04
  533.00      7.55570E-04
  535.00      7.50490E-04
  537.00      7.45440E-04
  539.00      7.40450E-04
  541.00      7.20050E-04
  543.00      7.30290E-04
  545.00      7.25790E-04
  547.00      7.20980E-04
  549.00      7.16250E-04
  551.00      7.11390E-04
  553.00      7.06890E-04
  555.00      7.02280E-04
  557.00      6.97670E-04
  559.00      6.92520E-04
  561.00      6.88720E-04
  563.00      6.84280E-04
  565.00      6.79890E-04
  567.00      6.75540E-04
  569.00      6.62850E-04
  571.00      6.23620E-04
  573.00      6.19950E-04
  575.00      6.16310E-04
  577.00      6.12780E-04
  579.00      6.09420E-04
  581.00      6.05460E-04
  583.00      6.03950E-04
  585.00      6.02050E-04
  587.00      5.98760E-04
  589.00      5.99630E-04
  591.00      5.99090E-04
  593.00      5.98890E-04
  595.00      5.99200E-04
  597.00      5.99760E-04
  599.00      6.01060E-04
  601.00      6.00510E-04
  603.00      6.00470E-04
  605.00      5.99460E-04
  607.00      5.95840E-04
  609.00      5.92940E-04
  611.00      5.89800E-04
  613.00      5.86510E-04
  615.00      5.83900E-04
  617.00      5.78510E-04
  619.00      5.76700E-04
  621.00      5.73630E-04
  623.00      5.68070E-04
  625.00      5.66200E-04
  627.00      5.63600E-04
  629.00      5.60310E-04
  631.00      5.53950E-04
  633.00      5.53330E-04
  635.00      5.50630E-04
  637.00      5.47460E-04
  639.00      5.43790E-04
  641.00      5.37150E-04
  643.00      5.38000E-04
  645.00      5.35030E-04
  647.00      5.31990E-04
  649.00      5.28980E-04
  651.00      5.25280E-04
  653.00      5.17150E-04
  655.00      5.12470E-04
  657.00      4.83970E-04
  659.00      5.12800E-04
  661.00      5.11420E-04
  663.00      5.08580E-04
  665.00      5.05770E-04
  667.00      5.01140E-04
  669.00      4.93460E-04
  671.00      4.97230E-04
  673.00      4.94720E-04
  675.00      4.92010E-04
  677.00      4.89340E-04
  679.00      4.86690E-04
  681.00      4.84050E-04
  683.00      4.81430E-04
  685.00      4.78830E-04
  687.00      4.76210E-04
  689.00      4.66530E-04
  691.00      4.70640E-04
  693.00      4.68650E-04
  695.00      4.66160E-04
  697.00      4.63690E-04
  699.00      4.61230E-04
  701.00      4.58760E-04
  703.00      4.56320E-04
  705.00      4.53930E-04
  707.00      4.50870E-04
  709.00      4.49240E-04
  711.00      4.46890E-04
  713.00      4.44550E-04
  715.00      4.42270E-04
  717.00      4.35060E-04
  719.00      4.34560E-04
  721.00      4.35460E-04
  723.00      4.33230E-04
  725.00      4.31010E-04
  727.00      4.28810E-04
  729.00      4.26450E-04
  731.00      4.24410E-04
  733.00      4.22310E-04
  735.00      4.20170E-04
  737.00      4.18030E-04
  739.00      4.15940E-04
  741.00      4.13840E-04
  743.00      4.11790E-04
  745.00      4.09660E-04
  747.00      4.07700E-04
  749.00      4.05630E-04
  751.00      4.03630E-04
  753.00      4.01670E-04
  755.00      3.99680E-04
  757.00      3.97710E-04
  759.00      3.88590E-04
  761.00      3.93140E-04
  763.00      3.91900E-04
  765.00      3.89990E-04
  767.00      3.88100E-04
  769.00      3.86150E-04
  771.00      3.84320E-04
  773.00      3.82380E-04
  775.00      3.80660E-04
  777.00      3.78830E-04
  779.00      3.77020E-04
  781.00      3.75220E-04
  783.00      3.73430E-04
  785.00      3.71600E-04
  787.00      3.69870E-04
  789.00      3.68130E-04
  791.00      3.66400E-04
  793.00      3.64680E-04
  795.00      3.62960E-04
  797.00      3.61200E-04
  799.00      3.59570E-04
  801.00      3.57890E-04
  803.00      3.56220E-04
  805.00      3.54570E-04
  807.00      3.52930E-04
  809.00      3.51300E-04
  811.00      3.49680E-04
  813.00      3.48070E-04
  815.00      3.46470E-04
  817.00      3.44820E-04
  819.00      3.41810E-04
  821.00      3.27590E-04
  823.00      3.24060E-04
  825.00      3.24220E-04
  827.00      3.23350E-04
  829.00      3.21980E-04
  831.00      3.20600E-04
  833.00      3.19180E-04
  835.00      3.17870E-04
  837.00      3.16550E-04
  839.00      3.15250E-04
  841.00      3.14020E-04
  843.00      3.12800E-04
  845.00      3.11590E-04
  847.00      3.10510E-04
  849.00      3.09530E-04
  851.00      3.08470E-04
  853.00      3.07560E-04
  855.00      3.06430E-04
  857.00      3.05760E-04
  859.00      3.04630E-04
  861.00      3.03770E-04
  863.00      3.03410E-04
  865.00      3.02340E-04
  867.00      3.00590E-04
  869.00      3.01120E-04
  871.00      3.00700E-04
  873.00      2.99600E-04
  875.00      2.96280E-04
  877.00      2.97710E-04
  879.00      2.98260E-04
  881.00      2.97920E-04
  883.00      2.97040E-04
  885.00      2.93320E-04
  887.00      2.88950E-04
  889.00      2.93210E-04
  891.00      2.93550E-04
  893.00      2.92860E-04
  895.00      2.91920E-04
  897.00      2.90450E-04
  899.00      2.87720E-04
  901.00      2.79320E-04
  903.00      2.81340E-04
  905.00      2.84890E-04
  907.00      2.84610E-04
  909.00      2.83890E-04
  911.00      2.82360E-04
  913.00      2.81840E-04
  915.00      2.80730E-04
  917.00      2.79310E-04
  919.00      2.77330E-04
  921.00      2.73470E-04
  923.00      2.62840E-04
  925.00      2.70490E-04
  927.00      2.72680E-04
  929.00      2.72470E-04
  931.00      2.71610E-04
  933.00      2.69930E-04
  935.00      2.62890E-04
  937.00      2.67140E-04
  939.00      2.67120E-04
  941.00      2.66190E-04
  943.00      2.65140E-04
  945.00      2.64070E-04
  947.00      2.62970E-04
  949.00      2.61730E-04
  951.00      2.59650E-04
  953.00      2.55120E-04
  955.00      2.44360E-04
  957.00      2.54250E-04
  959.00      2.55860E-04
  961.00      2.55690E-04
  963.00      2.54730E-04
  965.00      2.53780E-04
  967.00      2.52780E-04
  969.00      2.51790E-04
  971.00      2.50740E-04
  973.00      2.49820E-04
  975.00      2.48400E-04
  977.00      2.46410E-04
  979.00      2.46920E-04
  981.00      2.45970E-04
  983.00      2.45000E-04
  985.00      2.44070E-04
  987.00      2.43130E-04
  989.00      2.42200E-04
  991.00      2.41260E-04
  993.00      2.40340E-04
  995.00      2.39420E-04
  997.00      2.38510E-04
  999.00      2.37510E-04
  1002.5      2.32040E-04
  1007.5      2.28120E-04
  1012.5      2.27650E-04
  1017.5      2.29440E-04
  1022.5      2.27310E-04
  1027.5      2.25190E-04
  1032.5      2.23050E-04
  1037.5      2.21080E-04
  1042.5      2.17860E-04
  1047.5      2.17070E-04
  1052.5      2.15110E-04
  1057.5      2.13170E-04
  1062.5      2.11260E-04
  1067.5      2.09370E-04
  1072.5      2.07510E-04
  1077.5      2.05670E-04
  1082.5      2.03620E-04
  1087.5      2.01860E-04
  1092.5      1.93440E-04
  1097.5      1.96650E-04
  1102.5      1.96830E-04
  1107.5      1.95140E-04
  1112.5      1.93470E-04
  1117.5      1.91930E-04
  1122.5      1.90290E-04
  1127.5      1.88670E-04
  1132.5      1.87070E-04
  1137.5      1.85510E-04
  1142.5      1.83950E-04
  1147.5      1.82420E-04
  1152.5      1.80900E-04
  1157.5      1.79400E-04
  1162.5      1.75790E-04
  1167.5      1.74890E-04
  1172.5      1.75020E-04
  1177.5      1.73600E-04
  1182.5      1.72190E-04
  1187.5      1.70800E-04
  1192.5      1.69420E-04
  1197.5      1.68000E-04
  1202.5      1.66720E-04
  1207.5      1.65390E-04
  1212.5      1.64080E-04
  1217.5      1.62790E-04
  1222.5      1.61510E-04
  1227.5      1.60250E-04
  1232.5      1.59000E-04
  1237.5      1.57760E-04
  1242.5      1.56540E-04
  1247.5      1.55330E-04
  1252.5      1.54140E-04
  1257.5      1.52960E-04
  1262.5      1.51800E-04
  1267.5      1.50640E-04
  1272.5      1.49500E-04
  1277.5      1.47670E-04
  1282.5      1.41510E-04
  1287.5      1.45790E-04
  1292.5      1.45070E-04
  1297.5      1.43980E-04
  1302.5      1.42930E-04
  1307.5      1.41880E-04
  1312.5      1.40840E-04
  1317.5      1.39800E-04
  1322.5      1.38790E-04
  1327.5      1.37780E-04
  1332.5      1.36780E-04
  1337.5      1.35790E-04
  1342.5      1.34820E-04
  1347.5      1.33850E-04
  1352.5      1.32900E-04
  1357.5      1.31950E-04
  1362.5      1.31020E-04
  1367.5      1.30090E-04
  1372.5      1.29180E-04
  1377.5      1.28270E-04
  1382.5      1.27370E-04
  1387.5      1.26490E-04
  1392.5      1.25610E-04
  1397.5      1.24740E-04
