 Castelli and Kurucz 2004-2012 Atmosphere
 T     38000.     G    4.50000 [-1.0a] N(He)/Ntot=0.0784 VTURB=2.0  L/H=1.25 OD
 Wavelength  Eddington Hnu
   (nm)    (ergs/s/cm2/Hz/sr)
  9.0900      2.78570E-26
  9.3500      1.11970E-25
  9.6100      4.19840E-25
  9.7700      9.21490E-25
  9.9600      2.27140E-24
  10.200      6.80600E-24
  10.380      1.50720E-23
  10.560      3.25990E-23
  10.770      7.79190E-23
  11.040      2.28980E-22
  11.400      8.98950E-22
  11.780      3.52540E-21
  12.130      1.16110E-20
  12.480      3.59730E-20
  12.710      7.33610E-20
  12.840      1.08620E-19
  13.050      2.01680E-19
  13.240      3.47600E-19
  13.390      5.29090E-19
  13.660      1.10310E-18
  13.980      2.55090E-18
  14.330      6.12260E-18
  14.720      1.54530E-17
  15.100      3.67620E-17
  15.520      9.09770E-17
  15.880      1.90790E-16
  16.200      3.58760E-16
  16.600      7.66290E-16
  17.030      1.66410E-15
  17.340      2.84620E-15
  17.680      5.02480E-15
  18.020      8.68000E-15
  18.170      1.09700E-14
  18.610      2.14400E-14
  19.100      4.35960E-14
  19.390      6.52800E-14
  19.840      1.19390E-13
  20.180      1.85070E-13
  20.500      2.76100E-13
  21.050      5.34380E-13
  21.620      1.02200E-12
  21.980      1.51750E-12
  22.300      2.13100E-12
  22.680      3.14090E-12
  23.000      1.91700E-09
  23.400      9.05130E-09
  24.000      1.82580E-08
  24.650      3.89870E-08
  25.240      1.10210E-07
  25.680      1.11040E-07
  26.000      3.20150E-07
  26.400      1.53710E-06
  26.850      2.77550E-06
  27.350      3.60170E-06
  27.850      2.62140E-06
  28.400      6.53860E-06
  29.000      8.20750E-06
  29.600      4.95200E-06
  30.100      1.36510E-06
  30.800      6.27350E-06
  31.800      9.14710E-06
  32.800      1.34310E-05
  33.800      1.36190E-05
  34.800      1.66190E-05
  35.700      3.05280E-05
  36.600      4.81030E-05
  37.500      5.59820E-05
  38.500      5.98530E-05
  39.500      7.71300E-05
  40.500      9.23210E-05
  41.400      9.75740E-05
  42.200      9.75100E-05
  43.000      9.64330E-05
  44.100      1.09600E-04
  45.100      1.19430E-04
  46.000      1.16590E-04
  47.000      1.22930E-04
  48.000      1.35740E-04
  49.000      1.29270E-04
  50.000      1.53970E-04
  50.600      2.05930E-04
  51.200      4.98230E-04
  52.000      4.78040E-04
  53.000      4.59860E-04
  54.000      4.37440E-04
  55.000      4.40310E-04
  56.000      5.55330E-04
  57.000      5.94660E-04
  58.000      5.84160E-04
  59.000      6.16910E-04
  60.000      5.62690E-04
  61.000      5.93630E-04
  62.000      6.94910E-04
  63.000      6.95730E-04
  64.000      7.34220E-04
  65.000      7.28610E-04
  65.800      6.79060E-04
  66.500      7.51370E-04
  67.500      8.05630E-04
  68.500      7.56000E-04
  69.500      8.28700E-04
  70.500      7.55320E-04
  71.600      8.81230E-04
  72.600      8.98630E-04
  73.500      9.22900E-04
  74.500      9.05080E-04
  75.500      9.13560E-04
  76.500      9.20440E-04
  77.500      9.52430E-04
  78.500      9.49160E-04
  79.500      9.84730E-04
  80.500      9.90790E-04
  81.500      1.01410E-03
  82.500      1.04250E-03
  83.500      9.59620E-04
  84.500      1.05980E-03
  85.500      1.06110E-03
  86.500      1.09570E-03
  87.500      1.11040E-03
  88.500      1.11960E-03
  89.500      1.13210E-03
  90.500      1.12920E-03
  91.500      9.92220E-04
  92.500      1.89730E-03
  93.500      2.61310E-03
  94.500      3.30440E-03
  95.500      3.67340E-03
  96.500      4.19920E-03
  97.500      3.08790E-03
  98.500      4.03150E-03
  99.500      3.77680E-03
  100.50      3.90930E-03
  101.50      4.02120E-03
  102.50      3.27620E-03
  103.50      4.02530E-03
  104.50      4.15830E-03
  105.50      4.13590E-03
  106.50      3.96940E-03
  107.50      4.01420E-03
  108.50      3.81690E-03
  109.50      4.02870E-03
  110.50      3.94730E-03
  111.50      3.92410E-03
  112.50      3.74320E-03
  113.50      3.91170E-03
  114.50      3.88160E-03
  115.50      3.77960E-03
  116.50      3.75810E-03
  117.50      3.35300E-03
  118.50      3.63230E-03
  119.50      3.61420E-03
  120.50      3.56460E-03
  121.50      2.90410E-03
  122.50      3.52950E-03
  123.50      3.58250E-03
  124.50      3.54290E-03
  125.50      3.57390E-03
  126.50      3.57930E-03
  127.50      3.58070E-03
  128.50      3.57490E-03
  129.50      3.49830E-03
  130.50      3.48670E-03
  131.50      3.51230E-03
  132.50      3.47240E-03
  133.50      3.45070E-03
  134.50      3.44330E-03
  135.50      3.39650E-03
  136.50      3.34840E-03
  137.50      3.30820E-03
  138.50      3.30460E-03
  139.50      3.16130E-03
  140.50      3.11310E-03
  141.50      3.25140E-03
  142.50      3.13960E-03
  143.50      3.19950E-03
  144.20      3.17390E-03
  144.70      3.16430E-03
  145.50      3.11850E-03
  146.50      3.11810E-03
  147.50      3.09970E-03
  148.50      3.11530E-03
  149.50      3.07260E-03
  150.50      3.07680E-03
  151.20      3.07730E-03
  151.70      3.04630E-03
  152.50      3.01940E-03
  153.50      2.89580E-03
  154.50      2.71080E-03
  155.50      2.72670E-03
  156.50      2.80630E-03
  157.50      2.85180E-03
  158.50      2.84760E-03
  159.50      2.83980E-03
  160.50      2.75080E-03
  161.50      2.71240E-03
  162.50      2.70520E-03
  163.50      2.68640E-03
  164.50      2.60180E-03
  165.50      2.73680E-03
  166.50      2.70740E-03
  167.20      2.63900E-03
  167.70      2.75270E-03
  168.50      2.72360E-03
  169.50      2.70820E-03
  170.50      2.67570E-03
  171.50      2.62270E-03
  172.50      2.60410E-03
  173.50      2.65560E-03
  174.50      2.63600E-03
  175.50      2.60490E-03
  176.50      2.60120E-03
  177.50      2.59090E-03
  178.50      2.58560E-03
  179.50      2.55370E-03
  180.50      2.54690E-03
  181.50      2.53050E-03
  182.50      2.50980E-03
  183.50      2.50970E-03
  184.50      2.48690E-03
  185.50      2.46820E-03
  186.50      2.45300E-03
  187.50      2.43050E-03
  188.50      2.41650E-03
  189.50      2.41730E-03
  190.50      2.40930E-03
  191.50      2.39020E-03
  192.50      2.33940E-03
  193.50      2.36530E-03
  194.50      2.35420E-03
  195.50      2.32300E-03
  196.70      2.31910E-03
  197.60      2.30800E-03
  198.40      2.29730E-03
  199.50      2.27890E-03
  200.50      2.27130E-03
  201.50      2.25770E-03
  202.50      2.24320E-03
  203.50      2.22860E-03
  204.50      2.21190E-03
  205.50      1.72350E-03
  206.50      1.67090E-03
  207.40      1.71520E-03
  207.80      1.75590E-03
  208.50      1.87710E-03
  209.50      2.07770E-03
  210.50      2.13170E-03
  211.50      2.13240E-03
  212.50      2.11000E-03
  213.50      2.10430E-03
  214.50      2.09530E-03
  215.50      2.11250E-03
  216.50      2.03890E-03
  217.50      2.10130E-03
  218.50      2.02880E-03
  219.50      2.07850E-03
  220.50      2.06780E-03
  221.50      1.99100E-03
  222.50      2.04220E-03
  223.50      2.03160E-03
  224.50      2.01720E-03
  225.50      1.94750E-03
  226.50      1.99480E-03
  227.50      1.98440E-03
  228.50      1.96440E-03
  229.50      1.92560E-03
  230.50      1.89200E-03
  231.50      1.93100E-03
  232.50      1.92500E-03
  233.50      1.91460E-03
  234.50      1.90240E-03
  235.50      1.89060E-03
  236.50      1.87950E-03
  237.50      1.86570E-03
  238.50      1.79480E-03
  239.50      1.83350E-03
  240.50      1.83430E-03
  241.50      1.82160E-03
  242.50      1.81550E-03
  243.50      1.80300E-03
  244.50      1.79360E-03
  245.50      1.77890E-03
  246.50      1.77370E-03
  247.50      1.76450E-03
  248.50      1.75200E-03
  249.50      1.60830E-03
  250.50      1.72340E-03
  251.30      1.62290E-03
  251.80      1.69380E-03
  252.50      1.71160E-03
  253.50      1.70540E-03
  254.50      1.69550E-03
  255.50      1.68510E-03
  256.50      1.67650E-03
  257.50      1.66780E-03
  258.50      1.65880E-03
  259.50      1.64290E-03
  260.50      1.64150E-03
  261.50      1.62970E-03
  262.50      1.62370E-03
  263.50      1.61530E-03
  264.50      1.60520E-03
  265.50      1.59740E-03
  266.50      1.58710E-03
  267.50      1.57300E-03
  268.50      1.56990E-03
  269.50      1.56010E-03
  270.50      1.55550E-03
  271.50      1.54600E-03
  272.50      1.53490E-03
  273.50      1.49060E-03
  274.50      1.52230E-03
  275.50      1.51360E-03
  276.50      1.50270E-03
  277.50      1.49790E-03
  278.50      1.48860E-03
  279.50      1.47460E-03
  280.50      1.47280E-03
  281.50      1.46620E-03
  282.50      1.45500E-03
  283.50      1.44960E-03
  284.50      1.44450E-03
  285.50      1.43670E-03
  286.50      1.42870E-03
  287.50      1.42150E-03
  288.50      1.41450E-03
  289.50      1.40660E-03
  291.00      1.39510E-03
  293.00      1.38210E-03
  295.00      1.36530E-03
  297.00      1.35270E-03
  299.00      1.33640E-03
  301.00      1.32400E-03
  303.00      1.30720E-03
  305.00      1.29660E-03
  307.00      1.28600E-03
  309.00      1.27290E-03
  311.00      1.26100E-03
  313.00      1.24830E-03
  315.00      1.23740E-03
  317.00      1.22520E-03
  319.00      1.21110E-03
  321.00      1.18680E-03
  323.00      1.19180E-03
  325.00      1.18090E-03
  327.00      1.16420E-03
  329.00      1.15750E-03
  331.00      1.14670E-03
  333.00      1.13600E-03
  335.00      1.12290E-03
  337.00      1.11520E-03
  339.00      1.10560E-03
  341.00      1.09530E-03
  343.00      1.08510E-03
  345.00      1.07240E-03
  347.00      1.06550E-03
  349.00      1.05700E-03
  351.00      1.04790E-03
  353.00      1.03790E-03
  355.00      1.02830E-03
  357.00      1.02120E-03
  359.00      1.00990E-03
  361.00      1.00190E-03
  363.00      9.91700E-04
  364.00      9.75580E-04
  365.00      9.08010E-04
  367.00      9.01770E-04
  369.00      8.96090E-04
  371.00      8.91410E-04
  373.00      8.93830E-04
  375.00      9.03220E-04
  377.00      9.05950E-04
  379.00      9.25300E-04
  381.00      9.43320E-04
  383.00      8.90500E-04
  385.00      9.46320E-04
  387.00      9.48130E-04
  389.00      8.63600E-04
  391.00      9.40550E-04
  393.00      9.27890E-04
  395.00      9.23820E-04
  397.00      8.31650E-04
  399.00      9.09800E-04
  401.00      9.04640E-04
  403.00      8.79210E-04
  405.00      8.94330E-04
  407.00      8.83120E-04
  409.00      8.51930E-04
  411.00      8.00980E-04
  413.00      8.60330E-04
  415.00      8.55180E-04
  417.00      8.51310E-04
  419.00      8.41370E-04
  421.00      8.27790E-04
  423.00      8.31730E-04
  425.00      8.24500E-04
  427.00      8.17770E-04
  429.00      8.11390E-04
  431.00      8.03310E-04
  433.00      7.70890E-04
  435.00      7.36860E-04
  437.00      7.84750E-04
  439.00      7.74270E-04
  441.00      7.73520E-04
  443.00      7.68240E-04
  445.00      7.62710E-04
  447.00      7.46170E-04
  449.00      7.51070E-04
  451.00      7.45080E-04
  453.00      7.39080E-04
  455.00      7.23840E-04
  457.00      7.29150E-04
  459.00      7.23230E-04
  461.00      7.17900E-04
  463.00      7.10970E-04
  465.00      6.99430E-04
  467.00      7.01260E-04
  469.00      6.76990E-04
  471.00      6.88490E-04
  473.00      6.87740E-04
  475.00      6.82700E-04
  477.00      6.77800E-04
  479.00      6.72960E-04
  481.00      6.68020E-04
  483.00      6.62210E-04
  485.00      6.40920E-04
  487.00      6.04340E-04
  489.00      6.47320E-04
  491.00      6.44360E-04
  493.00      6.34570E-04
  495.00      6.35320E-04
  497.00      6.31320E-04
  499.00      6.26950E-04
  501.00      6.19510E-04
  503.00      6.18060E-04
  505.00      6.13000E-04
  507.00      6.09830E-04
  509.00      6.05670E-04
  511.00      6.01550E-04
  513.00      5.97460E-04
  515.00      5.93420E-04
  517.00      5.89360E-04
  519.00      5.85430E-04
  521.00      5.81540E-04
  523.00      5.77660E-04
  525.00      5.73690E-04
  527.00      5.69710E-04
  529.00      5.66240E-04
  531.00      5.62510E-04
  533.00      5.58800E-04
  535.00      5.55150E-04
  537.00      5.51530E-04
  539.00      5.47910E-04
  541.00      5.36160E-04
  543.00      5.40850E-04
  545.00      5.37370E-04
  547.00      5.33900E-04
  549.00      5.30490E-04
  551.00      5.26950E-04
  553.00      5.23740E-04
  555.00      5.20420E-04
  557.00      5.17090E-04
  559.00      5.13140E-04
  561.00      5.10620E-04
  563.00      5.07420E-04
  565.00      5.04250E-04
  567.00      5.01100E-04
  569.00      4.93040E-04
  571.00      4.71760E-04
  573.00      4.69050E-04
  575.00      4.66330E-04
  577.00      4.63730E-04
  579.00      4.61200E-04
  581.00      4.58630E-04
  583.00      4.56970E-04
  585.00      4.55790E-04
  587.00      4.49300E-04
  589.00      4.53580E-04
  591.00      4.52980E-04
  593.00      4.52450E-04
  595.00      4.52130E-04
  597.00      4.51900E-04
  599.00      4.51830E-04
  601.00      4.50580E-04
  603.00      4.48510E-04
  605.00      4.47020E-04
  607.00      4.44410E-04
  609.00      4.41960E-04
  611.00      4.39110E-04
  613.00      4.36630E-04
  615.00      4.34280E-04
  617.00      4.31050E-04
  619.00      4.29260E-04
  621.00      4.26790E-04
  623.00      4.23480E-04
  625.00      4.21750E-04
  627.00      4.19500E-04
  629.00      4.17100E-04
  631.00      4.13390E-04
  633.00      4.12380E-04
  635.00      4.10050E-04
  637.00      4.07740E-04
  639.00      4.05440E-04
  641.00      4.01450E-04
  643.00      4.00920E-04
  645.00      3.98680E-04
  647.00      3.96430E-04
  649.00      3.94260E-04
  651.00      3.91920E-04
  653.00      3.86950E-04
  655.00      3.81770E-04
  657.00      3.56710E-04
  659.00      3.82380E-04
  661.00      3.81440E-04
  663.00      3.79370E-04
  665.00      3.77340E-04
  667.00      3.73040E-04
  669.00      3.68800E-04
  671.00      3.70980E-04
  673.00      3.69200E-04
  675.00      3.67250E-04
  677.00      3.65340E-04
  679.00      3.63400E-04
  681.00      3.61470E-04
  683.00      3.59550E-04
  685.00      3.57650E-04
  687.00      3.55760E-04
  689.00      3.50850E-04
  691.00      3.51940E-04
  693.00      3.50190E-04
  695.00      3.48370E-04
  697.00      3.46550E-04
  699.00      3.44750E-04
  701.00      3.42910E-04
  703.00      3.41090E-04
  705.00      3.39350E-04
  707.00      3.35160E-04
  709.00      3.35960E-04
  711.00      3.34230E-04
  713.00      3.32530E-04
  715.00      3.30840E-04
  717.00      3.27060E-04
  719.00      3.26400E-04
  721.00      3.25840E-04
  723.00      3.24180E-04
  725.00      3.22560E-04
  727.00      3.20950E-04
  729.00      3.18250E-04
  731.00      3.17710E-04
  733.00      3.16170E-04
  735.00      3.14600E-04
  737.00      3.13030E-04
  739.00      3.11500E-04
  741.00      3.09950E-04
  743.00      3.08440E-04
  745.00      3.06890E-04
  747.00      3.05430E-04
  749.00      3.03840E-04
  751.00      3.02430E-04
  753.00      3.01000E-04
  755.00      2.99540E-04
  757.00      2.98090E-04
  759.00      2.93560E-04
  761.00      2.95080E-04
  763.00      2.93800E-04
  765.00      2.92380E-04
  767.00      2.91010E-04
  769.00      2.89500E-04
  771.00      2.88220E-04
  773.00      2.86690E-04
  775.00      2.85520E-04
  777.00      2.84170E-04
  779.00      2.82830E-04
  781.00      2.81470E-04
  783.00      2.80180E-04
  785.00      2.78910E-04
  787.00      2.77590E-04
  789.00      2.76310E-04
  791.00      2.75060E-04
  793.00      2.73790E-04
  795.00      2.72530E-04
  797.00      2.71210E-04
  799.00      2.70020E-04
  801.00      2.68780E-04
  803.00      2.67520E-04
  805.00      2.66320E-04
  807.00      2.65110E-04
  809.00      2.63880E-04
  811.00      2.62650E-04
  813.00      2.61510E-04
  815.00      2.60280E-04
  817.00      2.59100E-04
  819.00      2.57200E-04
  821.00      2.50000E-04
  823.00      2.47630E-04
  825.00      2.47690E-04
  827.00      2.46700E-04
  829.00      2.45860E-04
  831.00      2.44840E-04
  833.00      2.43700E-04
  835.00      2.42460E-04
  837.00      2.41640E-04
  839.00      2.40720E-04
  841.00      2.39780E-04
  843.00      2.38820E-04
  845.00      2.37570E-04
  847.00      2.37010E-04
  849.00      2.36120E-04
  851.00      2.35210E-04
  853.00      2.34490E-04
  855.00      2.33390E-04
  857.00      2.33340E-04
  859.00      2.31170E-04
  861.00      2.30890E-04
  863.00      2.31510E-04
  865.00      2.29680E-04
  867.00      2.26580E-04
  869.00      2.29390E-04
  871.00      2.29480E-04
  873.00      2.27350E-04
  875.00      2.21020E-04
  877.00      2.24950E-04
  879.00      2.27110E-04
  881.00      2.26780E-04
  883.00      2.25690E-04
  885.00      2.19990E-04
  887.00      2.13650E-04
  889.00      2.21980E-04
  891.00      2.22720E-04
  893.00      2.21970E-04
  895.00      2.21250E-04
  897.00      2.20200E-04
  899.00      2.17300E-04
  901.00      2.06450E-04
  903.00      2.10470E-04
  905.00      2.15820E-04
  907.00      2.15170E-04
  909.00      2.15120E-04
  911.00      2.14300E-04
  913.00      2.13710E-04
  915.00      2.12860E-04
  917.00      2.11690E-04
  919.00      2.10290E-04
  921.00      2.05850E-04
  923.00      1.93940E-04
  925.00      2.04030E-04
  927.00      2.06780E-04
  929.00      2.06710E-04
  931.00      2.05750E-04
  933.00      2.05090E-04
  935.00      2.01160E-04
  937.00      2.03070E-04
  939.00      2.02770E-04
  941.00      2.01930E-04
  943.00      2.01150E-04
  945.00      2.00370E-04
  947.00      1.99180E-04
  949.00      1.98610E-04
  951.00      1.96400E-04
  953.00      1.92010E-04
  955.00      1.81050E-04
  957.00      1.92370E-04
  959.00      1.94170E-04
  961.00      1.93860E-04
  963.00      1.93040E-04
  965.00      1.92640E-04
  967.00      1.91890E-04
  969.00      1.91110E-04
  971.00      1.89870E-04
  973.00      1.89630E-04
  975.00      1.88860E-04
  977.00      1.87670E-04
  979.00      1.87490E-04
  981.00      1.86770E-04
  983.00      1.86050E-04
  985.00      1.85350E-04
  987.00      1.84640E-04
  989.00      1.83940E-04
  991.00      1.83220E-04
  993.00      1.82550E-04
  995.00      1.81860E-04
  997.00      1.81170E-04
  999.00      1.80420E-04
  1002.5      1.75260E-04
  1007.5      1.72140E-04
  1012.5      1.73670E-04
  1017.5      1.74350E-04
  1022.5      1.72720E-04
  1027.5      1.71150E-04
  1032.5      1.69290E-04
  1037.5      1.68060E-04
  1042.5      1.66150E-04
  1047.5      1.65040E-04
  1052.5      1.63570E-04
  1057.5      1.62110E-04
  1062.5      1.60670E-04
  1067.5      1.59160E-04
  1072.5      1.57850E-04
  1077.5      1.56460E-04
  1082.5      1.54320E-04
  1087.5      1.53550E-04
  1092.5      1.45670E-04
  1097.5      1.49340E-04
  1102.5      1.49560E-04
  1107.5      1.48500E-04
  1112.5      1.47260E-04
  1117.5      1.46050E-04
  1122.5      1.44800E-04
  1127.5      1.43600E-04
  1132.5      1.42390E-04
  1137.5      1.41210E-04
  1142.5      1.40040E-04
  1147.5      1.38890E-04
  1152.5      1.37740E-04
  1157.5      1.36610E-04
  1162.5      1.34580E-04
  1167.5      1.33860E-04
  1172.5      1.33310E-04
  1177.5      1.32230E-04
  1182.5      1.31160E-04
  1187.5      1.30120E-04
  1192.5      1.29080E-04
  1197.5      1.27500E-04
  1202.5      1.27050E-04
  1207.5      1.26040E-04
  1212.5      1.25050E-04
  1217.5      1.24080E-04
  1222.5      1.23110E-04
  1227.5      1.22160E-04
  1232.5      1.21210E-04
  1237.5      1.20280E-04
  1242.5      1.19360E-04
  1247.5      1.18450E-04
  1252.5      1.17460E-04
  1257.5      1.16650E-04
  1262.5      1.15770E-04
  1267.5      1.14900E-04
  1272.5      1.14040E-04
  1277.5      1.12160E-04
  1282.5      1.07200E-04
  1287.5      1.11170E-04
  1292.5      1.10690E-04
  1297.5      1.09610E-04
  1302.5      1.09060E-04
  1307.5      1.08270E-04
  1312.5      1.07480E-04
  1317.5      1.06700E-04
  1322.5      1.05930E-04
  1327.5      1.05170E-04
  1332.5      1.04410E-04
  1337.5      1.03670E-04
  1342.5      1.02900E-04
  1347.5      1.02200E-04
  1352.5      1.01470E-04
  1357.5      1.00760E-04
  1362.5      1.00050E-04
  1367.5      9.93510E-05
  1372.5      9.86520E-05
  1377.5      9.79710E-05
  1382.5      9.72920E-05
  1387.5      9.66200E-05
  1392.5      9.59540E-05
  1397.5      9.52970E-05
