 Castelli and Kurucz 2004-2012 Atmosphere
 T     38000.     G    5.00000 [-1.0a] N(He)/Ntot=0.0784 VTURB=2.0  L/H=1.25 OD
 Wavelength  Eddington Hnu
   (nm)    (ergs/s/cm2/Hz/sr)
  9.0900      5.64210E-26
  9.3500      2.24170E-25
  9.6100      8.29690E-25
  9.7700      1.80370E-24
  9.9600      4.39360E-24
  10.200      1.29600E-23
  10.380      2.83490E-23
  10.560      6.05340E-23
  10.770      1.42520E-22
  11.040      4.10510E-22
  11.400      1.56920E-21
  11.780      5.98110E-21
  12.130      1.91980E-20
  12.480      5.81500E-20
  12.710      1.16980E-19
  12.840      1.71800E-19
  13.050      3.15000E-19
  13.240      5.37020E-19
  13.390      8.10540E-19
  13.660      1.66610E-18
  13.980      3.79120E-18
  14.330      8.95370E-18
  14.720      2.22490E-17
  15.100      5.20870E-17
  15.520      1.26980E-16
  15.880      2.63140E-16
  16.200      4.90000E-16
  16.600      1.03450E-15
  17.030      2.22180E-15
  17.340      3.77170E-15
  17.680      6.60650E-15
  18.020      1.13290E-14
  18.170      1.42860E-14
  18.610      2.76640E-14
  19.100      5.57620E-14
  19.390      8.30970E-14
  19.840      1.50950E-13
  20.180      2.32880E-13
  20.500      3.45850E-13
  21.050      6.64680E-13
  21.620      1.26280E-12
  21.980      1.86760E-12
  22.300      2.61430E-12
  22.680      3.83940E-12
  23.000      1.46460E-09
  23.400      7.22050E-09
  24.000      1.61260E-08
  24.650      3.37430E-08
  25.240      7.64660E-08
  25.680      7.62460E-08
  26.000      1.92760E-07
  26.400      7.11370E-07
  26.850      1.30590E-06
  27.350      1.69790E-06
  27.850      1.32070E-06
  28.400      3.21740E-06
  29.000      3.91000E-06
  29.600      2.60070E-06
  30.100      1.09040E-06
  30.800      4.21930E-06
  31.800      6.46560E-06
  32.800      8.78560E-06
  33.800      9.75840E-06
  34.800      1.21200E-05
  35.700      1.92550E-05
  36.600      2.84690E-05
  37.500      3.18100E-05
  38.500      3.45270E-05
  39.500      4.29500E-05
  40.500      4.91610E-05
  41.400      5.31600E-05
  42.200      5.37150E-05
  43.000      5.49460E-05
  44.100      6.23400E-05
  45.100      6.87730E-05
  46.000      6.98710E-05
  47.000      7.55730E-05
  48.000      8.37110E-05
  49.000      8.50470E-05
  50.000      9.85150E-05
  50.600      1.52380E-04
  51.200      4.48070E-04
  52.000      4.31000E-04
  53.000      4.21300E-04
  54.000      3.98120E-04
  55.000      4.19430E-04
  56.000      5.08880E-04
  57.000      5.34280E-04
  58.000      5.21640E-04
  59.000      5.52630E-04
  60.000      5.13630E-04
  61.000      5.46760E-04
  62.000      6.22050E-04
  63.000      6.26780E-04
  64.000      6.50030E-04
  65.000      6.50420E-04
  65.800      6.13470E-04
  66.500      6.66700E-04
  67.500      7.11090E-04
  68.500      6.70820E-04
  69.500      7.33830E-04
  70.500      6.82140E-04
  71.600      7.79280E-04
  72.600      7.91270E-04
  73.500      8.13710E-04
  74.500      8.01300E-04
  75.500      8.09350E-04
  76.500      8.20600E-04
  77.500      8.42650E-04
  78.500      8.54880E-04
  79.500      8.74120E-04
  80.500      8.78570E-04
  81.500      8.98470E-04
  82.500      9.24400E-04
  83.500      8.59730E-04
  84.500      9.41090E-04
  85.500      9.45850E-04
  86.500      9.73600E-04
  87.500      9.85980E-04
  88.500      9.96310E-04
  89.500      1.00830E-03
  90.500      1.00690E-03
  91.500      8.95190E-04
  92.500      1.65460E-03
  93.500      2.35060E-03
  94.500      3.27880E-03
  95.500      3.72270E-03
  96.500      4.54080E-03
  97.500      3.03180E-03
  98.500      4.46160E-03
  99.500      4.11290E-03
  100.50      4.34120E-03
  101.50      4.41420E-03
  102.50      3.18890E-03
  103.50      4.36790E-03
  104.50      4.58980E-03
  105.50      4.56200E-03
  106.50      4.33280E-03
  107.50      4.39210E-03
  108.50      4.08950E-03
  109.50      4.40910E-03
  110.50      4.29920E-03
  111.50      4.27800E-03
  112.50      4.02940E-03
  113.50      4.24850E-03
  114.50      4.18920E-03
  115.50      4.08560E-03
  116.50      4.05590E-03
  117.50      3.56880E-03
  118.50      3.90500E-03
  119.50      3.88180E-03
  120.50      3.78230E-03
  121.50      2.81600E-03
  122.50      3.73820E-03
  123.50      3.84410E-03
  124.50      3.79840E-03
  125.50      3.82770E-03
  126.50      3.83330E-03
  127.50      3.83000E-03
  128.50      3.82100E-03
  129.50      3.70600E-03
  130.50      3.70970E-03
  131.50      3.74590E-03
  132.50      3.69390E-03
  133.50      3.65720E-03
  134.50      3.65040E-03
  135.50      3.61280E-03
  136.50      3.56020E-03
  137.50      3.52170E-03
  138.50      3.50130E-03
  139.50      3.30890E-03
  140.50      3.28070E-03
  141.50      3.42860E-03
  142.50      3.30490E-03
  143.50      3.36960E-03
  144.20      3.35280E-03
  144.70      3.33780E-03
  145.50      3.28890E-03
  146.50      3.28240E-03
  147.50      3.25360E-03
  148.50      3.26730E-03
  149.50      3.22150E-03
  150.50      3.21380E-03
  151.20      3.21430E-03
  151.70      3.18550E-03
  152.50      3.15060E-03
  153.50      3.01370E-03
  154.50      2.83660E-03
  155.50      2.84910E-03
  156.50      2.91730E-03
  157.50      2.95780E-03
  158.50      2.96130E-03
  159.50      2.95120E-03
  160.50      2.85520E-03
  161.50      2.80610E-03
  162.50      2.80370E-03
  163.50      2.77640E-03
  164.50      2.68780E-03
  165.50      2.83350E-03
  166.50      2.80290E-03
  167.20      2.73200E-03
  167.70      2.84870E-03
  168.50      2.81630E-03
  169.50      2.79560E-03
  170.50      2.76160E-03
  171.50      2.70970E-03
  172.50      2.68080E-03
  173.50      2.73600E-03
  174.50      2.71480E-03
  175.50      2.68150E-03
  176.50      2.67660E-03
  177.50      2.66300E-03
  178.50      2.65700E-03
  179.50      2.62490E-03
  180.50      2.61740E-03
  181.50      2.59870E-03
  182.50      2.57610E-03
  183.50      2.57540E-03
  184.50      2.54680E-03
  185.50      2.52590E-03
  186.50      2.51040E-03
  187.50      2.48830E-03
  188.50      2.46990E-03
  189.50      2.46670E-03
  190.50      2.46240E-03
  191.50      2.43850E-03
  192.50      2.38240E-03
  193.50      2.41270E-03
  194.50      2.40330E-03
  195.50      2.36590E-03
  196.70      2.36510E-03
  197.60      2.35590E-03
  198.40      2.34100E-03
  199.50      2.31930E-03
  200.50      2.31490E-03
  201.50      2.30080E-03
  202.50      2.28540E-03
  203.50      2.26920E-03
  204.50      2.25290E-03
  205.50      1.78190E-03
  206.50      1.72280E-03
  207.40      1.74330E-03
  207.80      1.76850E-03
  208.50      1.84770E-03
  209.50      2.01920E-03
  210.50      2.14730E-03
  211.50      2.16360E-03
  212.50      2.13990E-03
  213.50      2.13380E-03
  214.50      2.12270E-03
  215.50      2.13090E-03
  216.50      2.06410E-03
  217.50      2.11910E-03
  218.50      2.04740E-03
  219.50      2.09560E-03
  220.50      2.08640E-03
  221.50      2.00300E-03
  222.50      2.05970E-03
  223.50      2.04990E-03
  224.50      2.03280E-03
  225.50      1.95440E-03
  226.50      2.01080E-03
  227.50      2.00010E-03
  228.50      1.97820E-03
  229.50      1.93440E-03
  230.50      1.89530E-03
  231.50      1.94330E-03
  232.50      1.93750E-03
  233.50      1.92640E-03
  234.50      1.91430E-03
  235.50      1.90190E-03
  236.50      1.89020E-03
  237.50      1.87590E-03
  238.50      1.79660E-03
  239.50      1.84190E-03
  240.50      1.84380E-03
  241.50      1.83100E-03
  242.50      1.82320E-03
  243.50      1.81030E-03
  244.50      1.80060E-03
  245.50      1.78640E-03
  246.50      1.78000E-03
  247.50      1.76990E-03
  248.50      1.75760E-03
  249.50      1.62020E-03
  250.50      1.72540E-03
  251.30      1.61660E-03
  251.80      1.69270E-03
  252.50      1.71620E-03
  253.50      1.70890E-03
  254.50      1.69780E-03
  255.50      1.68730E-03
  256.50      1.67860E-03
  257.50      1.66970E-03
  258.50      1.66040E-03
  259.50      1.64610E-03
  260.50      1.64350E-03
  261.50      1.63220E-03
  262.50      1.62500E-03
  263.50      1.61610E-03
  264.50      1.60610E-03
  265.50      1.59740E-03
  266.50      1.58670E-03
  267.50      1.57270E-03
  268.50      1.56980E-03
  269.50      1.55800E-03
  270.50      1.55400E-03
  271.50      1.54450E-03
  272.50      1.53090E-03
  273.50      1.48450E-03
  274.50      1.51990E-03
  275.50      1.51130E-03
  276.50      1.49800E-03
  277.50      1.49540E-03
  278.50      1.48610E-03
  279.50      1.46970E-03
  280.50      1.46890E-03
  281.50      1.46280E-03
  282.50      1.44970E-03
  283.50      1.44390E-03
  284.50      1.44030E-03
  285.50      1.43210E-03
  286.50      1.42390E-03
  287.50      1.41650E-03
  288.50      1.40940E-03
  289.50      1.40120E-03
  291.00      1.38920E-03
  293.00      1.37620E-03
  295.00      1.35710E-03
  297.00      1.34650E-03
  299.00      1.33020E-03
  301.00      1.31710E-03
  303.00      1.30060E-03
  305.00      1.28960E-03
  307.00      1.27930E-03
  309.00      1.26440E-03
  311.00      1.25310E-03
  313.00      1.24020E-03
  315.00      1.22840E-03
  317.00      1.21600E-03
  319.00      1.20030E-03
  321.00      1.17760E-03
  323.00      1.18230E-03
  325.00      1.17130E-03
  327.00      1.15540E-03
  329.00      1.14780E-03
  331.00      1.13710E-03
  333.00      1.12600E-03
  335.00      1.11310E-03
  337.00      1.10500E-03
  339.00      1.09550E-03
  341.00      1.08520E-03
  343.00      1.07420E-03
  345.00      1.06120E-03
  347.00      1.05420E-03
  349.00      1.04490E-03
  351.00      1.03610E-03
  353.00      1.02700E-03
  355.00      1.01700E-03
  357.00      1.01070E-03
  359.00      9.97860E-04
  361.00      9.90850E-04
  363.00      9.79670E-04
  364.00      9.68590E-04
  365.00      9.12590E-04
  367.00      9.06470E-04
  369.00      8.99770E-04
  371.00      8.89620E-04
  373.00      8.88820E-04
  375.00      8.89770E-04
  377.00      8.83860E-04
  379.00      9.01900E-04
  381.00      9.24800E-04
  383.00      8.62180E-04
  385.00      9.34130E-04
  387.00      9.41710E-04
  389.00      8.31090E-04
  391.00      9.36160E-04
  393.00      9.30210E-04
  395.00      9.19580E-04
  397.00      7.99180E-04
  399.00      9.04200E-04
  401.00      9.03330E-04
  403.00      8.72860E-04
  405.00      8.95020E-04
  407.00      8.81520E-04
  409.00      8.36050E-04
  411.00      7.76110E-04
  413.00      8.57230E-04
  415.00      8.54500E-04
  417.00      8.52500E-04
  419.00      8.41510E-04
  421.00      8.29520E-04
  423.00      8.32640E-04
  425.00      8.24860E-04
  427.00      8.17600E-04
  429.00      8.11080E-04
  431.00      8.00470E-04
  433.00      7.53700E-04
  435.00      7.15180E-04
  437.00      7.81480E-04
  439.00      7.69020E-04
  441.00      7.72580E-04
  443.00      7.67510E-04
  445.00      7.62070E-04
  447.00      7.37950E-04
  449.00      7.50000E-04
  451.00      7.44270E-04
  453.00      7.37940E-04
  455.00      7.22290E-04
  457.00      7.28070E-04
  459.00      7.21780E-04
  461.00      7.16360E-04
  463.00      7.09180E-04
  465.00      6.96320E-04
  467.00      6.99270E-04
  469.00      6.76000E-04
  471.00      6.84840E-04
  473.00      6.85980E-04
  475.00      6.80810E-04
  477.00      6.75920E-04
  479.00      6.70990E-04
  481.00      6.65590E-04
  483.00      6.57860E-04
  485.00      6.26200E-04
  487.00      5.85380E-04
  489.00      6.42120E-04
  491.00      6.40760E-04
  493.00      6.28470E-04
  495.00      6.32500E-04
  497.00      6.28760E-04
  499.00      6.24320E-04
  501.00      6.15490E-04
  503.00      6.15210E-04
  505.00      6.09720E-04
  507.00      6.07000E-04
  509.00      6.02760E-04
  511.00      5.98600E-04
  513.00      5.94470E-04
  515.00      5.90360E-04
  517.00      5.86230E-04
  519.00      5.82290E-04
  521.00      5.78350E-04
  523.00      5.74450E-04
  525.00      5.70430E-04
  527.00      5.66470E-04
  529.00      5.62900E-04
  531.00      5.59130E-04
  533.00      5.55390E-04
  535.00      5.51700E-04
  537.00      5.48040E-04
  539.00      5.44380E-04
  541.00      5.32360E-04
  543.00      5.37230E-04
  545.00      5.33750E-04
  547.00      5.30260E-04
  549.00      5.26820E-04
  551.00      5.23300E-04
  553.00      5.20020E-04
  555.00      5.16670E-04
  557.00      5.13340E-04
  559.00      5.09510E-04
  561.00      5.06800E-04
  563.00      5.03580E-04
  565.00      5.00380E-04
  567.00      4.97190E-04
  569.00      4.90150E-04
  571.00      4.74020E-04
  573.00      4.71240E-04
  575.00      4.68400E-04
  577.00      4.65740E-04
  579.00      4.63030E-04
  581.00      4.60220E-04
  583.00      4.57790E-04
  585.00      4.55740E-04
  587.00      4.46190E-04
  589.00      4.51580E-04
  591.00      4.50570E-04
  593.00      4.49220E-04
  595.00      4.47970E-04
  597.00      4.46880E-04
  599.00      4.45890E-04
  601.00      4.44700E-04
  603.00      4.43190E-04
  605.00      4.42220E-04
  607.00      4.40100E-04
  609.00      4.37520E-04
  611.00      4.34900E-04
  613.00      4.32360E-04
  615.00      4.29790E-04
  617.00      4.27210E-04
  619.00      4.24790E-04
  621.00      4.22320E-04
  623.00      4.19820E-04
  625.00      4.17420E-04
  627.00      4.15010E-04
  629.00      4.12610E-04
  631.00      4.09860E-04
  633.00      4.07880E-04
  635.00      4.05550E-04
  637.00      4.03240E-04
  639.00      4.00940E-04
  641.00      3.97950E-04
  643.00      3.96410E-04
  645.00      3.94170E-04
  647.00      3.91920E-04
  649.00      3.89720E-04
  651.00      3.87110E-04
  653.00      3.82630E-04
  655.00      3.73110E-04
  657.00      3.45610E-04
  659.00      3.76380E-04
  661.00      3.76600E-04
  663.00      3.74870E-04
  665.00      3.72850E-04
  667.00      3.67840E-04
  669.00      3.64680E-04
  671.00      3.66480E-04
  673.00      3.64710E-04
  675.00      3.62780E-04
  677.00      3.60880E-04
  679.00      3.58940E-04
  681.00      3.57020E-04
  683.00      3.55100E-04
  685.00      3.53200E-04
  687.00      3.51300E-04
  689.00      3.47530E-04
  691.00      3.47430E-04
  693.00      3.45770E-04
  695.00      3.43940E-04
  697.00      3.42140E-04
  699.00      3.40340E-04
  701.00      3.38510E-04
  703.00      3.36690E-04
  705.00      3.34960E-04
  707.00      3.30190E-04
  709.00      3.31570E-04
  711.00      3.29850E-04
  713.00      3.28160E-04
  715.00      3.26480E-04
  717.00      3.23440E-04
  719.00      3.22320E-04
  721.00      3.21500E-04
  723.00      3.19800E-04
  725.00      3.18220E-04
  727.00      3.16630E-04
  729.00      3.13620E-04
  731.00      3.13420E-04
  733.00      3.11870E-04
  735.00      3.10310E-04
  737.00      3.08750E-04
  739.00      3.07220E-04
  741.00      3.05690E-04
  743.00      3.04180E-04
  745.00      3.02650E-04
  747.00      3.01170E-04
  749.00      2.99600E-04
  751.00      2.98200E-04
  753.00      2.96770E-04
  755.00      2.95320E-04
  757.00      2.93880E-04
  759.00      2.90140E-04
  761.00      2.90880E-04
  763.00      2.89620E-04
  765.00      2.88210E-04
  767.00      2.86830E-04
  769.00      2.85340E-04
  771.00      2.84060E-04
  773.00      2.82550E-04
  775.00      2.81380E-04
  777.00      2.80040E-04
  779.00      2.78710E-04
  781.00      2.77340E-04
  783.00      2.76080E-04
  785.00      2.74850E-04
  787.00      2.73520E-04
  789.00      2.72250E-04
  791.00      2.71020E-04
  793.00      2.69750E-04
  795.00      2.68500E-04
  797.00      2.67200E-04
  799.00      2.66000E-04
  801.00      2.64770E-04
  803.00      2.63530E-04
  805.00      2.62340E-04
  807.00      2.61130E-04
  809.00      2.59880E-04
  811.00      2.58660E-04
  813.00      2.57560E-04
  815.00      2.56340E-04
  817.00      2.55180E-04
  819.00      2.53450E-04
  821.00      2.48170E-04
  823.00      2.45960E-04
  825.00      2.45820E-04
  827.00      2.44790E-04
  829.00      2.44050E-04
  831.00      2.43050E-04
  833.00      2.41870E-04
  835.00      2.40530E-04
  837.00      2.39760E-04
  839.00      2.38850E-04
  841.00      2.37840E-04
  843.00      2.36800E-04
  845.00      2.35330E-04
  847.00      2.34860E-04
  849.00      2.33820E-04
  851.00      2.32890E-04
  853.00      2.31900E-04
  855.00      2.31010E-04
  857.00      2.30440E-04
  859.00      2.28240E-04
  861.00      2.28200E-04
  863.00      2.28240E-04
  865.00      2.26270E-04
  867.00      2.24130E-04
  869.00      2.25770E-04
  871.00      2.25690E-04
  873.00      2.23170E-04
  875.00      2.18370E-04
  877.00      2.20640E-04
  879.00      2.22850E-04
  881.00      2.22660E-04
  883.00      2.21190E-04
  885.00      2.15090E-04
  887.00      2.10210E-04
  889.00      2.17350E-04
  891.00      2.18750E-04
  893.00      2.18380E-04
  895.00      2.17750E-04
  897.00      2.16420E-04
  899.00      2.12520E-04
  901.00      2.01910E-04
  903.00      2.05330E-04
  905.00      2.11500E-04
  907.00      2.11220E-04
  909.00      2.11610E-04
  911.00      2.11110E-04
  913.00      2.10650E-04
  915.00      2.09550E-04
  917.00      2.08090E-04
  919.00      2.06410E-04
  921.00      2.00520E-04
  923.00      1.88900E-04
  925.00      1.98640E-04
  927.00      2.02830E-04
  929.00      2.03170E-04
  931.00      2.02450E-04
  933.00      2.02030E-04
  935.00      1.98520E-04
  937.00      2.00420E-04
  939.00      1.99840E-04
  941.00      1.99010E-04
  943.00      1.98240E-04
  945.00      1.97450E-04
  947.00      1.95790E-04
  949.00      1.95160E-04
  951.00      1.92400E-04
  953.00      1.86490E-04
  955.00      1.75600E-04
  957.00      1.87260E-04
  959.00      1.90480E-04
  961.00      1.90510E-04
  963.00      1.89860E-04
  965.00      1.89790E-04
  967.00      1.89050E-04
  969.00      1.88260E-04
  971.00      1.86930E-04
  973.00      1.86800E-04
  975.00      1.86120E-04
  977.00      1.85240E-04
  979.00      1.84690E-04
  981.00      1.83970E-04
  983.00      1.83260E-04
  985.00      1.82560E-04
  987.00      1.81860E-04
  989.00      1.81150E-04
  991.00      1.80420E-04
  993.00      1.79780E-04
  995.00      1.79100E-04
  997.00      1.78310E-04
  999.00      1.77170E-04
  1002.5      1.70800E-04
  1007.5      1.67640E-04
  1012.5      1.70970E-04
  1017.5      1.71660E-04
  1022.5      1.70030E-04
  1027.5      1.68500E-04
  1032.5      1.66530E-04
  1037.5      1.65430E-04
  1042.5      1.63760E-04
  1047.5      1.62440E-04
  1052.5      1.60970E-04
  1057.5      1.59530E-04
  1062.5      1.58100E-04
  1067.5      1.56570E-04
  1072.5      1.55310E-04
  1077.5      1.53930E-04
  1082.5      1.51690E-04
  1087.5      1.50680E-04
  1092.5      1.41410E-04
  1097.5      1.45680E-04
  1102.5      1.46780E-04
  1107.5      1.46000E-04
  1112.5      1.44830E-04
  1117.5      1.43620E-04
  1122.5      1.42370E-04
  1127.5      1.41200E-04
  1132.5      1.40000E-04
  1137.5      1.38830E-04
  1142.5      1.37680E-04
  1147.5      1.36530E-04
  1152.5      1.35400E-04
  1157.5      1.34290E-04
  1162.5      1.32420E-04
  1167.5      1.31790E-04
  1172.5      1.31020E-04
  1177.5      1.29960E-04
  1182.5      1.28910E-04
  1187.5      1.27870E-04
  1192.5      1.26850E-04
  1197.5      1.25010E-04
  1202.5      1.24840E-04
  1207.5      1.23850E-04
  1212.5      1.22860E-04
  1217.5      1.21910E-04
  1222.5      1.20960E-04
  1227.5      1.20010E-04
  1232.5      1.19080E-04
  1237.5      1.18160E-04
  1242.5      1.17250E-04
  1247.5      1.16350E-04
  1252.5      1.15340E-04
  1257.5      1.14580E-04
  1262.5      1.13710E-04
  1267.5      1.12850E-04
  1272.5      1.11930E-04
  1277.5      1.09600E-04
  1282.5      1.03880E-04
  1287.5      1.08770E-04
  1292.5      1.08660E-04
  1297.5      1.07510E-04
  1302.5      1.07090E-04
  1307.5      1.06310E-04
  1312.5      1.05540E-04
  1317.5      1.04770E-04
  1322.5      1.04010E-04
  1327.5      1.03260E-04
  1332.5      1.02510E-04
  1337.5      1.01770E-04
  1342.5      1.01010E-04
  1347.5      1.00330E-04
  1352.5      9.96120E-05
  1357.5      9.89090E-05
  1362.5      9.82090E-05
  1367.5      9.75210E-05
  1372.5      9.68310E-05
  1377.5      9.61620E-05
  1382.5      9.54930E-05
  1387.5      9.48310E-05
  1392.5      9.41740E-05
  1397.5      9.35270E-05
