 Castelli and Kurucz 2004-2012 Atmosphere
 T     43000.     G    4.50000 [-1.0a] N(He)/Ntot=0.0784 VTURB=2.0  L/H=1.25 OD
 Wavelength  Eddington Hnu
   (nm)    (ergs/s/cm2/Hz/sr)
  9.0900      2.85130E-22
  9.3500      8.94420E-22
  9.6100      2.63220E-21
  9.7700      5.03600E-21
  9.9600      1.05350E-20
  10.200      2.58210E-20
  10.380      4.94040E-20
  10.560      9.26410E-20
  10.770      1.88290E-19
  11.040      4.52070E-19
  11.400      1.37050E-18
  11.780      4.14050E-18
  12.130      1.08540E-17
  12.480      2.70710E-17
  12.710      4.81430E-17
  12.840      6.60950E-17
  13.050      1.08890E-16
  13.240      1.68900E-16
  13.390      2.37160E-16
  13.660      4.28640E-16
  13.980      8.45990E-16
  14.330      1.71740E-15
  14.720      3.60610E-15
  15.100      7.35850E-15
  15.520      1.53870E-14
  15.880      2.81680E-14
  16.200      4.74680E-14
  16.600      8.86570E-14
  17.030      1.67090E-13
  17.340      2.59480E-13
  17.680      4.16700E-13
  18.020      6.55150E-13
  18.170      7.88580E-13
  18.610      1.38770E-12
  19.100      2.50200E-12
  19.390      3.51160E-12
  19.840      5.81110E-12
  20.180      8.38490E-12
  20.500      1.17430E-11
  21.050      2.04640E-11
  21.620      3.52920E-11
  21.980      4.93800E-11
  22.300      6.57520E-11
  22.680      9.09610E-11
  23.000      3.25740E-08
  23.400      1.60880E-07
  24.000      5.16140E-07
  24.650      3.52960E-06
  25.240      1.60590E-05
  25.680      1.72250E-05
  26.000      3.05680E-05
  26.400      7.19970E-05
  26.850      9.91670E-05
  27.350      1.20740E-04
  27.850      9.83530E-05
  28.400      1.73390E-04
  29.000      2.19190E-04
  29.600      1.70720E-04
  30.100      5.08350E-05
  30.800      1.12840E-04
  31.800      8.57950E-05
  32.800      1.15760E-04
  33.800      8.75530E-05
  34.800      9.56370E-05
  35.700      2.08350E-04
  36.600      3.36630E-04
  37.500      4.11230E-04
  38.500      4.15810E-04
  39.500      5.59720E-04
  40.500      7.09760E-04
  41.400      7.38950E-04
  42.200      7.29020E-04
  43.000      7.12350E-04
  44.100      8.25160E-04
  45.100      8.85740E-04
  46.000      8.34790E-04
  47.000      8.81650E-04
  48.000      9.65170E-04
  49.000      8.58620E-04
  50.000      1.05970E-03
  50.600      9.51350E-04
  51.200      1.30580E-03
  52.000      1.27360E-03
  53.000      1.24340E-03
  54.000      1.15490E-03
  55.000      1.06180E-03
  56.000      1.33740E-03
  57.000      1.46330E-03
  58.000      1.46360E-03
  59.000      1.51700E-03
  60.000      1.42010E-03
  61.000      1.35080E-03
  62.000      1.59700E-03
  63.000      1.56210E-03
  64.000      1.68280E-03
  65.000      1.64430E-03
  65.800      1.54650E-03
  66.500      1.71010E-03
  67.500      1.77620E-03
  68.500      1.69050E-03
  69.500      1.81380E-03
  70.500      1.67860E-03
  71.600      1.87130E-03
  72.600      1.91440E-03
  73.500      1.93730E-03
  74.500      1.91240E-03
  75.500      1.90870E-03
  76.500      1.87460E-03
  77.500      1.95600E-03
  78.500      1.87850E-03
  79.500      1.97560E-03
  80.500      2.00090E-03
  81.500      2.03280E-03
  82.500      2.06390E-03
  83.500      1.93400E-03
  84.500      2.07750E-03
  85.500      2.05090E-03
  86.500      2.11840E-03
  87.500      2.14190E-03
  88.500      2.13660E-03
  89.500      2.15170E-03
  90.500      2.13430E-03
  91.500      1.71670E-03
  92.500      2.91860E-03
  93.500      3.74490E-03
  94.500      4.38680E-03
  95.500      4.87420E-03
  96.500      5.33830E-03
  97.500      4.31740E-03
  98.500      5.12920E-03
  99.500      4.82280E-03
  100.50      5.00960E-03
  101.50      5.09240E-03
  102.50      4.43790E-03
  103.50      5.15170E-03
  104.50      5.22720E-03
  105.50      5.20420E-03
  106.50      5.02250E-03
  107.50      5.09780E-03
  108.50      4.86780E-03
  109.50      5.07830E-03
  110.50      5.00290E-03
  111.50      4.96550E-03
  112.50      4.83660E-03
  113.50      4.95230E-03
  114.50      4.93200E-03
  115.50      4.82400E-03
  116.50      4.76050E-03
  117.50      4.44580E-03
  118.50      4.68220E-03
  119.50      4.62840E-03
  120.50      4.60940E-03
  121.50      3.92960E-03
  122.50      4.55590E-03
  123.50      4.49940E-03
  124.50      4.45350E-03
  125.50      4.51320E-03
  126.50      4.49280E-03
  127.50      4.47870E-03
  128.50      4.45880E-03
  129.50      4.42370E-03
  130.50      4.36710E-03
  131.50      4.35850E-03
  132.50      4.31400E-03
  133.50      4.30230E-03
  134.50      4.27740E-03
  135.50      4.20520E-03
  136.50      4.12580E-03
  137.50      4.05300E-03
  138.50      4.08570E-03
  139.50      3.99580E-03
  140.50      3.89860E-03
  141.50      4.04530E-03
  142.50      3.95480E-03
  143.50      3.99180E-03
  144.20      3.92280E-03
  144.70      3.91950E-03
  145.50      3.87570E-03
  146.50      3.86730E-03
  147.50      3.85630E-03
  148.50      3.87510E-03
  149.50      3.82960E-03
  150.50      3.82400E-03
  151.20      3.82440E-03
  151.70      3.77640E-03
  152.50      3.76950E-03
  153.50      3.66450E-03
  154.50      3.44360E-03
  155.50      3.45860E-03
  156.50      3.56450E-03
  157.50      3.59110E-03
  158.50      3.55580E-03
  159.50      3.54410E-03
  160.50      3.46930E-03
  161.50      3.43790E-03
  162.50      3.40830E-03
  163.50      3.37490E-03
  164.50      3.24750E-03
  165.50      3.41000E-03
  166.50      3.38680E-03
  167.20      3.32060E-03
  167.70      3.39680E-03
  168.50      3.37570E-03
  169.50      3.35990E-03
  170.50      3.32160E-03
  171.50      3.24510E-03
  172.50      3.24060E-03
  173.50      3.28010E-03
  174.50      3.25150E-03
  175.50      3.22170E-03
  176.50      3.20600E-03
  177.50      3.19210E-03
  178.50      3.18050E-03
  179.50      3.14670E-03
  180.50      3.13050E-03
  181.50      3.11090E-03
  182.50      3.08800E-03
  183.50      3.07380E-03
  184.50      3.05320E-03
  185.50      3.02900E-03
  186.50      3.01000E-03
  187.50      2.98500E-03
  188.50      2.96580E-03
  189.50      2.96000E-03
  190.50      2.94140E-03
  191.50      2.92000E-03
  192.50      2.87250E-03
  193.50      2.88500E-03
  194.50      2.86760E-03
  195.50      2.84220E-03
  196.70      2.82490E-03
  197.60      2.80600E-03
  198.40      2.79550E-03
  199.50      2.77420E-03
  200.50      2.75890E-03
  201.50      2.74110E-03
  202.50      2.72360E-03
  203.50      2.70520E-03
  204.50      2.68150E-03
  205.50      2.06770E-03
  206.50      2.00720E-03
  207.40      2.06330E-03
  207.80      2.11900E-03
  208.50      2.27940E-03
  209.50      2.52800E-03
  210.50      2.58280E-03
  211.50      2.58000E-03
  212.50      2.55810E-03
  213.50      2.54550E-03
  214.50      2.53370E-03
  215.50      2.55810E-03
  216.50      2.46370E-03
  217.50      2.54340E-03
  218.50      2.45170E-03
  219.50      2.51480E-03
  220.50      2.50070E-03
  221.50      2.40480E-03
  222.50      2.46980E-03
  223.50      2.45630E-03
  224.50      2.43950E-03
  225.50      2.35260E-03
  226.50      2.41010E-03
  227.50      2.39780E-03
  228.50      2.37600E-03
  229.50      2.34540E-03
  230.50      2.28450E-03
  231.50      2.33220E-03
  232.50      2.32450E-03
  233.50      2.31150E-03
  234.50      2.29600E-03
  235.50      2.28170E-03
  236.50      2.26780E-03
  237.50      2.25160E-03
  238.50      2.16560E-03
  239.50      2.21440E-03
  240.50      2.20970E-03
  241.50      2.19340E-03
  242.50      2.18860E-03
  243.50      2.17330E-03
  244.50      2.16150E-03
  245.50      2.14170E-03
  246.50      2.13600E-03
  247.50      2.12580E-03
  248.50      2.11110E-03
  249.50      2.00360E-03
  250.50      2.07990E-03
  251.30      1.95020E-03
  251.80      2.04750E-03
  252.50      2.05590E-03
  253.50      2.05200E-03
  254.50      2.04060E-03
  255.50      2.02800E-03
  256.50      2.01740E-03
  257.50      2.00580E-03
  258.50      1.99450E-03
  259.50      1.97120E-03
  260.50      1.97220E-03
  261.50      1.95540E-03
  262.50      1.95060E-03
  263.50      1.94020E-03
  264.50      1.92760E-03
  265.50      1.91860E-03
  266.50      1.90670E-03
  267.50      1.88920E-03
  268.50      1.88420E-03
  269.50      1.87390E-03
  270.50      1.86650E-03
  271.50      1.85560E-03
  272.50      1.84440E-03
  273.50      1.78530E-03
  274.50      1.82590E-03
  275.50      1.81510E-03
  276.50      1.80510E-03
  277.50      1.79510E-03
  278.50      1.78310E-03
  279.50      1.77160E-03
  280.50      1.76590E-03
  281.50      1.75670E-03
  282.50      1.74540E-03
  283.50      1.73790E-03
  284.50      1.72980E-03
  285.50      1.72060E-03
  286.50      1.71130E-03
  287.50      1.70220E-03
  288.50      1.69350E-03
  289.50      1.68390E-03
  291.00      1.67060E-03
  293.00      1.65390E-03
  295.00      1.63610E-03
  297.00      1.61820E-03
  299.00      1.59850E-03
  301.00      1.58360E-03
  303.00      1.56340E-03
  305.00      1.54990E-03
  307.00      1.53440E-03
  309.00      1.52170E-03
  311.00      1.50640E-03
  313.00      1.49060E-03
  315.00      1.47810E-03
  317.00      1.46280E-03
  319.00      1.44810E-03
  321.00      1.41360E-03
  323.00      1.42190E-03
  325.00      1.40830E-03
  327.00      1.38810E-03
  329.00      1.38010E-03
  331.00      1.36670E-03
  333.00      1.35390E-03
  335.00      1.33830E-03
  337.00      1.32870E-03
  339.00      1.31580E-03
  341.00      1.30290E-03
  343.00      1.29270E-03
  345.00      1.27820E-03
  347.00      1.26910E-03
  349.00      1.25780E-03
  351.00      1.24650E-03
  353.00      1.23440E-03
  355.00      1.22310E-03
  357.00      1.21290E-03
  359.00      1.20150E-03
  361.00      1.19090E-03
  363.00      1.17940E-03
  364.00      1.15240E-03
  365.00      1.05510E-03
  367.00      1.04740E-03
  369.00      1.04210E-03
  371.00      1.04270E-03
  373.00      1.05110E-03
  375.00      1.06680E-03
  377.00      1.07760E-03
  379.00      1.09390E-03
  381.00      1.10760E-03
  383.00      1.06300E-03
  385.00      1.10350E-03
  387.00      1.10520E-03
  389.00      1.02850E-03
  391.00      1.09190E-03
  393.00      1.07520E-03
  395.00      1.07390E-03
  397.00      9.91180E-04
  399.00      1.05630E-03
  401.00      1.05090E-03
  403.00      1.02420E-03
  405.00      1.03560E-03
  407.00      1.02570E-03
  409.00      9.96730E-04
  411.00      9.48190E-04
  413.00      9.99840E-04
  415.00      9.92700E-04
  417.00      9.85750E-04
  419.00      9.73940E-04
  421.00      9.56560E-04
  423.00      9.62370E-04
  425.00      9.54540E-04
  427.00      9.46970E-04
  429.00      9.39490E-04
  431.00      9.31090E-04
  433.00      9.00800E-04
  435.00      8.69380E-04
  437.00      9.09050E-04
  439.00      9.00800E-04
  441.00      8.95530E-04
  443.00      8.88980E-04
  445.00      8.82120E-04
  447.00      8.69970E-04
  449.00      8.68740E-04
  451.00      8.61930E-04
  453.00      8.54470E-04
  455.00      8.35620E-04
  457.00      8.42880E-04
  459.00      8.36570E-04
  461.00      8.30200E-04
  463.00      8.22690E-04
  465.00      8.13190E-04
  467.00      8.10840E-04
  469.00      7.80030E-04
  471.00      7.98810E-04
  473.00      7.94460E-04
  475.00      7.88670E-04
  477.00      7.82910E-04
  479.00      7.77210E-04
  481.00      7.71590E-04
  483.00      7.65590E-04
  485.00      7.46450E-04
  487.00      7.11380E-04
  489.00      7.48680E-04
  491.00      7.44350E-04
  493.00      7.36820E-04
  495.00      7.33940E-04
  497.00      7.28870E-04
  499.00      7.23800E-04
  501.00      7.17360E-04
  503.00      7.13650E-04
  505.00      7.08470E-04
  507.00      7.03910E-04
  509.00      6.99090E-04
  511.00      6.94310E-04
  513.00      6.89550E-04
  515.00      6.84860E-04
  517.00      6.80220E-04
  519.00      6.75630E-04
  521.00      6.71070E-04
  523.00      6.66580E-04
  525.00      6.62030E-04
  527.00      6.57400E-04
  529.00      6.53320E-04
  531.00      6.48990E-04
  533.00      6.44700E-04
  535.00      6.40470E-04
  537.00      6.36260E-04
  539.00      6.32090E-04
  541.00      6.17270E-04
  543.00      6.23840E-04
  545.00      6.19860E-04
  547.00      6.15840E-04
  549.00      6.11880E-04
  551.00      6.07780E-04
  553.00      6.04060E-04
  555.00      6.00210E-04
  557.00      5.96350E-04
  559.00      5.91820E-04
  561.00      5.88870E-04
  563.00      5.85160E-04
  565.00      5.81480E-04
  567.00      5.77840E-04
  569.00      5.67190E-04
  571.00      5.34750E-04
  573.00      5.31670E-04
  575.00      5.28630E-04
  577.00      5.25720E-04
  579.00      5.23080E-04
  581.00      5.20310E-04
  583.00      5.19380E-04
  585.00      5.18480E-04
  587.00      5.14910E-04
  589.00      5.17350E-04
  591.00      5.17330E-04
  593.00      5.17670E-04
  595.00      5.18490E-04
  597.00      5.19250E-04
  599.00      5.20420E-04
  601.00      5.18980E-04
  603.00      5.16890E-04
  605.00      5.15420E-04
  607.00      5.11830E-04
  609.00      5.09550E-04
  611.00      5.06060E-04
  613.00      5.03120E-04
  615.00      5.00960E-04
  617.00      4.96210E-04
  619.00      4.95060E-04
  621.00      4.92290E-04
  623.00      4.87370E-04
  625.00      4.86240E-04
  627.00      4.83840E-04
  629.00      4.81060E-04
  631.00      4.75380E-04
  633.00      4.75400E-04
  635.00      4.72900E-04
  637.00      4.70230E-04
  639.00      4.67390E-04
  641.00      4.61270E-04
  643.00      4.62330E-04
  645.00      4.59740E-04
  647.00      4.57160E-04
  649.00      4.54640E-04
  651.00      4.51890E-04
  653.00      4.44790E-04
  655.00      4.42160E-04
  657.00      4.17480E-04
  659.00      4.41560E-04
  661.00      4.39810E-04
  663.00      4.37410E-04
  665.00      4.35040E-04
  667.00      4.31030E-04
  669.00      4.24470E-04
  671.00      4.27800E-04
  673.00      4.25670E-04
  675.00      4.23380E-04
  677.00      4.21140E-04
  679.00      4.18900E-04
  681.00      4.16660E-04
  683.00      4.14450E-04
  685.00      4.12250E-04
  687.00      4.10060E-04
  689.00      4.02540E-04
  691.00      4.05580E-04
  693.00      4.03630E-04
  695.00      4.01520E-04
  697.00      3.99420E-04
  699.00      3.97340E-04
  701.00      3.95240E-04
  703.00      3.93170E-04
  705.00      3.91140E-04
  707.00      3.87820E-04
  709.00      3.87180E-04
  711.00      3.85190E-04
  713.00      3.83220E-04
  715.00      3.81270E-04
  717.00      3.75780E-04
  719.00      3.75460E-04
  721.00      3.75490E-04
  723.00      3.73590E-04
  725.00      3.71710E-04
  727.00      3.69840E-04
  729.00      3.67560E-04
  731.00      3.66090E-04
  733.00      3.64320E-04
  735.00      3.62500E-04
  737.00      3.60680E-04
  739.00      3.58910E-04
  741.00      3.57110E-04
  743.00      3.55380E-04
  745.00      3.53550E-04
  747.00      3.51900E-04
  749.00      3.50120E-04
  751.00      3.48440E-04
  753.00      3.46770E-04
  755.00      3.45090E-04
  757.00      3.43410E-04
  759.00      3.36790E-04
  761.00      3.39830E-04
  763.00      3.38460E-04
  765.00      3.36830E-04
  767.00      3.35230E-04
  769.00      3.33540E-04
  771.00      3.32010E-04
  773.00      3.30320E-04
  775.00      3.28890E-04
  777.00      3.27340E-04
  779.00      3.25790E-04
  781.00      3.24250E-04
  783.00      3.22730E-04
  785.00      3.21170E-04
  787.00      3.19700E-04
  789.00      3.18220E-04
  791.00      3.16760E-04
  793.00      3.15290E-04
  795.00      3.13830E-04
  797.00      3.12310E-04
  799.00      3.10930E-04
  801.00      3.09500E-04
  803.00      3.08060E-04
  805.00      3.06670E-04
  807.00      3.05270E-04
  809.00      3.03870E-04
  811.00      3.02490E-04
  813.00      3.01120E-04
  815.00      2.99750E-04
  817.00      2.98330E-04
  819.00      2.95820E-04
  821.00      2.84090E-04
  823.00      2.81220E-04
  825.00      2.81360E-04
  827.00      2.80450E-04
  829.00      2.79300E-04
  831.00      2.78130E-04
  833.00      2.76900E-04
  835.00      2.75760E-04
  837.00      2.74680E-04
  839.00      2.73610E-04
  841.00      2.72640E-04
  843.00      2.71670E-04
  845.00      2.70670E-04
  847.00      2.69820E-04
  849.00      2.69060E-04
  851.00      2.68160E-04
  853.00      2.67530E-04
  855.00      2.66450E-04
  857.00      2.66200E-04
  859.00      2.64880E-04
  861.00      2.64210E-04
  863.00      2.64390E-04
  865.00      2.63260E-04
  867.00      2.60850E-04
  869.00      2.62570E-04
  871.00      2.62430E-04
  873.00      2.61250E-04
  875.00      2.56350E-04
  877.00      2.59330E-04
  879.00      2.60350E-04
  881.00      2.59930E-04
  883.00      2.59110E-04
  885.00      2.54830E-04
  887.00      2.49030E-04
  889.00      2.55310E-04
  891.00      2.55460E-04
  893.00      2.54440E-04
  895.00      2.53940E-04
  897.00      2.52660E-04
  899.00      2.50230E-04
  901.00      2.40920E-04
  903.00      2.44040E-04
  905.00      2.47840E-04
  907.00      2.47410E-04
  909.00      2.46710E-04
  911.00      2.45240E-04
  913.00      2.44840E-04
  915.00      2.43860E-04
  917.00      2.42780E-04
  919.00      2.41330E-04
  921.00      2.37950E-04
  923.00      2.27020E-04
  925.00      2.35550E-04
  927.00      2.37320E-04
  929.00      2.37010E-04
  931.00      2.36000E-04
  933.00      2.34880E-04
  935.00      2.29460E-04
  937.00      2.32130E-04
  939.00      2.32260E-04
  941.00      2.31370E-04
  943.00      2.30460E-04
  945.00      2.29550E-04
  947.00      2.28520E-04
  949.00      2.27730E-04
  951.00      2.25940E-04
  953.00      2.22300E-04
  955.00      2.11890E-04
  957.00      2.21740E-04
  959.00      2.22870E-04
  961.00      2.22380E-04
  963.00      2.21450E-04
  965.00      2.20700E-04
  967.00      2.19840E-04
  969.00      2.18980E-04
  971.00      2.17920E-04
  973.00      2.17280E-04
  975.00      2.16190E-04
  977.00      2.14230E-04
  979.00      2.14790E-04
  981.00      2.13970E-04
  983.00      2.13140E-04
  985.00      2.12340E-04
  987.00      2.11530E-04
  989.00      2.10730E-04
  991.00      2.09920E-04
  993.00      2.09130E-04
  995.00      2.08340E-04
  997.00      2.07550E-04
  999.00      2.06770E-04
  1002.5      2.02320E-04
  1007.5      1.98890E-04
  1012.5      1.98510E-04
  1017.5      1.99740E-04
  1022.5      1.97900E-04
  1027.5      1.96070E-04
  1032.5      1.94150E-04
  1037.5      1.92530E-04
  1042.5      1.89850E-04
  1047.5      1.89080E-04
  1052.5      1.87380E-04
  1057.5      1.85710E-04
  1062.5      1.84060E-04
  1067.5      1.82410E-04
  1072.5      1.80830E-04
  1077.5      1.79240E-04
  1082.5      1.77230E-04
  1087.5      1.76060E-04
  1092.5      1.68910E-04
  1097.5      1.71840E-04
  1102.5      1.71550E-04
  1107.5      1.70150E-04
  1112.5      1.68710E-04
  1117.5      1.67370E-04
  1122.5      1.65950E-04
  1127.5      1.64560E-04
  1132.5      1.63180E-04
  1137.5      1.61820E-04
  1142.5      1.60480E-04
  1147.5      1.59160E-04
  1152.5      1.57850E-04
  1157.5      1.56550E-04
  1162.5      1.53790E-04
  1167.5      1.52970E-04
  1172.5      1.52760E-04
  1177.5      1.51530E-04
  1182.5      1.50310E-04
  1187.5      1.49110E-04
  1192.5      1.47920E-04
  1197.5      1.46550E-04
  1202.5      1.45590E-04
  1207.5      1.44440E-04
  1212.5      1.43300E-04
  1217.5      1.42180E-04
  1222.5      1.41080E-04
  1227.5      1.39980E-04
  1232.5      1.38900E-04
  1237.5      1.37830E-04
  1242.5      1.36770E-04
  1247.5      1.35730E-04
  1252.5      1.34670E-04
  1257.5      1.33670E-04
  1262.5      1.32660E-04
  1267.5      1.31660E-04
  1272.5      1.30670E-04
  1277.5      1.29100E-04
  1282.5      1.24110E-04
  1287.5      1.27580E-04
  1292.5      1.26830E-04
  1297.5      1.25820E-04
  1302.5      1.24970E-04
  1307.5      1.24060E-04
  1312.5      1.23150E-04
  1317.5      1.22260E-04
  1322.5      1.21370E-04
  1327.5      1.20500E-04
  1332.5      1.19630E-04
  1337.5      1.18780E-04
  1342.5      1.17920E-04
  1347.5      1.17090E-04
  1352.5      1.16260E-04
  1357.5      1.15440E-04
  1362.5      1.14630E-04
  1367.5      1.13830E-04
  1372.5      1.13030E-04
  1377.5      1.12240E-04
  1382.5      1.11460E-04
  1387.5      1.10690E-04
  1392.5      1.09930E-04
  1397.5      1.09180E-04
