 Castelli and Kurucz 2004-2012 Atmosphere
 T     49000.     G    5.00000 [-1.0a] N(He)/Ntot=0.0784 VTURB=2.0  L/H=1.25 OD
 Wavelength  Eddington Hnu
   (nm)    (ergs/s/cm2/Hz/sr)
  9.0900      1.94250E-18
  9.3500      5.15150E-18
  9.6100      1.27700E-17
  9.7700      2.22250E-17
  9.9600      4.13170E-17
  10.200      8.74630E-17
  10.380      1.50120E-16
  10.560      2.52900E-16
  10.770      4.54530E-16
  11.040      9.34420E-16
  11.400      2.31570E-15
  11.780      5.67940E-15
  12.130      1.24050E-14
  12.480      2.58530E-14
  12.710      4.10390E-14
  12.840      5.34520E-14
  13.050      7.95850E-14
  13.240      1.12950E-13
  13.390      1.48100E-13
  13.660      2.36390E-13
  13.980      4.06160E-13
  14.330      7.08920E-13
  14.720      1.24930E-12
  15.100      2.22280E-12
  15.520      3.96860E-12
  15.880      6.39470E-12
  16.200      9.94710E-12
  16.600      1.62810E-11
  17.030      2.63550E-11
  17.340      3.70770E-11
  17.680      5.40460E-11
  18.020      7.72130E-11
  18.170      8.81420E-11
  18.610      1.38450E-10
  19.100      2.17080E-10
  19.390      2.86650E-10
  19.840      4.23100E-10
  20.180      5.62100E-10
  20.500      7.33160E-10
  21.050      1.12850E-09
  21.620      1.72010E-09
  21.980      2.24530E-09
  22.300      2.79370E-09
  22.680      3.56680E-09
  23.000      3.01030E-07
  23.400      2.71480E-06
  24.000      1.42540E-05
  24.650      6.60730E-05
  25.240      1.82210E-04
  25.680      2.10400E-04
  26.000      2.80690E-04
  26.400      4.96880E-04
  26.850      5.66920E-04
  27.350      6.66890E-04
  27.850      5.94920E-04
  28.400      8.32970E-04
  29.000      9.89770E-04
  29.600      8.84700E-04
  30.100      4.68180E-04
  30.800      5.91840E-04
  31.800      3.79120E-04
  32.800      4.54790E-04
  33.800      3.32260E-04
  34.800      3.43460E-04
  35.700      6.79410E-04
  36.600      1.02080E-03
  37.500      1.20840E-03
  38.500      1.17210E-03
  39.500      1.52310E-03
  40.500      1.87720E-03
  41.400      1.92430E-03
  42.200      1.87950E-03
  43.000      1.85290E-03
  44.100      2.11330E-03
  45.100      2.22240E-03
  46.000      2.09250E-03
  47.000      2.21530E-03
  48.000      2.37100E-03
  49.000      2.20820E-03
  50.000      2.56110E-03
  50.600      2.34570E-03
  51.200      2.70340E-03
  52.000      2.66020E-03
  53.000      2.64800E-03
  54.000      2.44110E-03
  55.000      2.22600E-03
  56.000      2.68410E-03
  57.000      2.87060E-03
  58.000      2.88860E-03
  59.000      2.95780E-03
  60.000      2.83590E-03
  61.000      2.62160E-03
  62.000      2.97340E-03
  63.000      2.87690E-03
  64.000      3.09270E-03
  65.000      3.00810E-03
  65.800      2.86430E-03
  66.500      3.11110E-03
  67.500      3.16810E-03
  68.500      3.02660E-03
  69.500      3.21520E-03
  70.500      3.02240E-03
  71.600      3.24340E-03
  72.600      3.30710E-03
  73.500      3.31920E-03
  74.500      3.28390E-03
  75.500      3.24920E-03
  76.500      3.16930E-03
  77.500      3.29370E-03
  78.500      3.17260E-03
  79.500      3.28780E-03
  80.500      3.33340E-03
  81.500      3.35750E-03
  82.500      3.38460E-03
  83.500      3.22050E-03
  84.500      3.38310E-03
  85.500      3.31990E-03
  86.500      3.40930E-03
  87.500      3.43430E-03
  88.500      3.40430E-03
  89.500      3.41810E-03
  90.500      3.37840E-03
  91.500      2.57820E-03
  92.500      3.99530E-03
  93.500      4.98200E-03
  94.500      5.93040E-03
  95.500      6.67940E-03
  96.500      7.44310E-03
  97.500      5.97550E-03
  98.500      7.18800E-03
  99.500      6.68640E-03
  100.50      7.06530E-03
  101.50      7.07590E-03
  102.50      5.98610E-03
  103.50      7.14130E-03
  104.50      7.24870E-03
  105.50      7.20970E-03
  106.50      6.90620E-03
  107.50      7.06210E-03
  108.50      6.60360E-03
  109.50      6.98340E-03
  110.50      6.87170E-03
  111.50      6.81810E-03
  112.50      6.67160E-03
  113.50      6.77710E-03
  114.50      6.74050E-03
  115.50      6.60380E-03
  116.50      6.44560E-03
  117.50      6.15650E-03
  118.50      6.40760E-03
  119.50      6.29080E-03
  120.50      6.25670E-03
  121.50      5.19030E-03
  122.50      6.15700E-03
  123.50      6.02050E-03
  124.50      5.95870E-03
  125.50      6.05470E-03
  126.50      6.00680E-03
  127.50      5.96740E-03
  128.50      5.92430E-03
  129.50      5.88680E-03
  130.50      5.79260E-03
  131.50      5.75820E-03
  132.50      5.68870E-03
  133.50      5.66790E-03
  134.50      5.61940E-03
  135.50      5.51870E-03
  136.50      5.39630E-03
  137.50      5.27050E-03
  138.50      5.33410E-03
  139.50      5.23930E-03
  140.50      5.10550E-03
  141.50      5.27370E-03
  142.50      5.18100E-03
  143.50      5.20290E-03
  144.20      5.09280E-03
  144.70      5.08830E-03
  145.50      5.03560E-03
  146.50      5.00910E-03
  147.50      5.00030E-03
  148.50      5.01710E-03
  149.50      4.95990E-03
  150.50      4.93400E-03
  151.20      4.92450E-03
  151.70      4.86560E-03
  152.50      4.86460E-03
  153.50      4.75640E-03
  154.50      4.50590E-03
  155.50      4.50650E-03
  156.50      4.63050E-03
  157.50      4.63520E-03
  158.50      4.56920E-03
  159.50      4.55240E-03
  160.50      4.47820E-03
  161.50      4.44320E-03
  162.50      4.39430E-03
  163.50      4.32490E-03
  164.50      4.14690E-03
  165.50      4.35780E-03
  166.50      4.33310E-03
  167.20      4.26200E-03
  167.70      4.31240E-03
  168.50      4.29040E-03
  169.50      4.26570E-03
  170.50      4.21820E-03
  171.50      4.11910E-03
  172.50      4.10790E-03
  173.50      4.14170E-03
  174.50      4.10290E-03
  175.50      4.06850E-03
  176.50      4.03980E-03
  177.50      4.01530E-03
  178.50      3.99440E-03
  179.50      3.95550E-03
  180.50      3.92750E-03
  181.50      3.89950E-03
  182.50      3.87080E-03
  183.50      3.84400E-03
  184.50      3.81680E-03
  185.50      3.78470E-03
  186.50      3.76040E-03
  187.50      3.72790E-03
  188.50      3.69940E-03
  189.50      3.68360E-03
  190.50      3.65690E-03
  191.50      3.62790E-03
  192.50      3.57490E-03
  193.50      3.57920E-03
  194.50      3.55530E-03
  195.50      3.52570E-03
  196.70      3.49800E-03
  197.60      3.46960E-03
  198.40      3.45710E-03
  199.50      3.42750E-03
  200.50      3.40700E-03
  201.50      3.38330E-03
  202.50      3.35990E-03
  203.50      3.33480E-03
  204.50      3.30350E-03
  205.50      2.54990E-03
  206.50      2.46240E-03
  207.40      2.50140E-03
  207.80      2.55000E-03
  208.50      2.68400E-03
  209.50      2.97160E-03
  210.50      3.14770E-03
  211.50      3.16070E-03
  212.50      3.13430E-03
  213.50      3.11330E-03
  214.50      3.09620E-03
  215.50      3.12020E-03
  216.50      3.00160E-03
  217.50      3.10410E-03
  218.50      2.97690E-03
  219.50      3.06690E-03
  220.50      3.05200E-03
  221.50      2.91010E-03
  222.50      3.01290E-03
  223.50      2.99700E-03
  224.50      2.97210E-03
  225.50      2.84080E-03
  226.50      2.93560E-03
  227.50      2.92040E-03
  228.50      2.89320E-03
  229.50      2.86060E-03
  230.50      2.75310E-03
  231.50      2.83300E-03
  232.50      2.82510E-03
  233.50      2.80790E-03
  234.50      2.78810E-03
  235.50      2.76910E-03
  236.50      2.75130E-03
  237.50      2.73010E-03
  238.50      2.60590E-03
  239.50      2.68390E-03
  240.50      2.67510E-03
  241.50      2.65520E-03
  242.50      2.64930E-03
  243.50      2.62980E-03
  244.50      2.61420E-03
  245.50      2.58780E-03
  246.50      2.58120E-03
  247.50      2.56800E-03
  248.50      2.55000E-03
  249.50      2.46000E-03
  250.50      2.50450E-03
  251.30      2.32320E-03
  251.80      2.46920E-03
  252.50      2.47550E-03
  253.50      2.47340E-03
  254.50      2.45880E-03
  255.50      2.44340E-03
  256.50      2.42970E-03
  257.50      2.41440E-03
  258.50      2.39930E-03
  259.50      2.37050E-03
  260.50      2.37170E-03
  261.50      2.34950E-03
  262.50      2.34390E-03
  263.50      2.33030E-03
  264.50      2.31460E-03
  265.50      2.30290E-03
  266.50      2.28850E-03
  267.50      2.26690E-03
  268.50      2.26000E-03
  269.50      2.24660E-03
  270.50      2.23680E-03
  271.50      2.22340E-03
  272.50      2.20830E-03
  273.50      2.12370E-03
  274.50      2.18520E-03
  275.50      2.17180E-03
  276.50      2.15990E-03
  277.50      2.14660E-03
  278.50      2.13190E-03
  279.50      2.11930E-03
  280.50      2.11030E-03
  281.50      2.09880E-03
  282.50      2.08480E-03
  283.50      2.07540E-03
  284.50      2.06460E-03
  285.50      2.05310E-03
  286.50      2.04140E-03
  287.50      2.03000E-03
  288.50      2.01900E-03
  289.50      2.00700E-03
  291.00      1.99070E-03
  293.00      1.96960E-03
  295.00      1.94790E-03
  297.00      1.92550E-03
  299.00      1.90170E-03
  301.00      1.88310E-03
  303.00      1.85890E-03
  305.00      1.84140E-03
  307.00      1.81990E-03
  309.00      1.80590E-03
  311.00      1.78690E-03
  313.00      1.76710E-03
  315.00      1.75110E-03
  317.00      1.73230E-03
  319.00      1.71430E-03
  321.00      1.66800E-03
  323.00      1.68150E-03
  325.00      1.66480E-03
  327.00      1.64110E-03
  329.00      1.63050E-03
  331.00      1.61410E-03
  333.00      1.59820E-03
  335.00      1.57930E-03
  337.00      1.56700E-03
  339.00      1.55050E-03
  341.00      1.53450E-03
  343.00      1.52270E-03
  345.00      1.50550E-03
  347.00      1.49370E-03
  349.00      1.47970E-03
  351.00      1.46620E-03
  353.00      1.45170E-03
  355.00      1.43810E-03
  357.00      1.42500E-03
  359.00      1.41160E-03
  361.00      1.39870E-03
  363.00      1.38500E-03
  364.00      1.35130E-03
  365.00      1.23290E-03
  367.00      1.22330E-03
  369.00      1.21510E-03
  371.00      1.21230E-03
  373.00      1.21890E-03
  375.00      1.23210E-03
  377.00      1.24510E-03
  379.00      1.26550E-03
  381.00      1.28490E-03
  383.00      1.23540E-03
  385.00      1.27890E-03
  387.00      1.28430E-03
  389.00      1.18750E-03
  391.00      1.26700E-03
  393.00      1.25200E-03
  395.00      1.24720E-03
  397.00      1.14240E-03
  399.00      1.22480E-03
  401.00      1.22090E-03
  403.00      1.19010E-03
  405.00      1.20390E-03
  407.00      1.19150E-03
  409.00      1.15090E-03
  411.00      1.09330E-03
  413.00      1.16000E-03
  415.00      1.15360E-03
  417.00      1.14470E-03
  419.00      1.12810E-03
  421.00      1.10710E-03
  423.00      1.11670E-03
  425.00      1.10740E-03
  427.00      1.09840E-03
  429.00      1.08940E-03
  431.00      1.07850E-03
  433.00      1.03630E-03
  435.00      1.00010E-03
  437.00      1.05160E-03
  439.00      1.04420E-03
  441.00      1.03720E-03
  443.00      1.02930E-03
  445.00      1.02090E-03
  447.00      1.00840E-03
  449.00      1.00510E-03
  451.00      9.97120E-04
  453.00      9.87020E-04
  455.00      9.62090E-04
  457.00      9.74290E-04
  459.00      9.66950E-04
  461.00      9.59360E-04
  463.00      9.50610E-04
  465.00      9.40860E-04
  467.00      9.36220E-04
  469.00      8.98170E-04
  471.00      9.22810E-04
  473.00      9.16850E-04
  475.00      9.09990E-04
  477.00      9.03190E-04
  479.00      8.96310E-04
  481.00      8.89780E-04
  483.00      8.81760E-04
  485.00      8.54900E-04
  487.00      8.14760E-04
  489.00      8.61370E-04
  491.00      8.57610E-04
  493.00      8.49930E-04
  495.00      8.45390E-04
  497.00      8.39340E-04
  499.00      8.33360E-04
  501.00      8.26510E-04
  503.00      8.21460E-04
  505.00      8.15500E-04
  507.00      8.09930E-04
  509.00      8.04260E-04
  511.00      7.98630E-04
  513.00      7.93030E-04
  515.00      7.87510E-04
  517.00      7.82060E-04
  519.00      7.76650E-04
  521.00      7.71290E-04
  523.00      7.66010E-04
  525.00      7.60710E-04
  527.00      7.55320E-04
  529.00      7.50450E-04
  531.00      7.45370E-04
  533.00      7.40330E-04
  535.00      7.35360E-04
  537.00      7.30420E-04
  539.00      7.25530E-04
  541.00      7.05370E-04
  543.00      7.15590E-04
  545.00      7.11190E-04
  547.00      7.06490E-04
  549.00      7.01860E-04
  551.00      6.97100E-04
  553.00      6.92700E-04
  555.00      6.88200E-04
  557.00      6.83680E-04
  559.00      6.78600E-04
  561.00      6.74930E-04
  563.00      6.70590E-04
  565.00      6.66290E-04
  567.00      6.62030E-04
  569.00      6.49530E-04
  571.00      6.10800E-04
  573.00      6.07210E-04
  575.00      6.03660E-04
  577.00      6.00210E-04
  579.00      5.96940E-04
  581.00      5.93110E-04
  583.00      5.91580E-04
  585.00      5.89760E-04
  587.00      5.86300E-04
  589.00      5.87420E-04
  591.00      5.86920E-04
  593.00      5.86770E-04
  595.00      5.87110E-04
  597.00      5.87700E-04
  599.00      5.89060E-04
  601.00      5.88560E-04
  603.00      5.88460E-04
  605.00      5.87610E-04
  607.00      5.84070E-04
  609.00      5.81210E-04
  611.00      5.78130E-04
  613.00      5.74930E-04
  615.00      5.72380E-04
  617.00      5.67090E-04
  619.00      5.65330E-04
  621.00      5.62330E-04
  623.00      5.56770E-04
  625.00      5.55050E-04
  627.00      5.52510E-04
  629.00      5.49250E-04
  631.00      5.43040E-04
  633.00      5.42450E-04
  635.00      5.39820E-04
  637.00      5.36710E-04
  639.00      5.33110E-04
  641.00      5.26580E-04
  643.00      5.27450E-04
  645.00      5.24540E-04
  647.00      5.21560E-04
  649.00      5.18620E-04
  651.00      5.14980E-04
  653.00      5.06970E-04
  655.00      5.02220E-04
  657.00      4.74040E-04
  659.00      5.02710E-04
  661.00      5.01420E-04
  663.00      4.98650E-04
  665.00      4.95890E-04
  667.00      4.91230E-04
  669.00      4.83680E-04
  671.00      4.87520E-04
  673.00      4.85080E-04
  675.00      4.82420E-04
  677.00      4.79810E-04
  679.00      4.77210E-04
  681.00      4.74620E-04
  683.00      4.72060E-04
  685.00      4.69520E-04
  687.00      4.66950E-04
  689.00      4.57420E-04
  691.00      4.61490E-04
  693.00      4.59550E-04
  695.00      4.57110E-04
  697.00      4.54690E-04
  699.00      4.52280E-04
  701.00      4.49870E-04
  703.00      4.47480E-04
  705.00      4.45130E-04
  707.00      4.41980E-04
  709.00      4.40550E-04
  711.00      4.38240E-04
  713.00      4.35950E-04
  715.00      4.33710E-04
  717.00      4.26620E-04
  719.00      4.26130E-04
  721.00      4.27040E-04
  723.00      4.24860E-04
  725.00      4.22690E-04
  727.00      4.20530E-04
  729.00      4.18180E-04
  731.00      4.16220E-04
  733.00      4.14160E-04
  735.00      4.12070E-04
  737.00      4.09970E-04
  739.00      4.07930E-04
  741.00      4.05870E-04
  743.00      4.03860E-04
  745.00      4.01770E-04
  747.00      3.99850E-04
  749.00      3.97830E-04
  751.00      3.95870E-04
  753.00      3.93940E-04
  755.00      3.92000E-04
  757.00      3.90070E-04
  759.00      3.81080E-04
  761.00      3.85590E-04
  763.00      3.84380E-04
  765.00      3.82510E-04
  767.00      3.80660E-04
  769.00      3.78730E-04
  771.00      3.76960E-04
  773.00      3.75050E-04
  775.00      3.73370E-04
  777.00      3.71580E-04
  779.00      3.69800E-04
  781.00      3.68040E-04
  783.00      3.66280E-04
  785.00      3.64480E-04
  787.00      3.62790E-04
  789.00      3.61090E-04
  791.00      3.59410E-04
  793.00      3.57720E-04
  795.00      3.56040E-04
  797.00      3.54310E-04
  799.00      3.52710E-04
  801.00      3.51070E-04
  803.00      3.49430E-04
  805.00      3.47820E-04
  807.00      3.46210E-04
  809.00      3.44610E-04
  811.00      3.43020E-04
  813.00      3.41440E-04
  815.00      3.39870E-04
  817.00      3.38250E-04
  819.00      3.35310E-04
  821.00      3.21330E-04
  823.00      3.17870E-04
  825.00      3.18030E-04
  827.00      3.17180E-04
  829.00      3.15840E-04
  831.00      3.14490E-04
  833.00      3.13100E-04
  835.00      3.11810E-04
  837.00      3.10520E-04
  839.00      3.09260E-04
  841.00      3.08050E-04
  843.00      3.06860E-04
  845.00      3.05660E-04
  847.00      3.04600E-04
  849.00      3.03640E-04
  851.00      3.02610E-04
  853.00      3.01710E-04
  855.00      3.00610E-04
  857.00      2.99950E-04
  859.00      2.98820E-04
  861.00      2.98000E-04
  863.00      2.97660E-04
  865.00      2.96590E-04
  867.00      2.94860E-04
  869.00      2.95420E-04
  871.00      2.95030E-04
  873.00      2.93910E-04
  875.00      2.90600E-04
  877.00      2.92050E-04
  879.00      2.92640E-04
  881.00      2.92310E-04
  883.00      2.91460E-04
  885.00      2.87710E-04
  887.00      2.83350E-04
  889.00      2.87680E-04
  891.00      2.88050E-04
  893.00      2.87370E-04
  895.00      2.86480E-04
  897.00      2.85030E-04
  899.00      2.82290E-04
  901.00      2.73870E-04
  903.00      2.75930E-04
  905.00      2.79550E-04
  907.00      2.79280E-04
  909.00      2.78610E-04
  911.00      2.77110E-04
  913.00      2.76570E-04
  915.00      2.75530E-04
  917.00      2.74130E-04
  919.00      2.72150E-04
  921.00      2.68260E-04
  923.00      2.57680E-04
  925.00      2.65350E-04
  927.00      2.67590E-04
  929.00      2.67420E-04
  931.00      2.66580E-04
  933.00      2.64930E-04
  935.00      2.57990E-04
  937.00      2.62190E-04
  939.00      2.62180E-04
  941.00      2.61270E-04
  943.00      2.60240E-04
  945.00      2.59190E-04
  947.00      2.58100E-04
  949.00      2.56840E-04
  951.00      2.54790E-04
  953.00      2.50260E-04
  955.00      2.39580E-04
  957.00      2.49450E-04
  959.00      2.51110E-04
  961.00      2.50970E-04
  963.00      2.50030E-04
  965.00      2.49100E-04
  967.00      2.48120E-04
  969.00      2.47150E-04
  971.00      2.46070E-04
  973.00      2.45220E-04
  975.00      2.43820E-04
  977.00      2.41870E-04
  979.00      2.42370E-04
  981.00      2.41440E-04
  983.00      2.40490E-04
  985.00      2.39580E-04
  987.00      2.38660E-04
  989.00      2.37740E-04
  991.00      2.36830E-04
  993.00      2.35920E-04
  995.00      2.35020E-04
  997.00      2.34120E-04
  999.00      2.33140E-04
  1002.5      2.27670E-04
  1007.5      2.23820E-04
  1012.5      2.23440E-04
  1017.5      2.25230E-04
  1022.5      2.23140E-04
  1027.5      2.21060E-04
  1032.5      2.18950E-04
  1037.5      2.17030E-04
  1042.5      2.13840E-04
  1047.5      2.13100E-04
  1052.5      2.11170E-04
  1057.5      2.09270E-04
  1062.5      2.07400E-04
  1067.5      2.05550E-04
  1072.5      2.03720E-04
  1077.5      2.01920E-04
  1082.5      1.99860E-04
  1087.5      1.98170E-04
  1092.5      1.89790E-04
  1097.5      1.93020E-04
  1102.5      1.93240E-04
  1107.5      1.91590E-04
  1112.5      1.89950E-04
  1117.5      1.88440E-04
  1122.5      1.86830E-04
  1127.5      1.85250E-04
  1132.5      1.83680E-04
  1137.5      1.82140E-04
  1142.5      1.80620E-04
  1147.5      1.79110E-04
  1152.5      1.77630E-04
  1157.5      1.76160E-04
  1162.5      1.72610E-04
  1167.5      1.71720E-04
  1172.5      1.71850E-04
  1177.5      1.70460E-04
  1182.5      1.69070E-04
  1187.5      1.67710E-04
  1192.5      1.66360E-04
  1197.5      1.64940E-04
  1202.5      1.63720E-04
  1207.5      1.62410E-04
  1212.5      1.61120E-04
  1217.5      1.59860E-04
  1222.5      1.58600E-04
  1227.5      1.57360E-04
  1232.5      1.56140E-04
  1237.5      1.54920E-04
  1242.5      1.53730E-04
  1247.5      1.52540E-04
  1252.5      1.51360E-04
  1257.5      1.50210E-04
  1262.5      1.49070E-04
  1267.5      1.47940E-04
  1272.5      1.46820E-04
  1277.5      1.44980E-04
  1282.5      1.38890E-04
  1287.5      1.43170E-04
  1292.5      1.42470E-04
  1297.5      1.41400E-04
  1302.5      1.40370E-04
  1307.5      1.39340E-04
  1312.5      1.38310E-04
  1317.5      1.37300E-04
  1322.5      1.36300E-04
  1327.5      1.35310E-04
  1332.5      1.34330E-04
  1337.5      1.33370E-04
  1342.5      1.32410E-04
  1347.5      1.31460E-04
  1352.5      1.30520E-04
  1357.5      1.29600E-04
  1362.5      1.28680E-04
  1367.5      1.27770E-04
  1372.5      1.26870E-04
  1377.5      1.25980E-04
  1382.5      1.25100E-04
  1387.5      1.24230E-04
  1392.5      1.23370E-04
  1397.5      1.22520E-04
