 Castelli and Kurucz 2004-2012 Atmosphere
 T     40000.     G    5.00000 [-1.0a] N(He)/Ntot=0.0784 VTURB=2.0  L/H=1.25 OD
 Wavelength  Eddington Hnu
   (nm)    (ergs/s/cm2/Hz/sr)
  9.0900      2.70180E-24
  9.3500      9.66700E-24
  9.6100      3.24390E-23
  9.7700      6.67040E-23
  9.9600      1.52430E-22
  10.200      4.16520E-22
  10.380      8.62720E-22
  10.560      1.74840E-21
  10.770      3.88220E-21
  11.040      1.04100E-20
  11.400      3.63850E-20
  11.780      1.26870E-19
  12.130      3.76660E-19
  12.480      1.05760E-18
  12.710      2.02690E-18
  12.840      2.89980E-18
  13.050      5.10030E-18
  13.240      8.38080E-18
  13.390      1.22960E-17
  13.660      2.40320E-17
  13.980      5.16560E-17
  14.330      1.14840E-16
  14.720      2.67030E-16
  15.100      5.89880E-16
  15.520      1.34980E-15
  15.880      2.65580E-15
  16.200      4.73110E-15
  16.600      9.47680E-15
  17.030      1.92680E-14
  17.340      3.15010E-14
  17.680      5.30570E-14
  18.020      8.75970E-14
  18.170      1.08460E-13
  18.610      2.00900E-13
  19.100      3.85660E-13
  19.390      5.59180E-13
  19.840      9.74640E-13
  20.180      1.45930E-12
  20.500      2.11020E-12
  21.050      3.88010E-12
  21.620      7.06000E-12
  21.980      1.01750E-11
  22.300      1.39270E-11
  22.680      1.99310E-11
  23.000      6.06110E-09
  23.400      2.93790E-08
  24.000      6.85700E-08
  24.650      1.85450E-07
  25.240      6.96580E-07
  25.680      7.37480E-07
  26.000      1.93750E-06
  26.400      6.92530E-06
  26.850      1.21270E-05
  27.350      1.56850E-05
  27.850      1.22570E-05
  28.400      2.66310E-05
  29.000      3.30550E-05
  29.600      2.25470E-05
  30.100      6.24680E-06
  30.800      2.22020E-05
  31.800      2.53790E-05
  32.800      3.53790E-05
  33.800      3.30720E-05
  34.800      3.88670E-05
  35.700      6.97120E-05
  36.600      1.05300E-04
  37.500      1.22040E-04
  38.500      1.27580E-04
  39.500      1.60820E-04
  40.500      1.89020E-04
  41.400      1.97620E-04
  42.200      1.95290E-04
  43.000      1.92510E-04
  44.100      2.14830E-04
  45.100      2.32700E-04
  46.000      2.25140E-04
  47.000      2.35040E-04
  48.000      2.55910E-04
  49.000      2.43180E-04
  50.000      2.81990E-04
  50.600      3.37490E-04
  51.200      7.30080E-04
  52.000      7.04450E-04
  53.000      6.87970E-04
  54.000      6.49110E-04
  55.000      6.53480E-04
  56.000      8.03420E-04
  57.000      8.48820E-04
  58.000      8.35350E-04
  59.000      8.76750E-04
  60.000      8.17030E-04
  61.000      8.43320E-04
  62.000      9.66160E-04
  63.000      9.66930E-04
  64.000      1.01250E-03
  65.000      1.00310E-03
  65.800      9.46360E-04
  66.500      1.03220E-03
  67.500      1.09270E-03
  68.500      1.03720E-03
  69.500      1.11980E-03
  70.500      1.04030E-03
  71.600      1.17730E-03
  72.600      1.19870E-03
  73.500      1.22610E-03
  74.500      1.20750E-03
  75.500      1.21520E-03
  76.500      1.22030E-03
  77.500      1.25570E-03
  78.500      1.25290E-03
  79.500      1.29010E-03
  80.500      1.29850E-03
  81.500      1.32530E-03
  82.500      1.35600E-03
  83.500      1.26370E-03
  84.500      1.37420E-03
  85.500      1.37270E-03
  86.500      1.41230E-03
  87.500      1.42910E-03
  88.500      1.43720E-03
  89.500      1.44970E-03
  90.500      1.44470E-03
  91.500      1.20800E-03
  92.500      2.07700E-03
  93.500      2.83690E-03
  94.500      3.76140E-03
  95.500      4.24910E-03
  96.500      5.07930E-03
  97.500      3.60330E-03
  98.500      4.97030E-03
  99.500      4.58770E-03
  100.50      4.84040E-03
  101.50      4.92750E-03
  102.50      3.72790E-03
  103.50      4.89660E-03
  104.50      5.07570E-03
  105.50      5.04710E-03
  106.50      4.82200E-03
  107.50      4.88100E-03
  108.50      4.55460E-03
  109.50      4.88110E-03
  110.50      4.77280E-03
  111.50      4.74240E-03
  112.50      4.52870E-03
  113.50      4.70930E-03
  114.50      4.66640E-03
  115.50      4.54150E-03
  116.50      4.49430E-03
  117.50      4.05260E-03
  118.50      4.35250E-03
  119.50      4.32350E-03
  120.50      4.24050E-03
  121.50      3.27750E-03
  122.50      4.18030E-03
  123.50      4.24700E-03
  124.50      4.20240E-03
  125.50      4.23820E-03
  126.50      4.23280E-03
  127.50      4.22600E-03
  128.50      4.21250E-03
  129.50      4.12050E-03
  130.50      4.10500E-03
  131.50      4.12270E-03
  132.50      4.07160E-03
  133.50      4.04550E-03
  134.50      4.02420E-03
  135.50      3.97300E-03
  136.50      3.91340E-03
  137.50      3.86100E-03
  138.50      3.85070E-03
  139.50      3.70010E-03
  140.50      3.64170E-03
  141.50      3.78070E-03
  142.50      3.66040E-03
  143.50      3.71710E-03
  144.20      3.68200E-03
  144.70      3.66920E-03
  145.50      3.61940E-03
  146.50      3.61270E-03
  147.50      3.58510E-03
  148.50      3.60020E-03
  149.50      3.55210E-03
  150.50      3.54900E-03
  151.20      3.54580E-03
  151.70      3.51040E-03
  152.50      3.47910E-03
  153.50      3.34740E-03
  154.50      3.14460E-03
  155.50      3.16190E-03
  156.50      3.24070E-03
  157.50      3.27630E-03
  158.50      3.26850E-03
  159.50      3.25660E-03
  160.50      3.16290E-03
  161.50      3.11670E-03
  162.50      3.10330E-03
  163.50      3.06470E-03
  164.50      2.95990E-03
  165.50      3.12520E-03
  166.50      3.09450E-03
  167.20      3.02200E-03
  167.70      3.12970E-03
  168.50      3.09940E-03
  169.50      3.07950E-03
  170.50      3.04250E-03
  171.50      2.98090E-03
  172.50      2.95870E-03
  173.50      3.00950E-03
  174.50      2.98540E-03
  175.50      2.95070E-03
  176.50      2.94260E-03
  177.50      2.92780E-03
  178.50      2.92030E-03
  179.50      2.88500E-03
  180.50      2.87360E-03
  181.50      2.85470E-03
  182.50      2.83000E-03
  183.50      2.82480E-03
  184.50      2.79980E-03
  185.50      2.77690E-03
  186.50      2.75860E-03
  187.50      2.73340E-03
  188.50      2.71550E-03
  189.50      2.71340E-03
  190.50      2.70150E-03
  191.50      2.67930E-03
  192.50      2.62300E-03
  193.50      2.64830E-03
  194.50      2.63400E-03
  195.50      2.60180E-03
  196.70      2.59280E-03
  197.60      2.57920E-03
  198.40      2.56610E-03
  199.50      2.54540E-03
  200.50      2.53410E-03
  201.50      2.51760E-03
  202.50      2.50050E-03
  203.50      2.48360E-03
  204.50      2.46460E-03
  205.50      1.90230E-03
  206.50      1.83550E-03
  207.40      1.86320E-03
  207.80      1.89900E-03
  208.50      1.99750E-03
  209.50      2.20880E-03
  210.50      2.35120E-03
  211.50      2.36680E-03
  212.50      2.34260E-03
  213.50      2.33350E-03
  214.50      2.32200E-03
  215.50      2.33640E-03
  216.50      2.25370E-03
  217.50      2.32600E-03
  218.50      2.23590E-03
  219.50      2.29940E-03
  220.50      2.29000E-03
  221.50      2.18740E-03
  222.50      2.26070E-03
  223.50      2.25010E-03
  224.50      2.23090E-03
  225.50      2.13560E-03
  226.50      2.20670E-03
  227.50      2.19510E-03
  228.50      2.17230E-03
  229.50      2.13320E-03
  230.50      2.07200E-03
  231.50      2.13190E-03
  232.50      2.12620E-03
  233.50      2.11420E-03
  234.50      2.10030E-03
  235.50      2.08670E-03
  236.50      2.07390E-03
  237.50      2.05740E-03
  238.50      1.96330E-03
  239.50      2.02060E-03
  240.50      2.02200E-03
  241.50      2.00770E-03
  242.50      2.00030E-03
  243.50      1.98610E-03
  244.50      1.97520E-03
  245.50      1.95850E-03
  246.50      1.95230E-03
  247.50      1.94170E-03
  248.50      1.92830E-03
  249.50      1.79700E-03
  250.50      1.89210E-03
  251.30      1.76100E-03
  251.80      1.85950E-03
  252.50      1.88060E-03
  253.50      1.87380E-03
  254.50      1.86240E-03
  255.50      1.85060E-03
  256.50      1.84070E-03
  257.50      1.83080E-03
  258.50      1.82050E-03
  259.50      1.80290E-03
  260.50      1.80070E-03
  261.50      1.78760E-03
  262.50      1.78050E-03
  263.50      1.77080E-03
  264.50      1.75980E-03
  265.50      1.75070E-03
  266.50      1.73920E-03
  267.50      1.72370E-03
  268.50      1.71940E-03
  269.50      1.70840E-03
  270.50      1.70280E-03
  271.50      1.69230E-03
  272.50      1.67900E-03
  273.50      1.62050E-03
  274.50      1.66500E-03
  275.50      1.65550E-03
  276.50      1.64320E-03
  277.50      1.63770E-03
  278.50      1.62740E-03
  279.50      1.61220E-03
  280.50      1.60960E-03
  281.50      1.60200E-03
  282.50      1.58960E-03
  283.50      1.58280E-03
  284.50      1.57740E-03
  285.50      1.56860E-03
  286.50      1.55960E-03
  287.50      1.55160E-03
  288.50      1.54360E-03
  289.50      1.53470E-03
  291.00      1.52190E-03
  293.00      1.50710E-03
  295.00      1.48810E-03
  297.00      1.47420E-03
  299.00      1.45610E-03
  301.00      1.44210E-03
  303.00      1.42370E-03
  305.00      1.41150E-03
  307.00      1.39950E-03
  309.00      1.38500E-03
  311.00      1.37160E-03
  313.00      1.35730E-03
  315.00      1.34510E-03
  317.00      1.33140E-03
  319.00      1.31540E-03
  321.00      1.28590E-03
  323.00      1.29420E-03
  325.00      1.28200E-03
  327.00      1.26380E-03
  329.00      1.25610E-03
  331.00      1.24410E-03
  333.00      1.23220E-03
  335.00      1.21790E-03
  337.00      1.20920E-03
  339.00      1.19830E-03
  341.00      1.18690E-03
  343.00      1.17560E-03
  345.00      1.16160E-03
  347.00      1.15390E-03
  349.00      1.14440E-03
  351.00      1.13430E-03
  353.00      1.12350E-03
  355.00      1.11260E-03
  357.00      1.10470E-03
  359.00      1.09210E-03
  361.00      1.08350E-03
  363.00      1.07200E-03
  364.00      1.05380E-03
  365.00      9.78110E-04
  367.00      9.71170E-04
  369.00      9.64340E-04
  371.00      9.57190E-04
  373.00      9.60060E-04
  375.00      9.65450E-04
  377.00      9.66300E-04
  379.00      9.84620E-04
  381.00      1.00610E-03
  383.00      9.48960E-04
  385.00      1.01060E-03
  387.00      1.01720E-03
  389.00      9.14390E-04
  391.00      1.00880E-03
  393.00      1.00020E-03
  395.00      9.91680E-04
  397.00      8.79500E-04
  399.00      9.75090E-04
  401.00      9.73070E-04
  403.00      9.42940E-04
  405.00      9.63190E-04
  407.00      9.50070E-04
  409.00      9.07270E-04
  411.00      8.50000E-04
  413.00      9.24480E-04
  415.00      9.20560E-04
  417.00      9.16800E-04
  419.00      9.04100E-04
  421.00      8.89200E-04
  423.00      8.95270E-04
  425.00      8.87410E-04
  427.00      8.79990E-04
  429.00      8.72880E-04
  431.00      8.62310E-04
  433.00      8.18480E-04
  435.00      7.81860E-04
  437.00      8.41710E-04
  439.00      8.30920E-04
  441.00      8.31600E-04
  443.00      8.25670E-04
  445.00      8.19600E-04
  447.00      7.99060E-04
  449.00      8.06840E-04
  451.00      8.00390E-04
  453.00      7.92990E-04
  455.00      7.74300E-04
  457.00      7.82880E-04
  459.00      7.76520E-04
  461.00      7.70630E-04
  463.00      7.63050E-04
  465.00      7.51310E-04
  467.00      7.52260E-04
  469.00      7.23800E-04
  471.00      7.38430E-04
  473.00      7.37660E-04
  475.00      7.32170E-04
  477.00      7.26810E-04
  479.00      7.21530E-04
  481.00      7.16080E-04
  483.00      7.08280E-04
  485.00      6.79150E-04
  487.00      6.39740E-04
  489.00      6.91660E-04
  491.00      6.89990E-04
  493.00      6.78740E-04
  495.00      6.80580E-04
  497.00      6.76190E-04
  499.00      6.71430E-04
  501.00      6.63270E-04
  503.00      6.61770E-04
  505.00      6.56310E-04
  507.00      6.52830E-04
  509.00      6.48310E-04
  511.00      6.43830E-04
  513.00      6.39390E-04
  515.00      6.35000E-04
  517.00      6.30590E-04
  519.00      6.26330E-04
  521.00      6.22090E-04
  523.00      6.17890E-04
  525.00      6.13600E-04
  527.00      6.09300E-04
  529.00      6.05500E-04
  531.00      6.01450E-04
  533.00      5.97440E-04
  535.00      5.93480E-04
  537.00      5.89550E-04
  539.00      5.85650E-04
  541.00      5.70760E-04
  543.00      5.77790E-04
  545.00      5.74230E-04
  547.00      5.70480E-04
  549.00      5.66780E-04
  551.00      5.62970E-04
  553.00      5.59480E-04
  555.00      5.55890E-04
  557.00      5.52300E-04
  559.00      5.48090E-04
  561.00      5.45300E-04
  563.00      5.41830E-04
  565.00      5.38400E-04
  567.00      5.35000E-04
  569.00      5.26220E-04
  571.00      5.02260E-04
  573.00      4.99350E-04
  575.00      4.96430E-04
  577.00      4.93610E-04
  579.00      4.90830E-04
  581.00      4.87890E-04
  583.00      4.85770E-04
  585.00      4.83970E-04
  587.00      4.76600E-04
  589.00      4.80870E-04
  591.00      4.80140E-04
  593.00      4.79380E-04
  595.00      4.78810E-04
  597.00      4.78410E-04
  599.00      4.78290E-04
  601.00      4.77560E-04
  603.00      4.76430E-04
  605.00      4.75580E-04
  607.00      4.73140E-04
  609.00      4.71020E-04
  611.00      4.68110E-04
  613.00      4.65570E-04
  615.00      4.62910E-04
  617.00      4.59780E-04
  619.00      4.57510E-04
  621.00      4.54850E-04
  623.00      4.51500E-04
  625.00      4.49500E-04
  627.00      4.46990E-04
  629.00      4.44420E-04
  631.00      4.40700E-04
  633.00      4.39330E-04
  635.00      4.36830E-04
  637.00      4.34350E-04
  639.00      4.31800E-04
  641.00      4.27670E-04
  643.00      4.27000E-04
  645.00      4.24600E-04
  647.00      4.22180E-04
  649.00      4.19830E-04
  651.00      4.16980E-04
  653.00      4.11620E-04
  655.00      4.03770E-04
  657.00      3.76810E-04
  659.00      4.06070E-04
  661.00      4.05920E-04
  663.00      4.03850E-04
  665.00      4.01660E-04
  667.00      3.96740E-04
  669.00      3.92330E-04
  671.00      3.94840E-04
  673.00      3.92930E-04
  675.00      3.90830E-04
  677.00      3.88780E-04
  679.00      3.86690E-04
  681.00      3.84620E-04
  683.00      3.82560E-04
  685.00      3.80520E-04
  687.00      3.78490E-04
  689.00      3.72940E-04
  691.00      3.74220E-04
  693.00      3.72520E-04
  695.00      3.70560E-04
  697.00      3.68610E-04
  699.00      3.66680E-04
  701.00      3.64720E-04
  703.00      3.62770E-04
  705.00      3.60900E-04
  707.00      3.56490E-04
  709.00      3.57250E-04
  711.00      3.55400E-04
  713.00      3.53580E-04
  715.00      3.51770E-04
  717.00      3.47470E-04
  719.00      3.46600E-04
  721.00      3.46410E-04
  723.00      3.44640E-04
  725.00      3.42900E-04
  727.00      3.41170E-04
  729.00      3.38340E-04
  731.00      3.37700E-04
  733.00      3.36050E-04
  735.00      3.34370E-04
  737.00      3.32690E-04
  739.00      3.31050E-04
  741.00      3.29390E-04
  743.00      3.27770E-04
  745.00      3.26110E-04
  747.00      3.24550E-04
  749.00      3.22860E-04
  751.00      3.21340E-04
  753.00      3.19800E-04
  755.00      3.18240E-04
  757.00      3.16690E-04
  759.00      3.11180E-04
  761.00      3.13340E-04
  763.00      3.12110E-04
  765.00      3.10590E-04
  767.00      3.09110E-04
  769.00      3.07510E-04
  771.00      3.06130E-04
  773.00      3.04510E-04
  775.00      3.03240E-04
  777.00      3.01800E-04
  779.00      3.00370E-04
  781.00      2.98920E-04
  783.00      2.97540E-04
  785.00      2.96170E-04
  787.00      2.94760E-04
  789.00      2.93400E-04
  791.00      2.92060E-04
  793.00      2.90700E-04
  795.00      2.89350E-04
  797.00      2.87950E-04
  799.00      2.86660E-04
  801.00      2.85340E-04
  803.00      2.84000E-04
  805.00      2.82720E-04
  807.00      2.81420E-04
  809.00      2.80120E-04
  811.00      2.78820E-04
  813.00      2.77580E-04
  815.00      2.76310E-04
  817.00      2.75010E-04
  819.00      2.72930E-04
  821.00      2.64910E-04
  823.00      2.62150E-04
  825.00      2.62250E-04
  827.00      2.61420E-04
  829.00      2.60490E-04
  831.00      2.59420E-04
  833.00      2.58200E-04
  835.00      2.56940E-04
  837.00      2.56020E-04
  839.00      2.55020E-04
  841.00      2.53970E-04
  843.00      2.52920E-04
  845.00      2.51610E-04
  847.00      2.50930E-04
  849.00      2.49960E-04
  851.00      2.49030E-04
  853.00      2.48120E-04
  855.00      2.47200E-04
  857.00      2.46600E-04
  859.00      2.44870E-04
  861.00      2.44560E-04
  863.00      2.44450E-04
  865.00      2.42880E-04
  867.00      2.40970E-04
  869.00      2.42160E-04
  871.00      2.41980E-04
  873.00      2.40010E-04
  875.00      2.35920E-04
  877.00      2.37790E-04
  879.00      2.39380E-04
  881.00      2.39140E-04
  883.00      2.37950E-04
  885.00      2.32830E-04
  887.00      2.28260E-04
  889.00      2.34260E-04
  891.00      2.35260E-04
  893.00      2.34780E-04
  895.00      2.34110E-04
  897.00      2.32800E-04
  899.00      2.29360E-04
  901.00      2.19710E-04
  903.00      2.22630E-04
  905.00      2.27840E-04
  907.00      2.27530E-04
  909.00      2.27550E-04
  911.00      2.26820E-04
  913.00      2.26350E-04
  915.00      2.25420E-04
  917.00      2.23800E-04
  919.00      2.22170E-04
  921.00      2.17000E-04
  923.00      2.06060E-04
  925.00      2.14900E-04
  927.00      2.18380E-04
  929.00      2.18480E-04
  931.00      2.17780E-04
  933.00      2.17010E-04
  935.00      2.12240E-04
  937.00      2.15020E-04
  939.00      2.14750E-04
  941.00      2.13870E-04
  943.00      2.13040E-04
  945.00      2.12200E-04
  947.00      2.10900E-04
  949.00      2.09890E-04
  951.00      2.07420E-04
  953.00      2.02100E-04
  955.00      1.91620E-04
  957.00      2.02400E-04
  959.00      2.05060E-04
  961.00      2.04990E-04
  963.00      2.04370E-04
  965.00      2.03980E-04
  967.00      2.03180E-04
  969.00      2.02350E-04
  971.00      2.01100E-04
  973.00      2.00790E-04
  975.00      1.99920E-04
  977.00      1.98740E-04
  979.00      1.98500E-04
  981.00      1.97740E-04
  983.00      1.96970E-04
  985.00      1.96220E-04
  987.00      1.95470E-04
  989.00      1.94720E-04
  991.00      1.93960E-04
  993.00      1.93240E-04
  995.00      1.92510E-04
  997.00      1.91780E-04
  999.00      1.90600E-04
  1002.5      1.84700E-04
  1007.5      1.81420E-04
  1012.5      1.83390E-04
  1017.5      1.84520E-04
  1022.5      1.82800E-04
  1027.5      1.81130E-04
  1032.5      1.79140E-04
  1037.5      1.77840E-04
  1042.5      1.75790E-04
  1047.5      1.74640E-04
  1052.5      1.73060E-04
  1057.5      1.71510E-04
  1062.5      1.69990E-04
  1067.5      1.68400E-04
  1072.5      1.66990E-04
  1077.5      1.65520E-04
  1082.5      1.63290E-04
  1087.5      1.62180E-04
  1092.5      1.53410E-04
  1097.5      1.57260E-04
  1102.5      1.58070E-04
  1107.5      1.57050E-04
  1112.5      1.55750E-04
  1117.5      1.54470E-04
  1122.5      1.53140E-04
  1127.5      1.51870E-04
  1132.5      1.50580E-04
  1137.5      1.49330E-04
  1142.5      1.48090E-04
  1147.5      1.46860E-04
  1152.5      1.45650E-04
  1157.5      1.44450E-04
  1162.5      1.42050E-04
  1167.5      1.41430E-04
  1172.5      1.40940E-04
  1177.5      1.39800E-04
  1182.5      1.38670E-04
  1187.5      1.37560E-04
  1192.5      1.36460E-04
  1197.5      1.34760E-04
  1202.5      1.34300E-04
  1207.5      1.33230E-04
  1212.5      1.32180E-04
  1217.5      1.31150E-04
  1222.5      1.30130E-04
  1227.5      1.29110E-04
  1232.5      1.28110E-04
  1237.5      1.27120E-04
  1242.5      1.26150E-04
  1247.5      1.25180E-04
  1252.5      1.24140E-04
  1257.5      1.23280E-04
  1262.5      1.22350E-04
  1267.5      1.21420E-04
  1272.5      1.20490E-04
  1277.5      1.18260E-04
  1282.5      1.12660E-04
  1287.5      1.17200E-04
  1292.5      1.16960E-04
  1297.5      1.15830E-04
  1302.5      1.15240E-04
  1307.5      1.14400E-04
  1312.5      1.13560E-04
  1317.5      1.12740E-04
  1322.5      1.11920E-04
  1327.5      1.11110E-04
  1332.5      1.10310E-04
  1337.5      1.09520E-04
  1342.5      1.08710E-04
  1347.5      1.07960E-04
  1352.5      1.07190E-04
  1357.5      1.06440E-04
  1362.5      1.05690E-04
  1367.5      1.04950E-04
  1372.5      1.04210E-04
  1377.5      1.03480E-04
  1382.5      1.02760E-04
  1387.5      1.02050E-04
  1392.5      1.01350E-04
  1397.5      1.00650E-04
