 Castelli and Kurucz 2004-2012 Atmosphere
 T     46000.     G    4.50000 [-1.0a] N(He)/Ntot=0.0784 VTURB=2.0  L/H=1.25 OD
 Wavelength  Eddington Hnu
   (nm)    (ergs/s/cm2/Hz/sr)
  9.0900      4.37250E-20
  9.3500      1.23930E-19
  9.6100      3.28050E-19
  9.7700      5.93350E-19
  9.9600      1.15490E-18
  10.200      2.58740E-18
  10.380      4.63040E-18
  10.560      8.12830E-18
  10.770      1.53150E-17
  11.040      3.34060E-17
  11.400      8.93960E-17
  11.780      2.37320E-16
  12.130      5.55570E-16
  12.480      1.23970E-15
  12.710      2.05480E-15
  12.840      2.72750E-15
  13.050      4.22060E-15
  13.240      6.19530E-15
  13.390      8.34070E-15
  13.660      1.39630E-14
  13.980      2.53560E-14
  14.330      4.69170E-14
  14.720      8.83430E-14
  15.100      1.66420E-13
  15.520      3.16190E-13
  15.880      5.35700E-13
  16.200      8.62810E-13
  16.600      1.48980E-12
  17.030      2.55930E-12
  17.340      3.74270E-12
  17.680      5.68980E-12
  18.020      8.44710E-12
  18.170      9.83860E-12
  18.610      1.62110E-11
  19.100      2.69180E-11
  19.390      3.64480E-11
  19.840      5.63630E-11
  20.180      7.74480E-11
  20.500      1.04110E-10
  21.050      1.68700E-10
  21.620      2.70570E-10
  21.980      3.63970E-10
  22.300      4.65750E-10
  22.680      6.14020E-10
  23.000      1.20440E-07
  23.400      1.00570E-06
  24.000      4.66740E-06
  24.650      2.46480E-05
  25.240      7.52520E-05
  25.680      8.61810E-05
  26.000      1.21090E-04
  26.400      2.27170E-04
  26.850      2.68920E-04
  27.350      3.19370E-04
  27.850      2.75690E-04
  28.400      4.18750E-04
  29.000      5.20120E-04
  29.600      4.48760E-04
  30.100      1.97580E-04
  30.800      2.90700E-04
  31.800      1.89400E-04
  32.800      2.34120E-04
  33.800      1.71140E-04
  34.800      1.82060E-04
  35.700      3.82790E-04
  36.600      6.08980E-04
  37.500      7.37680E-04
  38.500      7.19880E-04
  39.500      9.75050E-04
  40.500      1.24100E-03
  41.400      1.28940E-03
  42.200      1.26430E-03
  43.000      1.24800E-03
  44.100      1.45790E-03
  45.100      1.54650E-03
  46.000      1.46020E-03
  47.000      1.55620E-03
  48.000      1.69580E-03
  49.000      1.54950E-03
  50.000      1.87450E-03
  50.600      1.67940E-03
  51.200      1.99960E-03
  52.000      1.96720E-03
  53.000      1.94510E-03
  54.000      1.78470E-03
  55.000      1.59970E-03
  56.000      1.98440E-03
  57.000      2.17840E-03
  58.000      2.20090E-03
  59.000      2.26410E-03
  60.000      2.14940E-03
  61.000      1.95970E-03
  62.000      2.30180E-03
  63.000      2.21560E-03
  64.000      2.42030E-03
  65.000      2.35440E-03
  65.800      2.22670E-03
  66.500      2.45180E-03
  67.500      2.50950E-03
  68.500      2.39270E-03
  69.500      2.55990E-03
  70.500      2.38850E-03
  71.600      2.60070E-03
  72.600      2.66020E-03
  73.500      2.67530E-03
  74.500      2.64570E-03
  75.500      2.62330E-03
  76.500      2.54850E-03
  77.500      2.67190E-03
  78.500      2.54020E-03
  79.500      2.67330E-03
  80.500      2.71750E-03
  81.500      2.74550E-03
  82.500      2.77470E-03
  83.500      2.62480E-03
  84.500      2.77970E-03
  85.500      2.72600E-03
  86.500      2.81470E-03
  87.500      2.84140E-03
  88.500      2.81950E-03
  89.500      2.83540E-03
  90.500      2.80430E-03
  91.500      2.20950E-03
  92.500      3.59970E-03
  93.500      4.44550E-03
  94.500      5.06050E-03
  95.500      5.62530E-03
  96.500      6.02670E-03
  97.500      5.04830E-03
  98.500      5.79130E-03
  99.500      5.45520E-03
  100.50      5.67660E-03
  101.50      5.72460E-03
  102.50      5.13100E-03
  103.50      5.81520E-03
  104.50      5.87790E-03
  105.50      5.85260E-03
  106.50      5.65380E-03
  107.50      5.75680E-03
  108.50      5.50320E-03
  109.50      5.71410E-03
  110.50      5.64140E-03
  111.50      5.59890E-03
  112.50      5.48890E-03
  113.50      5.58780E-03
  114.50      5.56600E-03
  115.50      5.46320E-03
  116.50      5.36970E-03
  117.50      5.10040E-03
  118.50      5.32770E-03
  119.50      5.24220E-03
  120.50      5.23600E-03
  121.50      4.54210E-03
  122.50      5.17450E-03
  123.50      5.05370E-03
  124.50      5.00180E-03
  125.50      5.08240E-03
  126.50      5.05060E-03
  127.50      5.02470E-03
  128.50      4.99480E-03
  129.50      4.97210E-03
  130.50      4.89400E-03
  131.50      4.87290E-03
  132.50      4.82040E-03
  133.50      4.80830E-03
  134.50      4.77780E-03
  135.50      4.69090E-03
  136.50      4.58930E-03
  137.50      4.49070E-03
  138.50      4.55270E-03
  139.50      4.47340E-03
  140.50      4.35800E-03
  141.50      4.51920E-03
  142.50      4.43970E-03
  143.50      4.46620E-03
  144.20      4.37340E-03
  144.70      4.37370E-03
  145.50      4.32910E-03
  146.50      4.31260E-03
  147.50      4.30960E-03
  148.50      4.32900E-03
  149.50      4.28080E-03
  150.50      4.26430E-03
  151.20      4.26270E-03
  151.70      4.20820E-03
  152.50      4.21400E-03
  153.50      4.11900E-03
  154.50      3.89580E-03
  155.50      3.90030E-03
  156.50      4.01720E-03
  157.50      4.03300E-03
  158.50      3.97880E-03
  159.50      3.96660E-03
  160.50      3.90020E-03
  161.50      3.87370E-03
  162.50      3.83390E-03
  163.50      3.79580E-03
  164.50      3.64520E-03
  165.50      3.81390E-03
  166.50      3.79420E-03
  167.20      3.72920E-03
  167.70      3.78480E-03
  168.50      3.76650E-03
  169.50      3.74900E-03
  170.50      3.70760E-03
  171.50      3.62010E-03
  172.50      3.61720E-03
  173.50      3.65210E-03
  174.50      3.61900E-03
  175.50      3.59010E-03
  176.50      3.56870E-03
  177.50      3.55020E-03
  178.50      3.53350E-03
  179.50      3.49990E-03
  180.50      3.47820E-03
  181.50      3.45470E-03
  182.50      3.43150E-03
  183.50      3.41040E-03
  184.50      3.38840E-03
  185.50      3.36120E-03
  186.50      3.34110E-03
  187.50      3.31420E-03
  188.50      3.29130E-03
  189.50      3.27960E-03
  190.50      3.25760E-03
  191.50      3.23380E-03
  192.50      3.18830E-03
  193.50      3.19310E-03
  194.50      3.17330E-03
  195.50      3.14820E-03
  196.70      3.12550E-03
  197.60      3.10140E-03
  198.40      3.09160E-03
  199.50      3.06650E-03
  200.50      3.04960E-03
  201.50      3.02980E-03
  202.50      3.01020E-03
  203.50      2.98900E-03
  204.50      2.96070E-03
  205.50      2.31110E-03
  206.50      2.24740E-03
  207.40      2.30650E-03
  207.80      2.36630E-03
  208.50      2.53730E-03
  209.50      2.79660E-03
  210.50      2.84940E-03
  211.50      2.84410E-03
  212.50      2.82140E-03
  213.50      2.80530E-03
  214.50      2.79050E-03
  215.50      2.81430E-03
  216.50      2.71610E-03
  217.50      2.79550E-03
  218.50      2.70050E-03
  219.50      2.76320E-03
  220.50      2.74670E-03
  221.50      2.64740E-03
  222.50      2.71340E-03
  223.50      2.69740E-03
  224.50      2.67970E-03
  225.50      2.58860E-03
  226.50      2.64580E-03
  227.50      2.63220E-03
  228.50      2.60920E-03
  229.50      2.57990E-03
  230.50      2.51200E-03
  231.50      2.56000E-03
  232.50      2.55080E-03
  233.50      2.53600E-03
  234.50      2.51880E-03
  235.50      2.50260E-03
  236.50      2.48720E-03
  237.50      2.47000E-03
  238.50      2.38080E-03
  239.50      2.43050E-03
  240.50      2.42150E-03
  241.50      2.40380E-03
  242.50      2.39900E-03
  243.50      2.38230E-03
  244.50      2.36890E-03
  245.50      2.34610E-03
  246.50      2.34020E-03
  247.50      2.32910E-03
  248.50      2.31300E-03
  249.50      2.22360E-03
  250.50      2.28010E-03
  251.30      2.14250E-03
  251.80      2.24670E-03
  252.50      2.24970E-03
  253.50      2.24720E-03
  254.50      2.23460E-03
  255.50      2.22120E-03
  256.50      2.20940E-03
  257.50      2.19590E-03
  258.50      2.18280E-03
  259.50      2.15690E-03
  260.50      2.15880E-03
  261.50      2.13900E-03
  262.50      2.13460E-03
  263.50      2.12280E-03
  264.50      2.10890E-03
  265.50      2.09880E-03
  266.50      2.08620E-03
  267.50      2.06680E-03
  268.50      2.06120E-03
  269.50      2.04960E-03
  270.50      2.04100E-03
  271.50      2.02920E-03
  272.50      2.01710E-03
  273.50      1.95410E-03
  274.50      1.99590E-03
  275.50      1.98400E-03
  276.50      1.97350E-03
  277.50      1.96170E-03
  278.50      1.94840E-03
  279.50      1.93760E-03
  280.50      1.92980E-03
  281.50      1.91950E-03
  282.50      1.90720E-03
  283.50      1.89900E-03
  284.50      1.88940E-03
  285.50      1.87920E-03
  286.50      1.86890E-03
  287.50      1.85850E-03
  288.50      1.84910E-03
  289.50      1.83860E-03
  291.00      1.82420E-03
  293.00      1.80540E-03
  295.00      1.78620E-03
  297.00      1.76630E-03
  299.00      1.74490E-03
  301.00      1.72850E-03
  303.00      1.70670E-03
  305.00      1.69130E-03
  307.00      1.67220E-03
  309.00      1.65990E-03
  311.00      1.64290E-03
  313.00      1.62530E-03
  315.00      1.61130E-03
  317.00      1.59440E-03
  319.00      1.57880E-03
  321.00      1.54070E-03
  323.00      1.54900E-03
  325.00      1.53400E-03
  327.00      1.51250E-03
  329.00      1.50320E-03
  331.00      1.48850E-03
  333.00      1.47430E-03
  335.00      1.45720E-03
  337.00      1.44630E-03
  339.00      1.43140E-03
  341.00      1.41690E-03
  343.00      1.40640E-03
  345.00      1.39080E-03
  347.00      1.38020E-03
  349.00      1.36760E-03
  351.00      1.35550E-03
  353.00      1.34230E-03
  355.00      1.33010E-03
  357.00      1.31830E-03
  359.00      1.30630E-03
  361.00      1.29450E-03
  363.00      1.28210E-03
  364.00      1.25210E-03
  365.00      1.14660E-03
  367.00      1.13790E-03
  369.00      1.13220E-03
  371.00      1.13360E-03
  373.00      1.14250E-03
  375.00      1.15960E-03
  377.00      1.17200E-03
  379.00      1.18690E-03
  381.00      1.19890E-03
  383.00      1.15550E-03
  385.00      1.19200E-03
  387.00      1.19330E-03
  389.00      1.11730E-03
  391.00      1.17720E-03
  393.00      1.15940E-03
  395.00      1.15810E-03
  397.00      1.07690E-03
  399.00      1.13870E-03
  401.00      1.13270E-03
  403.00      1.10590E-03
  405.00      1.11510E-03
  407.00      1.10510E-03
  409.00      1.07670E-03
  411.00      1.02750E-03
  413.00      1.07730E-03
  415.00      1.06930E-03
  417.00      1.06120E-03
  419.00      1.04870E-03
  421.00      1.03020E-03
  423.00      1.03570E-03
  425.00      1.02730E-03
  427.00      1.01910E-03
  429.00      1.01100E-03
  431.00      1.00220E-03
  433.00      9.72170E-04
  435.00      9.40420E-04
  437.00      9.78440E-04
  439.00      9.70200E-04
  441.00      9.63450E-04
  443.00      9.56410E-04
  445.00      9.48780E-04
  447.00      9.38070E-04
  449.00      9.34380E-04
  451.00      9.27120E-04
  453.00      9.19030E-04
  455.00      8.99200E-04
  457.00      9.06370E-04
  459.00      8.99610E-04
  461.00      8.92690E-04
  463.00      8.84790E-04
  465.00      8.75860E-04
  467.00      8.72000E-04
  469.00      8.39600E-04
  471.00      8.59450E-04
  473.00      8.53890E-04
  475.00      8.47620E-04
  477.00      8.41390E-04
  479.00      8.35120E-04
  481.00      8.29160E-04
  483.00      8.22870E-04
  485.00      8.04040E-04
  487.00      7.68370E-04
  489.00      8.04730E-04
  491.00      7.99790E-04
  493.00      7.92880E-04
  495.00      7.88510E-04
  497.00      7.82960E-04
  499.00      7.77490E-04
  501.00      7.71320E-04
  503.00      7.66580E-04
  505.00      7.61110E-04
  507.00      7.56000E-04
  509.00      7.50800E-04
  511.00      7.45630E-04
  513.00      7.40480E-04
  515.00      7.35420E-04
  517.00      7.30430E-04
  519.00      7.25460E-04
  521.00      7.20540E-04
  523.00      7.15690E-04
  525.00      7.10800E-04
  527.00      7.05840E-04
  529.00      7.01380E-04
  531.00      6.96700E-04
  533.00      6.92060E-04
  535.00      6.87500E-04
  537.00      6.82950E-04
  539.00      6.78450E-04
  541.00      6.62790E-04
  543.00      6.69590E-04
  545.00      6.65250E-04
  547.00      6.60900E-04
  549.00      6.56640E-04
  551.00      6.52250E-04
  553.00      6.48210E-04
  555.00      6.44050E-04
  557.00      6.39870E-04
  559.00      6.35130E-04
  561.00      6.31810E-04
  563.00      6.27810E-04
  565.00      6.23840E-04
  567.00      6.19920E-04
  569.00      6.08530E-04
  571.00      5.73710E-04
  573.00      5.70380E-04
  575.00      5.67080E-04
  577.00      5.63950E-04
  579.00      5.61140E-04
  581.00      5.57960E-04
  583.00      5.57180E-04
  585.00      5.56150E-04
  587.00      5.53330E-04
  589.00      5.54880E-04
  591.00      5.54820E-04
  593.00      5.55190E-04
  595.00      5.56070E-04
  597.00      5.56880E-04
  599.00      5.58200E-04
  601.00      5.56420E-04
  603.00      5.54290E-04
  605.00      5.52590E-04
  607.00      5.48570E-04
  609.00      5.46240E-04
  611.00      5.42380E-04
  613.00      5.39310E-04
  615.00      5.37000E-04
  617.00      5.31830E-04
  619.00      5.30640E-04
  621.00      5.27660E-04
  623.00      5.22290E-04
  625.00      5.21060E-04
  627.00      5.18560E-04
  629.00      5.15570E-04
  631.00      5.09360E-04
  633.00      5.09480E-04
  635.00      5.06780E-04
  637.00      5.03900E-04
  639.00      5.00830E-04
  641.00      4.94160E-04
  643.00      4.95400E-04
  645.00      4.92610E-04
  647.00      4.89850E-04
  649.00      4.87120E-04
  651.00      4.84170E-04
  653.00      4.76490E-04
  655.00      4.74330E-04
  657.00      4.48970E-04
  659.00      4.73230E-04
  661.00      4.71150E-04
  663.00      4.68570E-04
  665.00      4.66010E-04
  667.00      4.62140E-04
  669.00      4.54960E-04
  671.00      4.58270E-04
  673.00      4.55960E-04
  675.00      4.53490E-04
  677.00      4.51060E-04
  679.00      4.48640E-04
  681.00      4.46240E-04
  683.00      4.43860E-04
  685.00      4.41490E-04
  687.00      4.39140E-04
  689.00      4.30990E-04
  691.00      4.34320E-04
  693.00      4.32220E-04
  695.00      4.29950E-04
  697.00      4.27700E-04
  699.00      4.25460E-04
  701.00      4.23200E-04
  703.00      4.20980E-04
  705.00      4.18790E-04
  707.00      4.15880E-04
  709.00      4.14530E-04
  711.00      4.12390E-04
  713.00      4.10250E-04
  715.00      4.08170E-04
  717.00      4.02250E-04
  719.00      4.01910E-04
  721.00      4.01960E-04
  723.00      3.99920E-04
  725.00      3.97900E-04
  727.00      3.95890E-04
  729.00      3.93690E-04
  731.00      3.91860E-04
  733.00      3.89950E-04
  735.00      3.88000E-04
  737.00      3.86040E-04
  739.00      3.84140E-04
  741.00      3.82210E-04
  743.00      3.80340E-04
  745.00      3.78390E-04
  747.00      3.76600E-04
  749.00      3.74710E-04
  751.00      3.72880E-04
  753.00      3.71090E-04
  755.00      3.69280E-04
  757.00      3.67480E-04
  759.00      3.60320E-04
  761.00      3.63630E-04
  763.00      3.62160E-04
  765.00      3.60410E-04
  767.00      3.58680E-04
  769.00      3.56890E-04
  771.00      3.55230E-04
  773.00      3.53440E-04
  775.00      3.51880E-04
  777.00      3.50200E-04
  779.00      3.48540E-04
  781.00      3.46890E-04
  783.00      3.45260E-04
  785.00      3.43570E-04
  787.00      3.41990E-04
  789.00      3.40410E-04
  791.00      3.38830E-04
  793.00      3.37250E-04
  795.00      3.35680E-04
  797.00      3.34060E-04
  799.00      3.32570E-04
  801.00      3.31040E-04
  803.00      3.29500E-04
  805.00      3.27990E-04
  807.00      3.26490E-04
  809.00      3.24990E-04
  811.00      3.23510E-04
  813.00      3.22030E-04
  815.00      3.20570E-04
  817.00      3.19040E-04
  819.00      3.16330E-04
  821.00      3.03450E-04
  823.00      3.00400E-04
  825.00      3.00530E-04
  827.00      2.99550E-04
  829.00      2.98300E-04
  831.00      2.97040E-04
  833.00      2.95730E-04
  835.00      2.94540E-04
  837.00      2.93370E-04
  839.00      2.92220E-04
  841.00      2.91190E-04
  843.00      2.90160E-04
  845.00      2.89140E-04
  847.00      2.88200E-04
  849.00      2.87400E-04
  851.00      2.86450E-04
  853.00      2.85790E-04
  855.00      2.84660E-04
  857.00      2.84330E-04
  859.00      2.83100E-04
  861.00      2.82320E-04
  863.00      2.82370E-04
  865.00      2.81320E-04
  867.00      2.78970E-04
  869.00      2.80480E-04
  871.00      2.80250E-04
  873.00      2.79200E-04
  875.00      2.74480E-04
  877.00      2.77270E-04
  879.00      2.78050E-04
  881.00      2.77620E-04
  883.00      2.76800E-04
  885.00      2.72720E-04
  887.00      2.66930E-04
  889.00      2.72800E-04
  891.00      2.72790E-04
  893.00      2.71680E-04
  895.00      2.71190E-04
  897.00      2.69840E-04
  899.00      2.67420E-04
  901.00      2.58280E-04
  903.00      2.61230E-04
  905.00      2.64690E-04
  907.00      2.64350E-04
  909.00      2.63450E-04
  911.00      2.61740E-04
  913.00      2.61310E-04
  915.00      2.60260E-04
  917.00      2.59140E-04
  919.00      2.57730E-04
  921.00      2.54490E-04
  923.00      2.43500E-04
  925.00      2.51850E-04
  927.00      2.53450E-04
  929.00      2.52940E-04
  931.00      2.51900E-04
  933.00      2.50660E-04
  935.00      2.44850E-04
  937.00      2.47660E-04
  939.00      2.47850E-04
  941.00      2.46910E-04
  943.00      2.45930E-04
  945.00      2.44950E-04
  947.00      2.43930E-04
  949.00      2.42990E-04
  951.00      2.41420E-04
  953.00      2.37800E-04
  955.00      2.27210E-04
  957.00      2.36940E-04
  959.00      2.37910E-04
  961.00      2.37320E-04
  963.00      2.36350E-04
  965.00      2.35470E-04
  967.00      2.34560E-04
  969.00      2.33640E-04
  971.00      2.32630E-04
  973.00      2.31830E-04
  975.00      2.30600E-04
  977.00      2.28460E-04
  979.00      2.29160E-04
  981.00      2.28280E-04
  983.00      2.27390E-04
  985.00      2.26540E-04
  987.00      2.25670E-04
  989.00      2.24810E-04
  991.00      2.23950E-04
  993.00      2.23100E-04
  995.00      2.22250E-04
  997.00      2.21410E-04
  999.00      2.20570E-04
  1002.5      2.16210E-04
  1007.5      2.12580E-04
  1012.5      2.11760E-04
  1017.5      2.13050E-04
  1022.5      2.11080E-04
  1027.5      2.09130E-04
  1032.5      2.07150E-04
  1037.5      2.05340E-04
  1042.5      2.02420E-04
  1047.5      2.01640E-04
  1052.5      1.99830E-04
  1057.5      1.98050E-04
  1062.5      1.96280E-04
  1067.5      1.94540E-04
  1072.5      1.92820E-04
  1077.5      1.91130E-04
  1082.5      1.89180E-04
  1087.5      1.87760E-04
  1092.5      1.80610E-04
  1097.5      1.83410E-04
  1102.5      1.82960E-04
  1107.5      1.81410E-04
  1112.5      1.79860E-04
  1117.5      1.78440E-04
  1122.5      1.76920E-04
  1127.5      1.75430E-04
  1132.5      1.73960E-04
  1137.5      1.72510E-04
  1142.5      1.71070E-04
  1147.5      1.69660E-04
  1152.5      1.68260E-04
  1157.5      1.66870E-04
  1162.5      1.63890E-04
  1167.5      1.63000E-04
  1172.5      1.62820E-04
  1177.5      1.61500E-04
  1182.5      1.60200E-04
  1187.5      1.58910E-04
  1192.5      1.57640E-04
  1197.5      1.56300E-04
  1202.5      1.55150E-04
  1207.5      1.53920E-04
  1212.5      1.52710E-04
  1217.5      1.51510E-04
  1222.5      1.50330E-04
  1227.5      1.49160E-04
  1232.5      1.48000E-04
  1237.5      1.46860E-04
  1242.5      1.45730E-04
  1247.5      1.44610E-04
  1252.5      1.43500E-04
  1257.5      1.42420E-04
  1262.5      1.41340E-04
  1267.5      1.40270E-04
  1272.5      1.39210E-04
  1277.5      1.37710E-04
  1282.5      1.32520E-04
  1287.5      1.35960E-04
  1292.5      1.35110E-04
  1297.5      1.34080E-04
  1302.5      1.33120E-04
  1307.5      1.32150E-04
  1312.5      1.31180E-04
  1317.5      1.30230E-04
  1322.5      1.29280E-04
  1327.5      1.28350E-04
  1332.5      1.27420E-04
  1337.5      1.26510E-04
  1342.5      1.25600E-04
  1347.5      1.24710E-04
  1352.5      1.23820E-04
  1357.5      1.22950E-04
  1362.5      1.22080E-04
  1367.5      1.21220E-04
  1372.5      1.20370E-04
  1377.5      1.19530E-04
  1382.5      1.18700E-04
  1387.5      1.17880E-04
  1392.5      1.17060E-04
  1397.5      1.16260E-04
