 Castelli and Kurucz 2004-2012 Atmosphere
 T     32000.     G    4.00000 [-1.0a] N(He)/Ntot=0.0784 VTURB=2.0  L/H=1.25 OD
 Wavelength  Eddington Hnu
   (nm)    (ergs/s/cm2/Hz/sr)
  9.0900      2.44880E-33
  9.3500      1.51560E-32
  9.6100      8.55970E-32
  9.7700      2.38200E-31
  9.9600      7.71700E-31
  10.200      3.21620E-30
  10.380      9.02520E-30
  10.560      2.45220E-29
  10.770      7.57230E-29
  11.040      3.04540E-28
  11.400      1.77380E-27
  11.780      1.02650E-26
  12.130      4.73140E-26
  12.480      2.01660E-25
  12.710      5.02440E-25
  12.840      8.30640E-25
  13.050      1.83500E-24
  13.240      3.68570E-24
  13.390      6.30970E-24
  13.660      1.61850E-23
  13.980      4.73470E-23
  14.330      1.45430E-22
  14.720      4.78540E-22
  15.100      1.44530E-21
  15.520      4.61950E-21
  15.880      1.19440E-20
  16.200      2.68860E-20
  16.600      7.10990E-20
  17.030      1.92490E-19
  17.340      3.83470E-19
  17.680      7.95220E-19
  18.020      1.60490E-18
  18.170      2.17170E-18
  18.610      5.12620E-18
  19.100      1.27580E-17
  19.390      2.14260E-17
  19.840      4.65500E-17
  20.180      8.17930E-17
  20.500      1.36730E-16
  21.050      3.19420E-16
  21.620      7.35600E-16
  21.980      1.22140E-15
  22.300      1.89000E-15
  22.680      3.11980E-15
  23.000      3.93050E-12
  23.400      1.23400E-11
  24.000      2.16750E-11
  24.650      3.98890E-11
  25.240      6.90330E-11
  25.680      8.17360E-11
  26.000      1.44930E-10
  26.400      2.04730E-10
  26.850      3.09030E-10
  27.350      4.41050E-10
  27.850      5.80160E-10
  28.400      1.14080E-09
  29.000      1.67310E-09
  29.600      2.25720E-09
  30.100      2.65500E-09
  30.800      5.14300E-09
  31.800      1.25590E-08
  32.800      1.90330E-08
  33.800      3.25930E-08
  34.800      5.03920E-08
  35.700      8.20030E-08
  36.600      1.31780E-07
  37.500      1.69110E-07
  38.500      2.43550E-07
  39.500      3.43790E-07
  40.500      4.47930E-07
  41.400      5.83950E-07
  42.200      6.85400E-07
  43.000      8.23830E-07
  44.100      1.07110E-06
  45.100      1.33410E-06
  46.000      1.55970E-06
  47.000      1.92040E-06
  48.000      2.32530E-06
  49.000      2.72590E-06
  50.000      3.37280E-06
  50.600      1.09940E-05
  51.200      5.14670E-05
  52.000      4.97860E-05
  53.000      4.81660E-05
  54.000      4.64080E-05
  55.000      5.37250E-05
  56.000      6.45900E-05
  57.000      6.92390E-05
  58.000      6.63090E-05
  59.000      7.33350E-05
  60.000      6.80170E-05
  61.000      7.79370E-05
  62.000      8.92470E-05
  63.000      9.15560E-05
  64.000      9.37630E-05
  65.000      9.77520E-05
  65.800      9.26450E-05
  66.500      1.01930E-04
  67.500      1.10150E-04
  68.500      1.03800E-04
  69.500      1.20220E-04
  70.500      1.10830E-04
  71.600      1.33100E-04
  72.600      1.35310E-04
  73.500      1.41170E-04
  74.500      1.42730E-04
  75.500      1.46410E-04
  76.500      1.53190E-04
  77.500      1.59750E-04
  78.500      1.67820E-04
  79.500      1.72180E-04
  80.500      1.74310E-04
  81.500      1.79820E-04
  82.500      1.89670E-04
  83.500      1.75010E-04
  84.500      1.97620E-04
  85.500      2.02740E-04
  86.500      2.11390E-04
  87.500      2.17110E-04
  88.500      2.24000E-04
  89.500      2.30870E-04
  90.500      2.32730E-04
  91.500      2.73650E-04
  92.500      9.22230E-04
  93.500      1.40600E-03
  94.500      1.90820E-03
  95.500      2.09700E-03
  96.500      2.38820E-03
  97.500      1.46930E-03
  98.500      2.25480E-03
  99.500      2.13390E-03
  100.50      2.20800E-03
  101.50      2.26750E-03
  102.50      1.79760E-03
  103.50      2.26060E-03
  104.50      2.44800E-03
  105.50      2.42910E-03
  106.50      2.26770E-03
  107.50      2.33190E-03
  108.50      2.22980E-03
  109.50      2.38040E-03
  110.50      2.32560E-03
  111.50      2.31690E-03
  112.50      2.09820E-03
  113.50      2.32040E-03
  114.50      2.25100E-03
  115.50      2.23880E-03
  116.50      2.24850E-03
  117.50      1.84120E-03
  118.50      2.15820E-03
  119.50      2.14210E-03
  120.50      2.07640E-03
  121.50      1.64280E-03
  122.50      2.10810E-03
  123.50      2.19010E-03
  124.50      2.15360E-03
  125.50      2.17640E-03
  126.50      2.19850E-03
  127.50      2.20890E-03
  128.50      2.21180E-03
  129.50      2.10710E-03
  130.50      2.13530E-03
  131.50      2.18930E-03
  132.50      2.15260E-03
  133.50      2.12670E-03
  134.50      2.13950E-03
  135.50      2.13350E-03
  136.50      2.09660E-03
  137.50      2.09040E-03
  138.50      2.07750E-03
  139.50      1.83040E-03
  140.50      1.86480E-03
  141.50      2.03350E-03
  142.50      1.94760E-03
  143.50      2.00550E-03
  144.20      2.01700E-03
  144.70      2.00660E-03
  145.50      1.97190E-03
  146.50      1.96830E-03
  147.50      1.96090E-03
  148.50      1.97020E-03
  149.50      1.94050E-03
  150.50      1.92500E-03
  151.20      1.92990E-03
  151.70      1.92160E-03
  152.50      1.89830E-03
  153.50      1.78640E-03
  154.50      1.69630E-03
  155.50      1.69160E-03
  156.50      1.75040E-03
  157.50      1.79810E-03
  158.50      1.80740E-03
  159.50      1.80700E-03
  160.50      1.73440E-03
  161.50      1.70460E-03
  162.50      1.71860E-03
  163.50      1.72750E-03
  164.50      1.68780E-03
  165.50      1.75570E-03
  166.50      1.73350E-03
  167.20      1.68610E-03
  167.70      1.79190E-03
  168.50      1.76280E-03
  169.50      1.74540E-03
  170.50      1.72610E-03
  171.50      1.69730E-03
  172.50      1.67400E-03
  173.50      1.71960E-03
  174.50      1.70850E-03
  175.50      1.69130E-03
  176.50      1.68650E-03
  177.50      1.67900E-03
  178.50      1.67970E-03
  179.50      1.66640E-03
  180.50      1.66990E-03
  181.50      1.65250E-03
  182.50      1.64240E-03
  183.50      1.64820E-03
  184.50      1.60900E-03
  185.50      1.60040E-03
  186.50      1.60110E-03
  187.50      1.59350E-03
  188.50      1.56550E-03
  189.50      1.55320E-03
  190.50      1.57470E-03
  191.50      1.54860E-03
  192.50      1.51230E-03
  193.50      1.54440E-03
  194.50      1.55230E-03
  195.50      1.50010E-03
  196.70      1.52610E-03
  197.60      1.53570E-03
  198.40      1.51170E-03
  199.50      1.48690E-03
  200.50      1.50750E-03
  201.50      1.50610E-03
  202.50      1.50070E-03
  203.50      1.48350E-03
  204.50      1.47460E-03
  205.50      1.25690E-03
  206.50      1.22800E-03
  207.40      1.26730E-03
  207.80      1.27340E-03
  208.50      1.34240E-03
  209.50      1.41050E-03
  210.50      1.42650E-03
  211.50      1.43330E-03
  212.50      1.41950E-03
  213.50      1.41810E-03
  214.50      1.40980E-03
  215.50      1.41590E-03
  216.50      1.38380E-03
  217.50      1.40360E-03
  218.50      1.37720E-03
  219.50      1.39190E-03
  220.50      1.38430E-03
  221.50      1.35540E-03
  222.50      1.36800E-03
  223.50      1.36050E-03
  224.50      1.35310E-03
  225.50      1.32630E-03
  226.50      1.33880E-03
  227.50      1.33210E-03
  228.50      1.31880E-03
  229.50      1.27350E-03
  230.50      1.29010E-03
  231.50      1.29930E-03
  232.50      1.29460E-03
  233.50      1.28730E-03
  234.50      1.28140E-03
  235.50      1.27400E-03
  236.50      1.26710E-03
  237.50      1.25900E-03
  238.50      1.23020E-03
  239.50      1.23890E-03
  240.50      1.23930E-03
  241.50      1.23090E-03
  242.50      1.22600E-03
  243.50      1.21720E-03
  244.50      1.21230E-03
  245.50      1.20470E-03
  246.50      1.20010E-03
  247.50      1.19330E-03
  248.50      1.18380E-03
  249.50      1.03690E-03
  250.50      1.16500E-03
  251.30      1.12840E-03
  251.80      1.14820E-03
  252.50      1.16220E-03
  253.50      1.15740E-03
  254.50      1.14580E-03
  255.50      1.14210E-03
  256.50      1.13800E-03
  257.50      1.13300E-03
  258.50      1.12740E-03
  259.50      1.11970E-03
  260.50      1.11860E-03
  261.50      1.11160E-03
  262.50      1.10660E-03
  263.50      1.10060E-03
  264.50      1.09440E-03
  265.50      1.08840E-03
  266.50      1.08040E-03
  267.50      1.07250E-03
  268.50      1.07270E-03
  269.50      1.06240E-03
  270.50      1.06130E-03
  271.50      1.05570E-03
  272.50      1.04600E-03
  273.50      1.03240E-03
  274.50      1.04070E-03
  275.50      1.03540E-03
  276.50      1.02500E-03
  277.50      1.02590E-03
  278.50      1.01970E-03
  279.50      1.00440E-03
  280.50      1.00730E-03
  281.50      1.00540E-03
  282.50      9.95160E-04
  283.50      9.91490E-04
  284.50      9.91180E-04
  285.50      9.85210E-04
  286.50      9.80070E-04
  287.50      9.75340E-04
  288.50      9.71190E-04
  289.50      9.66190E-04
  291.00      9.57840E-04
  293.00      9.50130E-04
  295.00      9.36490E-04
  297.00      9.31200E-04
  299.00      9.20940E-04
  301.00      9.11500E-04
  303.00      9.01750E-04
  305.00      8.95110E-04
  307.00      8.88700E-04
  309.00      8.75910E-04
  311.00      8.71470E-04
  313.00      8.62720E-04
  315.00      8.54500E-04
  317.00      8.47090E-04
  319.00      8.36330E-04
  321.00      8.27790E-04
  323.00      8.24510E-04
  325.00      8.18000E-04
  327.00      8.08860E-04
  329.00      8.02540E-04
  331.00      7.96010E-04
  333.00      7.88000E-04
  335.00      7.80060E-04
  337.00      7.74430E-04
  339.00      7.68970E-04
  341.00      7.62210E-04
  343.00      7.54230E-04
  345.00      7.45410E-04
  347.00      7.40630E-04
  349.00      7.34140E-04
  351.00      7.29430E-04
  353.00      7.23930E-04
  355.00      7.17510E-04
  357.00      7.13720E-04
  359.00      7.04540E-04
  361.00      7.00090E-04
  363.00      6.92780E-04
  364.00      6.90640E-04
  365.00      6.69480E-04
  367.00      6.66150E-04
  369.00      6.60110E-04
  371.00      6.48890E-04
  373.00      6.37940E-04
  375.00      6.52430E-04
  377.00      6.50930E-04
  379.00      6.71340E-04
  381.00      6.90860E-04
  383.00      6.37290E-04
  385.00      7.00490E-04
  387.00      6.98240E-04
  389.00      6.22860E-04
  391.00      6.96670E-04
  393.00      6.87340E-04
  395.00      6.82800E-04
  397.00      5.99710E-04
  399.00      6.73930E-04
  401.00      6.69190E-04
  403.00      6.50360E-04
  405.00      6.62870E-04
  407.00      6.50890E-04
  409.00      6.27100E-04
  411.00      5.80930E-04
  413.00      6.34990E-04
  415.00      6.32360E-04
  417.00      6.31450E-04
  419.00      6.25450E-04
  421.00      6.19620E-04
  423.00      6.17730E-04
  425.00      6.11130E-04
  427.00      6.05060E-04
  429.00      6.01150E-04
  431.00      5.94670E-04
  433.00      5.69150E-04
  435.00      5.35670E-04
  437.00      5.82000E-04
  439.00      5.72350E-04
  441.00      5.73750E-04
  443.00      5.70960E-04
  445.00      5.67150E-04
  447.00      5.50960E-04
  449.00      5.58730E-04
  451.00      5.54940E-04
  453.00      5.51300E-04
  455.00      5.44070E-04
  457.00      5.42900E-04
  459.00      5.38110E-04
  461.00      5.34410E-04
  463.00      5.29820E-04
  465.00      5.18150E-04
  467.00      5.22170E-04
  469.00      5.12730E-04
  471.00      5.10240E-04
  473.00      5.13230E-04
  475.00      5.09320E-04
  477.00      5.06210E-04
  479.00      5.02630E-04
  481.00      4.98830E-04
  483.00      4.94050E-04
  485.00      4.76890E-04
  487.00      4.42970E-04
  489.00      4.83640E-04
  491.00      4.81440E-04
  493.00      4.71730E-04
  495.00      4.74230E-04
  497.00      4.72170E-04
  499.00      4.68930E-04
  501.00      4.61540E-04
  503.00      4.62250E-04
  505.00      4.57830E-04
  507.00      4.56390E-04
  509.00      4.53250E-04
  511.00      4.50220E-04
  513.00      4.47210E-04
  515.00      4.44220E-04
  517.00      4.41160E-04
  519.00      4.38410E-04
  521.00      4.35560E-04
  523.00      4.32730E-04
  525.00      4.29810E-04
  527.00      4.26950E-04
  529.00      4.24320E-04
  531.00      4.21570E-04
  533.00      4.18860E-04
  535.00      4.16160E-04
  537.00      4.13510E-04
  539.00      4.10780E-04
  541.00      4.06140E-04
  543.00      4.05660E-04
  545.00      4.03060E-04
  547.00      4.00510E-04
  549.00      3.98000E-04
  551.00      3.95480E-04
  553.00      3.93030E-04
  555.00      3.90600E-04
  557.00      3.88150E-04
  559.00      3.85520E-04
  561.00      3.83380E-04
  563.00      3.81020E-04
  565.00      3.78670E-04
  567.00      3.76250E-04
  569.00      3.72390E-04
  571.00      3.67310E-04
  573.00      3.65210E-04
  575.00      3.62850E-04
  577.00      3.60970E-04
  579.00      3.58850E-04
  581.00      3.56780E-04
  583.00      3.54760E-04
  585.00      3.53130E-04
  587.00      3.44610E-04
  589.00      3.49390E-04
  591.00      3.47990E-04
  593.00      3.46370E-04
  595.00      3.44770E-04
  597.00      3.43450E-04
  599.00      3.41830E-04
  601.00      3.39970E-04
  603.00      3.37970E-04
  605.00      3.36030E-04
  607.00      3.34100E-04
  609.00      3.32180E-04
  611.00      3.30260E-04
  613.00      3.28370E-04
  615.00      3.26420E-04
  617.00      3.24560E-04
  619.00      3.22780E-04
  621.00      3.20950E-04
  623.00      3.19130E-04
  625.00      3.17310E-04
  627.00      3.15550E-04
  629.00      3.13780E-04
  631.00      3.11960E-04
  633.00      3.10280E-04
  635.00      3.08530E-04
  637.00      3.06840E-04
  639.00      3.05140E-04
  641.00      3.03340E-04
  643.00      3.01790E-04
  645.00      3.00130E-04
  647.00      2.98410E-04
  649.00      2.96790E-04
  651.00      2.95220E-04
  653.00      2.92820E-04
  655.00      2.87190E-04
  657.00      2.64630E-04
  659.00      2.87760E-04
  661.00      2.87310E-04
  663.00      2.85810E-04
  665.00      2.84300E-04
  667.00      2.80790E-04
  669.00      2.79100E-04
  671.00      2.79680E-04
  673.00      2.78210E-04
  675.00      2.76870E-04
  677.00      2.75450E-04
  679.00      2.73920E-04
  681.00      2.72570E-04
  683.00      2.71110E-04
  685.00      2.69730E-04
  687.00      2.68320E-04
  689.00      2.66540E-04
  691.00      2.65410E-04
  693.00      2.64200E-04
  695.00      2.62840E-04
  697.00      2.61490E-04
  699.00      2.60150E-04
  701.00      2.58790E-04
  703.00      2.57440E-04
  705.00      2.56150E-04
  707.00      2.51940E-04
  709.00      2.53610E-04
  711.00      2.52300E-04
  713.00      2.51050E-04
  715.00      2.49800E-04
  717.00      2.48290E-04
  719.00      2.47230E-04
  721.00      2.46080E-04
  723.00      2.44520E-04
  725.00      2.43550E-04
  727.00      2.42440E-04
  729.00      2.39820E-04
  731.00      2.40030E-04
  733.00      2.38870E-04
  735.00      2.37700E-04
  737.00      2.36550E-04
  739.00      2.35390E-04
  741.00      2.34250E-04
  743.00      2.33110E-04
  745.00      2.31990E-04
  747.00      2.30760E-04
  749.00      2.29710E-04
  751.00      2.28610E-04
  753.00      2.27560E-04
  755.00      2.26480E-04
  757.00      2.25400E-04
  759.00      2.23990E-04
  761.00      2.23200E-04
  763.00      2.22200E-04
  765.00      2.21140E-04
  767.00      2.20110E-04
  769.00      2.19030E-04
  771.00      2.18040E-04
  773.00      2.16940E-04
  775.00      2.16010E-04
  777.00      2.15010E-04
  779.00      2.14010E-04
  781.00      2.12940E-04
  783.00      2.12030E-04
  785.00      2.11180E-04
  787.00      2.10130E-04
  789.00      2.09110E-04
  791.00      2.08280E-04
  793.00      2.07320E-04
  795.00      2.06380E-04
  797.00      2.05330E-04
  799.00      2.04490E-04
  801.00      2.03540E-04
  803.00      2.02570E-04
  805.00      2.01650E-04
  807.00      2.00750E-04
  809.00      1.99670E-04
  811.00      1.98590E-04
  813.00      1.98060E-04
  815.00      1.96960E-04
  817.00      1.96330E-04
  819.00      1.95120E-04
  821.00      1.93260E-04
  823.00      1.92420E-04
  825.00      1.91920E-04
  827.00      1.90460E-04
  829.00      1.90190E-04
  831.00      1.89420E-04
  833.00      1.88520E-04
  835.00      1.87140E-04
  837.00      1.86700E-04
  839.00      1.86080E-04
  841.00      1.85270E-04
  843.00      1.84370E-04
  845.00      1.82860E-04
  847.00      1.82690E-04
  849.00      1.81830E-04
  851.00      1.80750E-04
  853.00      1.80410E-04
  855.00      1.78270E-04
  857.00      1.80110E-04
  859.00      1.75850E-04
  861.00      1.75820E-04
  863.00      1.78760E-04
  865.00      1.75830E-04
  867.00      1.69310E-04
  869.00      1.76660E-04
  871.00      1.77190E-04
  873.00      1.74080E-04
  875.00      1.63510E-04
  877.00      1.71290E-04
  879.00      1.74780E-04
  881.00      1.74350E-04
  883.00      1.73230E-04
  885.00      1.66570E-04
  887.00      1.58260E-04
  889.00      1.70090E-04
  891.00      1.70840E-04
  893.00      1.70370E-04
  895.00      1.69960E-04
  897.00      1.68960E-04
  899.00      1.66220E-04
  901.00      1.53790E-04
  903.00      1.59530E-04
  905.00      1.65580E-04
  907.00      1.64650E-04
  909.00      1.64870E-04
  911.00      1.64570E-04
  913.00      1.63970E-04
  915.00      1.63310E-04
  917.00      1.62300E-04
  919.00      1.61400E-04
  921.00      1.57040E-04
  923.00      1.44140E-04
  925.00      1.56100E-04
  927.00      1.58710E-04
  929.00      1.58660E-04
  931.00      1.57660E-04
  933.00      1.57400E-04
  935.00      1.56350E-04
  937.00      1.56230E-04
  939.00      1.55630E-04
  941.00      1.55000E-04
  943.00      1.54400E-04
  945.00      1.53790E-04
  947.00      1.52590E-04
  949.00      1.52460E-04
  951.00      1.50410E-04
  953.00      1.46450E-04
  955.00      1.35070E-04
  957.00      1.47530E-04
  959.00      1.49100E-04
  961.00      1.48700E-04
  963.00      1.47950E-04
  965.00      1.47920E-04
  967.00      1.47350E-04
  969.00      1.46710E-04
  971.00      1.45620E-04
  973.00      1.45630E-04
  975.00      1.45100E-04
  977.00      1.44540E-04
  979.00      1.44000E-04
  981.00      1.43430E-04
  983.00      1.42910E-04
  985.00      1.42350E-04
  987.00      1.41830E-04
  989.00      1.41260E-04
  991.00      1.40630E-04
  993.00      1.40230E-04
  995.00      1.39700E-04
  997.00      1.39170E-04
  999.00      1.38630E-04
  1002.5      1.33930E-04
  1007.5      1.31280E-04
  1012.5      1.34500E-04
  1017.5      1.33980E-04
  1022.5      1.32710E-04
  1027.5      1.31550E-04
  1032.5      1.29990E-04
  1037.5      1.29180E-04
  1042.5      1.28020E-04
  1047.5      1.26880E-04
  1052.5      1.25750E-04
  1057.5      1.24630E-04
  1062.5      1.23530E-04
  1067.5      1.22300E-04
  1072.5      1.21380E-04
  1077.5      1.20320E-04
  1082.5      1.18360E-04
  1087.5      1.18090E-04
  1092.5      1.10720E-04
  1097.5      1.14730E-04
  1102.5      1.14800E-04
  1107.5      1.14220E-04
  1112.5      1.13290E-04
  1117.5      1.12340E-04
  1122.5      1.11360E-04
  1127.5      1.10470E-04
  1132.5      1.09530E-04
  1137.5      1.08630E-04
  1142.5      1.07740E-04
  1147.5      1.06860E-04
  1152.5      1.05990E-04
  1157.5      1.05120E-04
  1162.5      1.04150E-04
  1167.5      1.03370E-04
  1172.5      1.02600E-04
  1177.5      1.01780E-04
  1182.5      1.00960E-04
  1187.5      1.00160E-04
  1192.5      9.93650E-05
  1197.5      9.79270E-05
  1202.5      9.78070E-05
  1207.5      9.70400E-05
  1212.5      9.62800E-05
  1217.5      9.55360E-05
  1222.5      9.47960E-05
  1227.5      9.40660E-05
  1232.5      9.33420E-05
  1237.5      9.26270E-05
  1242.5      9.19230E-05
  1247.5      9.12200E-05
  1252.5      9.03990E-05
  1257.5      8.98460E-05
  1262.5      8.91720E-05
  1267.5      8.85090E-05
  1272.5      8.78480E-05
  1277.5      8.61810E-05
  1282.5      8.17780E-05
  1287.5      8.56360E-05
  1292.5      8.52820E-05
  1297.5      8.42670E-05
  1302.5      8.40300E-05
  1307.5      8.34300E-05
  1312.5      8.28260E-05
  1317.5      8.22290E-05
  1322.5      8.16370E-05
  1327.5      8.10520E-05
  1332.5      8.04730E-05
  1337.5      7.98930E-05
  1342.5      7.92820E-05
  1347.5      7.87720E-05
  1352.5      7.82110E-05
  1357.5      7.76690E-05
  1362.5      7.71130E-05
  1367.5      7.65900E-05
  1372.5      7.60450E-05
  1377.5      7.55320E-05
  1382.5      7.50110E-05
  1387.5      7.44960E-05
  1392.5      7.39790E-05
  1397.5      7.34800E-05
