 Castelli and Kurucz 2004-2012 Atmosphere
 T     48000.     G    4.50000 [0.5a] VTURB=2  L/H=1.25 NOVER NEW ODF          
 Wavelength  Eddington Hnu
   (nm)    (ergs/s/cm2/Hz/sr)
  9.0900      6.85450E-21
  9.3500      2.13490E-20
  9.6100      6.06590E-20
  9.7700      1.17030E-19
  9.9600      2.41770E-19
  10.200      5.83040E-19
  10.380      1.10030E-18
  10.560      2.03440E-18
  10.770      4.06610E-18
  11.040      9.54380E-18
  11.400      2.80460E-17
  11.780      8.06890E-17
  12.130      2.06750E-16
  12.480      4.93540E-16
  12.710      8.63660E-16
  12.840      1.44220E-15
  13.050      2.36360E-15
  13.240      3.58010E-15
  13.390      4.99140E-15
  13.660      8.91940E-15
  13.980      1.70610E-14
  14.330      3.28110E-14
  14.720      6.14510E-14
  15.100      1.26330E-13
  15.520      2.51760E-13
  15.880      4.71720E-13
  16.200      2.16060E-12
  16.600      3.97610E-12
  17.030      6.70640E-12
  17.340      9.85310E-12
  17.680      1.71410E-11
  18.020      2.69360E-11
  18.170      3.26950E-11
  18.610      6.42710E-11
  19.100      1.10660E-10
  19.390      1.77200E-10
  19.840      3.23760E-10
  20.180      3.79700E-10
  20.500      5.96960E-10
  21.050      9.64820E-10
  21.620      1.54540E-09
  21.980      2.15710E-09
  22.300      2.57930E-09
  22.680      3.65990E-09
  23.000      9.91130E-08
  23.400      2.61630E-07
  24.000      3.19180E-07
  24.650      8.05460E-07
  25.240      5.71820E-06
  25.680      2.53760E-05
  26.000      1.37310E-05
  26.400      6.28980E-05
  26.850      7.19800E-05
  27.350      9.36870E-05
  27.850      4.66480E-05
  28.400      1.14850E-04
  29.000      2.30990E-04
  29.600      2.01460E-04
  30.100      1.57700E-04
  30.800      1.68740E-04
  31.800      2.18130E-05
  32.800      3.26780E-05
  33.800      2.63370E-05
  34.800      3.16090E-05
  35.700      7.58320E-05
  36.600      2.27070E-04
  37.500      3.78260E-04
  38.500      3.35700E-04
  39.500      7.05250E-04
  40.500      1.61170E-03
  41.400      1.47150E-03
  42.200      1.26710E-03
  43.000      1.30950E-03
  44.100      1.78780E-03
  45.100      1.81530E-03
  46.000      1.30120E-03
  47.000      1.66670E-03
  48.000      2.17800E-03
  49.000      1.60850E-03
  50.000      3.49150E-03
  50.600      2.70650E-03
  51.200      3.37630E-03
  52.000      3.27060E-03
  53.000      3.23430E-03
  54.000      2.24570E-03
  55.000      1.37910E-03
  56.000      2.07620E-03
  57.000      3.71800E-03
  58.000      4.15070E-03
  59.000      4.17630E-03
  60.000      3.05610E-03
  61.000      1.90480E-03
  62.000      3.13340E-03
  63.000      2.39980E-03
  64.000      4.04100E-03
  65.000      3.68760E-03
  65.800      2.95400E-03
  66.500      4.20980E-03
  67.500      4.30660E-03
  68.500      3.65020E-03
  69.500      4.33710E-03
  70.500      3.44280E-03
  71.600      4.09540E-03
  72.600      4.50270E-03
  73.500      4.44030E-03
  74.500      4.09160E-03
  75.500      3.80840E-03
  76.500      3.18490E-03
  77.500      4.01580E-03
  78.500      2.87370E-03
  79.500      3.82320E-03
  80.500      4.29310E-03
  81.500      4.22570E-03
  82.500      4.32840E-03
  83.500      3.73370E-03
  84.500      4.16870E-03
  85.500      3.61840E-03
  86.500      4.23380E-03
  87.500      4.35830E-03
  88.500      4.16790E-03
  89.500      4.08990E-03
  90.500      3.98010E-03
  91.500      3.02680E-03
  92.500      4.30080E-03
  93.500      4.97060E-03
  94.500      5.29930E-03
  95.500      6.55660E-03
  96.500      6.52090E-03
  97.500      5.59280E-03
  98.500      6.04860E-03
  99.500      5.30390E-03
  100.50      5.35790E-03
  101.50      5.53000E-03
  102.50      5.65270E-03
  103.50      6.03560E-03
  104.50      6.46470E-03
  105.50      6.40680E-03
  106.50      6.11510E-03
  107.50      6.56090E-03
  108.50      5.96630E-03
  109.50      6.37370E-03
  110.50      6.38160E-03
  111.50      6.41400E-03
  112.50      6.31750E-03
  113.50      6.52990E-03
  114.50      6.60420E-03
  115.50      6.37100E-03
  116.50      5.93420E-03
  117.50      5.70420E-03
  118.50      6.13370E-03
  119.50      5.57490E-03
  120.50      5.63430E-03
  121.50      5.05350E-03
  122.50      5.50400E-03
  123.50      5.17540E-03
  124.50      4.97910E-03
  125.50      5.43960E-03
  126.50      5.50520E-03
  127.50      5.53730E-03
  128.50      5.52830E-03
  129.50      5.59410E-03
  130.50      5.47950E-03
  131.50      5.42540E-03
  132.50      5.33150E-03
  133.50      5.25430E-03
  134.50      5.18010E-03
  135.50      5.03130E-03
  136.50      4.74150E-03
  137.50      4.45540E-03
  138.50      4.77720E-03
  139.50      4.66440E-03
  140.50      4.40370E-03
  141.50      5.10440E-03
  142.50      4.86900E-03
  143.50      5.07300E-03
  144.20      4.71930E-03
  144.70      4.76580E-03
  145.50      4.69160E-03
  146.50      4.66860E-03
  147.50      4.77280E-03
  148.50      4.83440E-03
  149.50      4.71020E-03
  150.50      4.61810E-03
  151.20      4.60780E-03
  151.70      4.49680E-03
  152.50      4.61320E-03
  153.50      4.36800E-03
  154.50      3.73180E-03
  155.50      3.85310E-03
  156.50      4.32040E-03
  157.50      4.45160E-03
  158.50      4.34380E-03
  159.50      4.50050E-03
  160.50      4.36850E-03
  161.50      4.33030E-03
  162.50      4.43010E-03
  163.50      4.48350E-03
  164.50      4.27170E-03
  165.50      4.42680E-03
  166.50      4.35640E-03
  167.20      4.24760E-03
  167.70      4.48680E-03
  168.50      4.47750E-03
  169.50      4.53040E-03
  170.50      4.34160E-03
  171.50      4.17340E-03
  172.50      4.13820E-03
  173.50      4.36940E-03
  174.50      4.35250E-03
  175.50      4.33770E-03
  176.50      4.23570E-03
  177.50      4.17950E-03
  178.50      4.20230E-03
  179.50      4.11880E-03
  180.50      4.10970E-03
  181.50      3.97200E-03
  182.50      4.00920E-03
  183.50      4.00270E-03
  184.50      4.03940E-03
  185.50      4.01450E-03
  186.50      4.05060E-03
  187.50      3.97720E-03
  188.50      3.93750E-03
  189.50      3.96720E-03
  190.50      3.95690E-03
  191.50      3.94830E-03
  192.50      3.77670E-03
  193.50      3.88500E-03
  194.50      3.87830E-03
  195.50      3.81190E-03
  196.70      3.80320E-03
  197.60      3.71490E-03
  198.40      3.79130E-03
  199.50      3.73650E-03
  200.50      3.74120E-03
  201.50      3.72840E-03
  202.50      3.71840E-03
  203.50      3.63730E-03
  204.50      3.61110E-03
  205.50      2.73780E-03
  206.50      2.66240E-03
  207.40      2.77290E-03
  207.80      2.86340E-03
  208.50      3.10460E-03
  209.50      3.41270E-03
  210.50      3.41150E-03
  211.50      3.44240E-03
  212.50      3.39650E-03
  213.50      3.42360E-03
  214.50      3.38060E-03
  215.50      3.36370E-03
  216.50      3.20480E-03
  217.50      3.33730E-03
  218.50      3.25480E-03
  219.50      3.31830E-03
  220.50      3.28690E-03
  221.50      3.16730E-03
  222.50      3.26580E-03
  223.50      3.23950E-03
  224.50      3.22330E-03
  225.50      3.11880E-03
  226.50      3.16090E-03
  227.50      3.18740E-03
  228.50      3.09830E-03
  229.50      3.06360E-03
  230.50      3.00480E-03
  231.50      3.02000E-03
  232.50      3.06180E-03
  233.50      3.04360E-03
  234.50      2.99500E-03
  235.50      2.94470E-03
  236.50      2.91720E-03
  237.50      2.87980E-03
  238.50      2.75410E-03
  239.50      2.83520E-03
  240.50      2.80020E-03
  241.50      2.79230E-03
  242.50      2.82880E-03
  243.50      2.79090E-03
  244.50      2.77710E-03
  245.50      2.71970E-03
  246.50      2.72730E-03
  247.50      2.76230E-03
  248.50      2.70020E-03
  249.50      2.44970E-03
  250.50      2.69080E-03
  251.30      2.51930E-03
  251.80      2.60060E-03
  252.50      2.62390E-03
  253.50      2.64710E-03
  254.50      2.65040E-03
  255.50      2.63590E-03
  256.50      2.62610E-03
  257.50      2.59380E-03
  258.50      2.58040E-03
  259.50      2.48560E-03
  260.50      2.56100E-03
  261.50      2.47920E-03
  262.50      2.53710E-03
  263.50      2.52510E-03
  264.50      2.47890E-03
  265.50      2.48740E-03
  266.50      2.47890E-03
  267.50      2.42160E-03
  268.50      2.43580E-03
  269.50      2.41370E-03
  270.50      2.43440E-03
  271.50      2.41810E-03
  272.50      2.39420E-03
  273.50      2.31910E-03
  274.50      2.37330E-03
  275.50      2.33440E-03
  276.50      2.33940E-03
  277.50      2.31060E-03
  278.50      2.24920E-03
  279.50      2.25490E-03
  280.50      2.25970E-03
  281.50      2.24610E-03
  282.50      2.21880E-03
  283.50      2.23110E-03
  284.50      2.22300E-03
  285.50      2.20190E-03
  286.50      2.13490E-03
  287.50      2.10410E-03
  288.50      2.14410E-03
  289.50      2.12170E-03
  291.00      2.12690E-03
  293.00      2.12310E-03
  295.00      2.09800E-03
  297.00      2.07080E-03
  299.00      2.03510E-03
  301.00      2.01330E-03
  303.00      1.97210E-03
  305.00      1.96550E-03
  307.00      1.90280E-03
  309.00      1.92840E-03
  311.00      1.90750E-03
  313.00      1.88600E-03
  315.00      1.87830E-03
  317.00      1.85770E-03
  319.00      1.83990E-03
  321.00      1.78220E-03
  323.00      1.81190E-03
  325.00      1.79330E-03
  327.00      1.75230E-03
  329.00      1.74940E-03
  331.00      1.72960E-03
  333.00      1.70630E-03
  335.00      1.66580E-03
  337.00      1.66470E-03
  339.00      1.63590E-03
  341.00      1.61960E-03
  343.00      1.63010E-03
  345.00      1.59270E-03
  347.00      1.59120E-03
  349.00      1.57540E-03
  351.00      1.57180E-03
  353.00      1.54560E-03
  355.00      1.53640E-03
  357.00      1.51570E-03
  359.00      1.50720E-03
  361.00      1.49440E-03
  363.00      1.47240E-03
  364.00      1.44550E-03
  365.00      1.29440E-03
  367.00      1.28480E-03
  369.00      1.27670E-03
  371.00      1.27150E-03
  373.00      1.29000E-03
  375.00      1.31800E-03
  377.00      1.33750E-03
  379.00      1.36480E-03
  381.00      1.37820E-03
  383.00      1.32830E-03
  385.00      1.37830E-03
  387.00      1.37030E-03
  389.00      1.28470E-03
  391.00      1.35670E-03
  393.00      1.32890E-03
  395.00      1.32350E-03
  397.00      1.22590E-03
  399.00      1.31070E-03
  401.00      1.30060E-03
  403.00      1.26900E-03
  405.00      1.27790E-03
  407.00      1.26520E-03
  409.00      1.22610E-03
  411.00      1.16830E-03
  413.00      1.22940E-03
  415.00      1.22530E-03
  417.00      1.21520E-03
  419.00      1.20300E-03
  421.00      1.17600E-03
  423.00      1.18870E-03
  425.00      1.17750E-03
  427.00      1.16870E-03
  429.00      1.15860E-03
  431.00      1.14370E-03
  433.00      1.10560E-03
  435.00      1.06440E-03
  437.00      1.11050E-03
  439.00      1.09640E-03
  441.00      1.08350E-03
  443.00      1.08610E-03
  445.00      1.07360E-03
  447.00      1.06780E-03
  449.00      1.06200E-03
  451.00      1.05090E-03
  453.00      1.04110E-03
  455.00      1.01620E-03
  457.00      1.02640E-03
  459.00      1.01860E-03
  461.00      1.01280E-03
  463.00      9.94810E-04
  465.00      9.74490E-04
  467.00      9.84160E-04
  469.00      9.46800E-04
  471.00      9.75380E-04
  473.00      9.70830E-04
  475.00      9.63670E-04
  477.00      9.55930E-04
  479.00      9.41000E-04
  481.00      9.40160E-04
  483.00      9.33910E-04
  485.00      9.14630E-04
  487.00      8.64220E-04
  489.00      9.12410E-04
  491.00      9.05910E-04
  493.00      9.01020E-04
  495.00      8.94770E-04
  497.00      8.88030E-04
  499.00      8.82670E-04
  501.00      8.73680E-04
  503.00      8.68540E-04
  505.00      8.60160E-04
  507.00      8.56040E-04
  509.00      8.50990E-04
  511.00      8.42200E-04
  513.00      8.34560E-04
  515.00      8.31190E-04
  517.00      8.28230E-04
  519.00      8.22050E-04
  521.00      8.14350E-04
  523.00      8.10530E-04
  525.00      8.02810E-04
  527.00      7.96880E-04
  529.00      7.93770E-04
  531.00      7.87870E-04
  533.00      7.82550E-04
  535.00      7.78010E-04
  537.00      7.71580E-04
  539.00      7.66870E-04
  541.00      7.46750E-04
  543.00      7.57010E-04
  545.00      7.51870E-04
  547.00      7.45750E-04
  549.00      7.41510E-04
  551.00      7.34700E-04
  553.00      7.31840E-04
  555.00      7.27160E-04
  557.00      7.20090E-04
  559.00      7.12570E-04
  561.00      7.12640E-04
  563.00      7.07820E-04
  565.00      7.03100E-04
  567.00      6.98220E-04
  569.00      6.81680E-04
  571.00      6.35250E-04
  573.00      6.31380E-04
  575.00      6.26980E-04
  577.00      6.24340E-04
  579.00      6.21370E-04
  581.00      6.11190E-04
  583.00      6.17900E-04
  585.00      6.18100E-04
  587.00      6.16490E-04
  589.00      6.18700E-04
  591.00      6.19580E-04
  593.00      6.21100E-04
  595.00      6.23810E-04
  597.00      6.25660E-04
  599.00      6.27200E-04
  601.00      6.24930E-04
  603.00      6.22580E-04
  605.00      6.19100E-04
  607.00      6.15200E-04
  609.00      6.12500E-04
  611.00      6.07820E-04
  613.00      6.04200E-04
  615.00      6.01730E-04
  617.00      5.95860E-04
  619.00      5.95120E-04
  621.00      5.91530E-04
  623.00      5.84820E-04
  625.00      5.83880E-04
  627.00      5.80870E-04
  629.00      5.77900E-04
  631.00      5.69900E-04
  633.00      5.70910E-04
  635.00      5.67600E-04
  637.00      5.64540E-04
  639.00      5.60020E-04
  641.00      5.52380E-04
  643.00      5.54720E-04
  645.00      5.51160E-04
  647.00      5.47840E-04
  649.00      5.45130E-04
  651.00      5.40820E-04
  653.00      5.31940E-04
  655.00      5.30320E-04
  657.00      4.95290E-04
  659.00      5.28870E-04
  661.00      5.26890E-04
  663.00      5.23910E-04
  665.00      5.20930E-04
  667.00      5.15610E-04
  669.00      5.07170E-04
  671.00      5.10670E-04
  673.00      5.09050E-04
  675.00      5.06210E-04
  677.00      5.03410E-04
  679.00      5.00940E-04
  681.00      4.98100E-04
  683.00      4.95440E-04
  685.00      4.92570E-04
  687.00      4.89830E-04
  689.00      4.79200E-04
  691.00      4.84300E-04
  693.00      4.82100E-04
  695.00      4.79410E-04
  697.00      4.76830E-04
  699.00      4.74180E-04
  701.00      4.70980E-04
  703.00      4.67700E-04
  705.00      4.64870E-04
  707.00      4.63100E-04
  709.00      4.61580E-04
  711.00      4.57520E-04
  713.00      4.55420E-04
  715.00      4.54280E-04
  717.00      4.45940E-04
  719.00      4.46390E-04
  721.00      4.46350E-04
  723.00      4.44850E-04
  725.00      4.42710E-04
  727.00      4.40430E-04
  729.00      4.38040E-04
  731.00      4.34750E-04
  733.00      4.33360E-04
  735.00      4.31440E-04
  737.00      4.28550E-04
  739.00      4.25870E-04
  741.00      4.24180E-04
  743.00      4.22630E-04
  745.00      4.19430E-04
  747.00      4.18120E-04
  749.00      4.15420E-04
  751.00      4.13530E-04
  753.00      4.11950E-04
  755.00      4.09790E-04
  757.00      4.07660E-04
  759.00      3.97980E-04
  761.00      4.02870E-04
  763.00      4.01600E-04
  765.00      3.99550E-04
  767.00      3.96880E-04
  769.00      3.94430E-04
  771.00      3.92070E-04
  773.00      3.90330E-04
  775.00      3.89450E-04
  777.00      3.88260E-04
  779.00      3.86010E-04
  781.00      3.84470E-04
  783.00      3.82500E-04
  785.00      3.78830E-04
  787.00      3.78160E-04
  789.00      3.76760E-04
  791.00      3.75260E-04
  793.00      3.73600E-04
  795.00      3.71470E-04
  797.00      3.68810E-04
  799.00      3.68250E-04
  801.00      3.66440E-04
  803.00      3.64360E-04
  805.00      3.62900E-04
  807.00      3.61350E-04
  809.00      3.59640E-04
  811.00      3.57980E-04
  813.00      3.56310E-04
  815.00      3.54650E-04
  817.00      3.52130E-04
  819.00      3.49330E-04
  821.00      3.30650E-04
  823.00      3.26540E-04
  825.00      3.27230E-04
  827.00      3.26290E-04
  829.00      3.24930E-04
  831.00      3.23570E-04
  833.00      3.21300E-04
  835.00      3.20630E-04
  837.00      3.19430E-04
  839.00      3.18320E-04
  841.00      3.17410E-04
  843.00      3.16420E-04
  845.00      3.15450E-04
  847.00      3.14550E-04
  849.00      3.13880E-04
  851.00      3.12650E-04
  853.00      3.12480E-04
  855.00      3.11210E-04
  857.00      3.10860E-04
  859.00      3.09980E-04
  861.00      3.09210E-04
  863.00      3.09860E-04
  865.00      3.08860E-04
  867.00      3.04900E-04
  869.00      3.08480E-04
  871.00      3.08510E-04
  873.00      3.07600E-04
  875.00      3.00690E-04
  877.00      3.05560E-04
  879.00      3.06770E-04
  881.00      3.06340E-04
  883.00      3.05330E-04
  885.00      3.00390E-04
  887.00      2.92020E-04
  889.00      3.00840E-04
  891.00      3.00660E-04
  893.00      2.98930E-04
  895.00      2.98370E-04
  897.00      2.97360E-04
  899.00      2.94870E-04
  901.00      2.81890E-04
  903.00      2.86850E-04
  905.00      2.91750E-04
  907.00      2.91370E-04
  909.00      2.90160E-04
  911.00      2.88050E-04
  913.00      2.87680E-04
  915.00      2.86720E-04
  917.00      2.85010E-04
  919.00      2.83690E-04
  921.00      2.80150E-04
  923.00      2.64130E-04
  925.00      2.76880E-04
  927.00      2.78890E-04
  929.00      2.78300E-04
  931.00      2.77180E-04
  933.00      2.75770E-04
  935.00      2.67940E-04
  937.00      2.71910E-04
  939.00      2.72350E-04
  941.00      2.71320E-04
  943.00      2.70390E-04
  945.00      2.69120E-04
  947.00      2.68260E-04
  949.00      2.66690E-04
  951.00      2.65500E-04
  953.00      2.61310E-04
  955.00      2.45890E-04
  957.00      2.60360E-04
  959.00      2.61550E-04
  961.00      2.60840E-04
  963.00      2.59510E-04
  965.00      2.58800E-04
  967.00      2.57790E-04
  969.00      2.56760E-04
  971.00      2.54460E-04
  973.00      2.54420E-04
  975.00      2.53210E-04
  977.00      2.50280E-04
  979.00      2.51700E-04
  981.00      2.50680E-04
  983.00      2.49350E-04
  985.00      2.48770E-04
  987.00      2.47800E-04
  989.00      2.46830E-04
  991.00      2.45710E-04
  993.00      2.44920E-04
  995.00      2.43970E-04
  997.00      2.43020E-04
  999.00      2.42080E-04
  1002.5      2.36600E-04
  1007.5      2.31890E-04
  1012.5      2.30920E-04
  1017.5      2.33600E-04
  1022.5      2.31330E-04
  1027.5      2.28840E-04
  1032.5      2.26800E-04
  1037.5      2.24920E-04
  1042.5      2.21390E-04
  1047.5      2.20860E-04
  1052.5      2.18800E-04
  1057.5      2.16820E-04
  1062.5      2.14860E-04
  1067.5      2.12900E-04
  1072.5      2.10990E-04
  1077.5      2.09090E-04
  1082.5      2.06940E-04
  1087.5      2.05280E-04
  1092.5      1.95900E-04
  1097.5      2.00310E-04
  1102.5      1.99980E-04
  1107.5      1.98240E-04
  1112.5      1.96510E-04
  1117.5      1.94950E-04
  1122.5      1.93190E-04
  1127.5      1.91450E-04
  1132.5      1.89790E-04
  1137.5      1.88290E-04
  1142.5      1.86710E-04
  1147.5      1.85140E-04
  1152.5      1.83590E-04
  1157.5      1.81920E-04
  1162.5      1.78090E-04
  1167.5      1.77260E-04
  1172.5      1.77490E-04
  1177.5      1.76060E-04
  1182.5      1.74370E-04
  1187.5      1.73120E-04
  1192.5      1.71710E-04
  1197.5      1.70180E-04
  1202.5      1.68990E-04
  1207.5      1.67530E-04
  1212.5      1.66110E-04
  1217.5      1.64940E-04
  1222.5      1.63600E-04
  1227.5      1.62330E-04
  1232.5      1.61010E-04
  1237.5      1.59780E-04
  1242.5      1.58530E-04
  1247.5      1.57290E-04
  1252.5      1.56060E-04
  1257.5      1.54840E-04
  1262.5      1.53650E-04
  1267.5      1.52470E-04
  1272.5      1.51280E-04
  1277.5      1.49690E-04
  1282.5      1.42600E-04
  1287.5      1.47650E-04
  1292.5      1.46750E-04
  1297.5      1.45640E-04
  1302.5      1.44550E-04
  1307.5      1.43470E-04
  1312.5      1.42400E-04
  1317.5      1.41330E-04
  1322.5      1.40300E-04
  1327.5      1.39270E-04
  1332.5      1.38240E-04
  1337.5      1.37220E-04
  1342.5      1.36200E-04
  1347.5      1.35240E-04
  1352.5      1.34260E-04
  1357.5      1.33300E-04
  1362.5      1.32340E-04
  1367.5      1.31390E-04
  1372.5      1.30440E-04
  1377.5      1.29510E-04
  1382.5      1.28610E-04
  1387.5      1.27690E-04
  1392.5      1.26800E-04
  1397.5      1.25910E-04
