 Castelli and Kurucz 2004-2012 Atmosphere
 T     50000.     G    5.00000 [0.5a] VTURB=2  L/H=1.25 NOVER NEW ODF          
 Wavelength  Eddington Hnu
   (nm)    (ergs/s/cm2/Hz/sr)
  9.0900      1.33210E-19
  9.3500      3.85640E-19
  9.6100      1.02430E-18
  9.7700      1.89560E-18
  9.9600      3.73860E-18
  10.200      8.52350E-18
  10.380      1.54490E-17
  10.560      2.74720E-17
  10.770      5.25520E-17
  11.040      1.16890E-16
  11.400      3.21120E-16
  11.780      8.65660E-16
  12.130      2.09260E-15
  12.480      4.73480E-15
  12.710      7.99330E-15
  12.840      1.20200E-14
  13.050      1.89430E-14
  13.240      2.79340E-14
  13.390      3.81050E-14
  13.660      6.50320E-14
  13.980      1.19600E-13
  14.330      2.20530E-13
  14.720      3.97790E-13
  15.100      7.83770E-13
  15.520      1.49750E-12
  15.880      2.70360E-12
  16.200      8.86390E-12
  16.600      1.56020E-11
  17.030      2.54750E-11
  17.340      3.65290E-11
  17.680      6.03940E-11
  18.020      9.14810E-11
  18.170      1.10600E-10
  18.610      2.00520E-10
  19.100      3.28480E-10
  19.390      4.96580E-10
  19.840      8.43640E-10
  20.180      1.00740E-09
  20.500      1.48260E-09
  21.050      2.30150E-09
  21.620      3.52430E-09
  21.980      4.77980E-09
  22.300      5.68650E-09
  22.680      8.01740E-09
  23.000      2.08540E-07
  23.400      6.39800E-07
  24.000      7.97810E-07
  24.650      1.77080E-06
  25.240      1.07120E-05
  25.680      4.71810E-05
  26.000      2.42390E-05
  26.400      1.08510E-04
  26.850      1.31080E-04
  27.350      1.70790E-04
  27.850      9.45450E-05
  28.400      2.11410E-04
  29.000      3.79450E-04
  29.600      3.24780E-04
  30.100      2.55000E-04
  30.800      2.88440E-04
  31.800      3.73140E-05
  32.800      5.61000E-05
  33.800      4.35640E-05
  34.800      5.11990E-05
  35.700      1.24780E-04
  36.600      3.49250E-04
  37.500      5.87750E-04
  38.500      5.49590E-04
  39.500      1.07820E-03
  40.500      2.32100E-03
  41.400      2.07890E-03
  42.200      1.83120E-03
  43.000      1.79260E-03
  44.100      2.33300E-03
  45.100      2.42560E-03
  46.000      1.74140E-03
  47.000      2.24550E-03
  48.000      2.86170E-03
  49.000      2.09930E-03
  50.000      4.15380E-03
  50.600      3.30830E-03
  51.200      4.16200E-03
  52.000      4.00070E-03
  53.000      3.88020E-03
  54.000      2.85270E-03
  55.000      1.98770E-03
  56.000      2.86370E-03
  57.000      4.39520E-03
  58.000      4.74190E-03
  59.000      4.77030E-03
  60.000      3.66760E-03
  61.000      2.55960E-03
  62.000      3.85160E-03
  63.000      3.11760E-03
  64.000      4.65660E-03
  65.000      4.21280E-03
  65.800      3.45270E-03
  66.500      4.69730E-03
  67.500      4.80000E-03
  68.500      4.14740E-03
  69.500      4.84090E-03
  70.500      3.94490E-03
  71.600      4.63100E-03
  72.600      5.01020E-03
  73.500      4.94220E-03
  74.500      4.59910E-03
  75.500      4.36440E-03
  76.500      3.81140E-03
  77.500      4.53240E-03
  78.500      3.46960E-03
  79.500      4.33390E-03
  80.500      4.72440E-03
  81.500      4.66300E-03
  82.500      4.77420E-03
  83.500      4.15710E-03
  84.500      4.61180E-03
  85.500      4.11440E-03
  86.500      4.66190E-03
  87.500      4.76250E-03
  88.500      4.58390E-03
  89.500      4.51910E-03
  90.500      4.39260E-03
  91.500      3.20940E-03
  92.500      4.66540E-03
  93.500      5.53670E-03
  94.500      6.18660E-03
  95.500      7.66970E-03
  96.500      7.84830E-03
  97.500      6.41280E-03
  98.500      7.11550E-03
  99.500      6.23680E-03
  100.50      6.33290E-03
  101.50      6.52760E-03
  102.50      6.48210E-03
  103.50      7.07620E-03
  104.50      7.67820E-03
  105.50      7.57030E-03
  106.50      7.02150E-03
  107.50      7.71710E-03
  108.50      6.73760E-03
  109.50      7.51640E-03
  110.50      7.45940E-03
  111.50      7.49640E-03
  112.50      7.35100E-03
  113.50      7.62120E-03
  114.50      7.70770E-03
  115.50      7.34250E-03
  116.50      6.67470E-03
  117.50      6.51810E-03
  118.50      7.05390E-03
  119.50      6.40720E-03
  120.50      6.42060E-03
  121.50      5.53760E-03
  122.50      6.27860E-03
  123.50      5.94770E-03
  124.50      5.73040E-03
  125.50      6.24590E-03
  126.50      6.31140E-03
  127.50      6.35730E-03
  128.50      6.36480E-03
  129.50      6.42540E-03
  130.50      6.28650E-03
  131.50      6.22010E-03
  132.50      6.12830E-03
  133.50      6.04360E-03
  134.50      5.90270E-03
  135.50      5.77460E-03
  136.50      5.45300E-03
  137.50      5.13190E-03
  138.50      5.45250E-03
  139.50      5.30360E-03
  140.50      5.02760E-03
  141.50      5.80020E-03
  142.50      5.50340E-03
  143.50      5.75380E-03
  144.20      5.35730E-03
  144.70      5.40440E-03
  145.50      5.32380E-03
  146.50      5.28730E-03
  147.50      5.39380E-03
  148.50      5.46260E-03
  149.50      5.31690E-03
  150.50      5.20410E-03
  151.20      5.18750E-03
  151.70      5.07460E-03
  152.50      5.19070E-03
  153.50      4.89420E-03
  154.50      4.19970E-03
  155.50      4.32260E-03
  156.50      4.81670E-03
  157.50      4.94890E-03
  158.50      4.80580E-03
  159.50      4.99800E-03
  160.50      4.83950E-03
  161.50      4.79070E-03
  162.50      4.90360E-03
  163.50      4.91900E-03
  164.50      4.70140E-03
  165.50      4.88360E-03
  166.50      4.78820E-03
  167.20      4.67630E-03
  167.70      4.95790E-03
  168.50      4.94160E-03
  169.50      4.98330E-03
  170.50      4.78960E-03
  171.50      4.61660E-03
  172.50      4.55800E-03
  173.50      4.78690E-03
  174.50      4.77150E-03
  175.50      4.74960E-03
  176.50      4.63180E-03
  177.50      4.57220E-03
  178.50      4.61250E-03
  179.50      4.51200E-03
  180.50      4.49080E-03
  181.50      4.36520E-03
  182.50      4.38710E-03
  183.50      4.37060E-03
  184.50      4.39680E-03
  185.50      4.37390E-03
  186.50      4.41060E-03
  187.50      4.31360E-03
  188.50      4.26750E-03
  189.50      4.30660E-03
  190.50      4.28580E-03
  191.50      4.27190E-03
  192.50      4.07550E-03
  193.50      4.20940E-03
  194.50      4.20580E-03
  195.50      4.11930E-03
  196.70      4.11380E-03
  197.60      4.01310E-03
  198.40      4.09450E-03
  199.50      4.03520E-03
  200.50      4.04290E-03
  201.50      4.02470E-03
  202.50      4.01330E-03
  203.50      3.92900E-03
  204.50      3.89710E-03
  205.50      2.89200E-03
  206.50      2.78540E-03
  207.40      2.85880E-03
  207.80      2.92860E-03
  208.50      3.11650E-03
  209.50      3.47940E-03
  210.50      3.65040E-03
  211.50      3.71320E-03
  212.50      3.65420E-03
  213.50      3.68350E-03
  214.50      3.64180E-03
  215.50      3.61710E-03
  216.50      3.42100E-03
  217.50      3.60180E-03
  218.50      3.46820E-03
  219.50      3.58200E-03
  220.50      3.54620E-03
  221.50      3.37010E-03
  222.50      3.52330E-03
  223.50      3.49460E-03
  224.50      3.47410E-03
  225.50      3.31650E-03
  226.50      3.40310E-03
  227.50      3.43210E-03
  228.50      3.32260E-03
  229.50      3.29780E-03
  230.50      3.19800E-03
  231.50      3.24490E-03
  232.50      3.28790E-03
  233.50      3.27480E-03
  234.50      3.22060E-03
  235.50      3.16270E-03
  236.50      3.13130E-03
  237.50      3.08300E-03
  238.50      2.91690E-03
  239.50      3.03390E-03
  240.50      3.00000E-03
  241.50      2.99130E-03
  242.50      3.03260E-03
  243.50      2.98910E-03
  244.50      2.97190E-03
  245.50      2.90740E-03
  246.50      2.92620E-03
  247.50      2.96070E-03
  248.50      2.89610E-03
  249.50      2.63020E-03
  250.50      2.87080E-03
  251.30      2.64390E-03
  251.80      2.76310E-03
  252.50      2.79070E-03
  253.50      2.82780E-03
  254.50      2.82670E-03
  255.50      2.81240E-03
  256.50      2.79950E-03
  257.50      2.76800E-03
  258.50      2.75140E-03
  259.50      2.64770E-03
  260.50      2.72800E-03
  261.50      2.64050E-03
  262.50      2.70110E-03
  263.50      2.68860E-03
  264.50      2.63730E-03
  265.50      2.64940E-03
  266.50      2.63420E-03
  267.50      2.57010E-03
  268.50      2.58570E-03
  269.50      2.56080E-03
  270.50      2.58770E-03
  271.50      2.56740E-03
  272.50      2.53890E-03
  273.50      2.44010E-03
  274.50      2.52060E-03
  275.50      2.48070E-03
  276.50      2.48490E-03
  277.50      2.45500E-03
  278.50      2.39140E-03
  279.50      2.39230E-03
  280.50      2.39980E-03
  281.50      2.38650E-03
  282.50      2.35440E-03
  283.50      2.37000E-03
  284.50      2.36150E-03
  285.50      2.34110E-03
  286.50      2.27840E-03
  287.50      2.24980E-03
  288.50      2.28410E-03
  289.50      2.25380E-03
  291.00      2.25630E-03
  293.00      2.24950E-03
  295.00      2.22330E-03
  297.00      2.19160E-03
  299.00      2.15150E-03
  301.00      2.12760E-03
  303.00      2.08330E-03
  305.00      2.07770E-03
  307.00      2.01490E-03
  309.00      2.03650E-03
  311.00      2.01680E-03
  313.00      1.99220E-03
  315.00      1.98370E-03
  317.00      1.95980E-03
  319.00      1.94140E-03
  321.00      1.87170E-03
  323.00      1.90870E-03
  325.00      1.88970E-03
  327.00      1.84460E-03
  329.00      1.84180E-03
  331.00      1.82070E-03
  333.00      1.79500E-03
  335.00      1.75190E-03
  337.00      1.75080E-03
  339.00      1.72060E-03
  341.00      1.70430E-03
  343.00      1.71480E-03
  345.00      1.67290E-03
  347.00      1.67320E-03
  349.00      1.65780E-03
  351.00      1.65290E-03
  353.00      1.62510E-03
  355.00      1.61430E-03
  357.00      1.59370E-03
  359.00      1.58460E-03
  361.00      1.56910E-03
  363.00      1.54710E-03
  364.00      1.51370E-03
  365.00      1.34910E-03
  367.00      1.33910E-03
  369.00      1.32750E-03
  371.00      1.31600E-03
  373.00      1.33190E-03
  375.00      1.35430E-03
  377.00      1.37460E-03
  379.00      1.41200E-03
  381.00      1.43630E-03
  383.00      1.37840E-03
  385.00      1.43790E-03
  387.00      1.43080E-03
  389.00      1.32090E-03
  391.00      1.42220E-03
  393.00      1.39730E-03
  395.00      1.38500E-03
  397.00      1.25840E-03
  399.00      1.37230E-03
  401.00      1.36420E-03
  403.00      1.32860E-03
  405.00      1.34310E-03
  407.00      1.32670E-03
  409.00      1.27270E-03
  411.00      1.20490E-03
  413.00      1.28990E-03
  415.00      1.28610E-03
  417.00      1.27670E-03
  419.00      1.25930E-03
  421.00      1.22890E-03
  423.00      1.24790E-03
  425.00      1.23590E-03
  427.00      1.22670E-03
  429.00      1.21530E-03
  431.00      1.19880E-03
  433.00      1.14600E-03
  435.00      1.09940E-03
  437.00      1.16450E-03
  439.00      1.14920E-03
  441.00      1.13750E-03
  443.00      1.13900E-03
  445.00      1.12420E-03
  447.00      1.11730E-03
  449.00      1.11230E-03
  451.00      1.09990E-03
  453.00      1.08840E-03
  455.00      1.05710E-03
  457.00      1.07420E-03
  459.00      1.06580E-03
  461.00      1.05970E-03
  463.00      1.03930E-03
  465.00      1.01570E-03
  467.00      1.02940E-03
  469.00      9.87650E-04
  471.00      1.02130E-03
  473.00      1.01670E-03
  475.00      1.00940E-03
  477.00      1.00090E-03
  479.00      9.85820E-04
  481.00      9.83830E-04
  483.00      9.75970E-04
  485.00      9.45880E-04
  487.00      8.89660E-04
  489.00      9.52330E-04
  491.00      9.46900E-04
  493.00      9.41630E-04
  495.00      9.35000E-04
  497.00      9.28300E-04
  499.00      9.22340E-04
  501.00      9.12100E-04
  503.00      9.06720E-04
  505.00      8.99270E-04
  507.00      8.94720E-04
  509.00      8.89140E-04
  511.00      8.80790E-04
  513.00      8.73150E-04
  515.00      8.68680E-04
  517.00      8.64400E-04
  519.00      8.58100E-04
  521.00      8.50240E-04
  523.00      8.45820E-04
  525.00      8.37870E-04
  527.00      8.31250E-04
  529.00      8.28170E-04
  531.00      8.21890E-04
  533.00      8.16350E-04
  535.00      8.11350E-04
  537.00      8.04810E-04
  539.00      7.99740E-04
  541.00      7.73670E-04
  543.00      7.88700E-04
  545.00      7.83750E-04
  547.00      7.77690E-04
  549.00      7.72930E-04
  551.00      7.65750E-04
  553.00      7.62620E-04
  555.00      7.57690E-04
  557.00      7.50850E-04
  559.00      7.42820E-04
  561.00      7.42500E-04
  563.00      7.37480E-04
  565.00      7.32430E-04
  567.00      7.27490E-04
  569.00      7.09650E-04
  571.00      6.58990E-04
  573.00      6.54980E-04
  575.00      6.50630E-04
  577.00      6.47410E-04
  579.00      6.43830E-04
  581.00      6.33340E-04
  583.00      6.38320E-04
  585.00      6.37440E-04
  587.00      6.34560E-04
  589.00      6.36610E-04
  591.00      6.36950E-04
  593.00      6.37790E-04
  595.00      6.39610E-04
  597.00      6.41500E-04
  599.00      6.43890E-04
  601.00      6.43890E-04
  603.00      6.44450E-04
  605.00      6.42560E-04
  607.00      6.39090E-04
  609.00      6.36060E-04
  611.00      6.32020E-04
  613.00      6.28320E-04
  615.00      6.25250E-04
  617.00      6.20030E-04
  619.00      6.18440E-04
  621.00      6.14900E-04
  623.00      6.08450E-04
  625.00      6.06610E-04
  627.00      6.03840E-04
  629.00      6.00400E-04
  631.00      5.92870E-04
  633.00      5.92980E-04
  635.00      5.89840E-04
  637.00      5.86680E-04
  639.00      5.81680E-04
  641.00      5.74310E-04
  643.00      5.76090E-04
  645.00      5.72550E-04
  647.00      5.69080E-04
  649.00      5.66160E-04
  651.00      5.60910E-04
  653.00      5.52060E-04
  655.00      5.46930E-04
  657.00      5.08500E-04
  659.00      5.48050E-04
  661.00      5.47120E-04
  663.00      5.44040E-04
  665.00      5.40910E-04
  667.00      5.34340E-04
  669.00      5.25740E-04
  671.00      5.29840E-04
  673.00      5.28380E-04
  675.00      5.25410E-04
  677.00      5.22570E-04
  679.00      5.20000E-04
  681.00      5.17060E-04
  683.00      5.14220E-04
  685.00      5.11210E-04
  687.00      5.08170E-04
  689.00      4.96000E-04
  691.00      5.02110E-04
  693.00      5.00260E-04
  695.00      4.97440E-04
  697.00      4.94790E-04
  699.00      4.91920E-04
  701.00      4.88530E-04
  703.00      4.85240E-04
  705.00      4.82330E-04
  707.00      4.80220E-04
  709.00      4.78910E-04
  711.00      4.75080E-04
  713.00      4.72660E-04
  715.00      4.71210E-04
  717.00      4.61600E-04
  719.00      4.61710E-04
  721.00      4.63200E-04
  723.00      4.61430E-04
  725.00      4.59080E-04
  727.00      4.56700E-04
  729.00      4.54170E-04
  731.00      4.50790E-04
  733.00      4.49450E-04
  735.00      4.47310E-04
  737.00      4.44280E-04
  739.00      4.41560E-04
  741.00      4.39720E-04
  743.00      4.38140E-04
  745.00      4.34760E-04
  747.00      4.33470E-04
  749.00      4.30430E-04
  751.00      4.28600E-04
  753.00      4.26960E-04
  755.00      4.24690E-04
  757.00      4.22320E-04
  759.00      4.10470E-04
  761.00      4.16890E-04
  763.00      4.16070E-04
  765.00      4.13980E-04
  767.00      4.11220E-04
  769.00      4.08400E-04
  771.00      4.06050E-04
  773.00      4.04020E-04
  775.00      4.03480E-04
  777.00      4.02230E-04
  779.00      3.99880E-04
  781.00      3.98260E-04
  783.00      3.96210E-04
  785.00      3.92380E-04
  787.00      3.91620E-04
  789.00      3.90200E-04
  791.00      3.88670E-04
  793.00      3.86930E-04
  795.00      3.84760E-04
  797.00      3.81920E-04
  799.00      3.81320E-04
  801.00      3.79490E-04
  803.00      3.77310E-04
  805.00      3.75890E-04
  807.00      3.74170E-04
  809.00      3.72400E-04
  811.00      3.70650E-04
  813.00      3.68910E-04
  815.00      3.67170E-04
  817.00      3.64530E-04
  819.00      3.61590E-04
  821.00      3.41960E-04
  823.00      3.37360E-04
  825.00      3.38120E-04
  827.00      3.37440E-04
  829.00      3.36040E-04
  831.00      3.34620E-04
  833.00      3.32240E-04
  835.00      3.31480E-04
  837.00      3.30190E-04
  839.00      3.28940E-04
  841.00      3.27790E-04
  843.00      3.26580E-04
  845.00      3.25370E-04
  847.00      3.24350E-04
  849.00      3.23450E-04
  851.00      3.22180E-04
  853.00      3.21690E-04
  855.00      3.20570E-04
  857.00      3.19740E-04
  859.00      3.19020E-04
  861.00      3.18270E-04
  863.00      3.18290E-04
  865.00      3.17250E-04
  867.00      3.14450E-04
  869.00      3.16490E-04
  871.00      3.16360E-04
  873.00      3.15300E-04
  875.00      3.10750E-04
  877.00      3.13510E-04
  879.00      3.14660E-04
  881.00      3.14500E-04
  883.00      3.13600E-04
  885.00      3.08940E-04
  887.00      3.02890E-04
  889.00      3.09530E-04
  891.00      3.10080E-04
  893.00      3.08960E-04
  895.00      3.08020E-04
  897.00      3.06860E-04
  899.00      3.03800E-04
  901.00      2.91960E-04
  903.00      2.95470E-04
  905.00      3.00870E-04
  907.00      3.00680E-04
  909.00      2.99700E-04
  911.00      2.98130E-04
  913.00      2.97450E-04
  915.00      2.96520E-04
  917.00      2.94430E-04
  919.00      2.92730E-04
  921.00      2.88080E-04
  923.00      2.72700E-04
  925.00      2.84510E-04
  927.00      2.87660E-04
  929.00      2.87380E-04
  931.00      2.86580E-04
  933.00      2.84670E-04
  935.00      2.75390E-04
  937.00      2.81390E-04
  939.00      2.81470E-04
  941.00      2.80540E-04
  943.00      2.79600E-04
  945.00      2.78330E-04
  947.00      2.77330E-04
  949.00      2.75460E-04
  951.00      2.73720E-04
  953.00      2.68060E-04
  955.00      2.52520E-04
  957.00      2.67370E-04
  959.00      2.69700E-04
  961.00      2.69490E-04
  963.00      2.68210E-04
  965.00      2.67560E-04
  967.00      2.66530E-04
  969.00      2.65460E-04
  971.00      2.62900E-04
  973.00      2.62990E-04
  975.00      2.61580E-04
  977.00      2.59130E-04
  979.00      2.60120E-04
  981.00      2.59140E-04
  983.00      2.57760E-04
  985.00      2.57160E-04
  987.00      2.56160E-04
  989.00      2.55130E-04
  991.00      2.53980E-04
  993.00      2.53160E-04
  995.00      2.52170E-04
  997.00      2.51190E-04
  999.00      2.50000E-04
  1002.5      2.43040E-04
  1007.5      2.38100E-04
  1012.5      2.38020E-04
  1017.5      2.41360E-04
  1022.5      2.39080E-04
  1027.5      2.36490E-04
  1032.5      2.34330E-04
  1037.5      2.32390E-04
  1042.5      2.28550E-04
  1047.5      2.28170E-04
  1052.5      2.26040E-04
  1057.5      2.23980E-04
  1062.5      2.21940E-04
  1067.5      2.19910E-04
  1072.5      2.17930E-04
  1077.5      2.15960E-04
  1082.5      2.13650E-04
  1087.5      2.11780E-04
  1092.5      2.00600E-04
  1097.5      2.05790E-04
  1102.5      2.06470E-04
  1107.5      2.04700E-04
  1112.5      2.02900E-04
  1117.5      2.01290E-04
  1122.5      1.99460E-04
  1127.5      1.97670E-04
  1132.5      1.95940E-04
  1137.5      1.94380E-04
  1142.5      1.92750E-04
  1147.5      1.91120E-04
  1152.5      1.89510E-04
  1157.5      1.87790E-04
  1162.5      1.83290E-04
  1167.5      1.82530E-04
  1172.5      1.83170E-04
  1177.5      1.81720E-04
  1182.5      1.79960E-04
  1187.5      1.78660E-04
  1192.5      1.77210E-04
  1197.5      1.75590E-04
  1202.5      1.74400E-04
  1207.5      1.72890E-04
  1212.5      1.71410E-04
  1217.5      1.70200E-04
  1222.5      1.68820E-04
  1227.5      1.67500E-04
  1232.5      1.66130E-04
  1237.5      1.64860E-04
  1242.5      1.63560E-04
  1247.5      1.62280E-04
  1252.5      1.61000E-04
  1257.5      1.59740E-04
  1262.5      1.58510E-04
  1267.5      1.57290E-04
  1272.5      1.56040E-04
  1277.5      1.53960E-04
  1282.5      1.45610E-04
  1287.5      1.52020E-04
  1292.5      1.51370E-04
  1297.5      1.50210E-04
  1302.5      1.49090E-04
  1307.5      1.47980E-04
  1312.5      1.46870E-04
  1317.5      1.45760E-04
  1322.5      1.44690E-04
  1327.5      1.43620E-04
  1332.5      1.42570E-04
  1337.5      1.41510E-04
  1342.5      1.40460E-04
  1347.5      1.39460E-04
  1352.5      1.38450E-04
  1357.5      1.37450E-04
  1362.5      1.36450E-04
  1367.5      1.35470E-04
  1372.5      1.34490E-04
  1377.5      1.33530E-04
  1382.5      1.32600E-04
  1387.5      1.31650E-04
  1392.5      1.30720E-04
  1397.5      1.29810E-04
