 Castelli and Kurucz 2004-2012 Atmosphere
 T     47000.     G    5.00000 [0.5a] VTURB=2  L/H=1.25 NOVER NEW ODF          
 Wavelength  Eddington Hnu
   (nm)    (ergs/s/cm2/Hz/sr)
  9.0900      5.03530E-21
  9.3500      1.56950E-20
  9.6100      4.48900E-20
  9.7700      8.64750E-20
  9.9600      1.78950E-19
  10.200      4.32330E-19
  10.380      8.17010E-19
  10.560      1.51230E-18
  10.770      3.02580E-18
  11.040      7.11070E-18
  11.400      2.09120E-17
  11.780      6.04820E-17
  12.130      1.54360E-16
  12.480      3.70620E-16
  12.710      6.44990E-16
  12.840      8.95010E-16
  13.050      1.43650E-15
  13.240      2.17080E-15
  13.390      3.01470E-15
  13.660      5.24980E-15
  13.980      1.00990E-14
  14.330      1.94090E-14
  14.720      3.71940E-14
  15.100      7.61630E-14
  15.520      1.51880E-13
  15.880      2.73820E-13
  16.200      6.20090E-13
  16.600      1.12840E-12
  17.030      1.95590E-12
  17.340      2.89730E-12
  17.680      4.77210E-12
  18.020      7.33240E-12
  18.170      8.93360E-12
  18.610      1.57740E-11
  19.100      2.66620E-11
  19.390      3.86830E-11
  19.840      6.38540E-11
  20.180      8.28510E-11
  20.500      1.17770E-10
  21.050      1.90620E-10
  21.620      3.01300E-10
  21.980      4.13200E-10
  22.300      5.14660E-10
  22.680      7.71100E-10
  23.000      5.39360E-08
  23.400      1.52950E-07
  24.000      1.94920E-07
  24.650      3.49530E-07
  25.240      1.14970E-06
  25.680      3.77710E-06
  26.000      2.68200E-06
  26.400      1.78510E-05
  26.850      2.37950E-05
  27.350      3.31550E-05
  27.850      1.64840E-05
  28.400      4.65320E-05
  29.000      9.54140E-05
  29.600      7.47210E-05
  30.100      7.12580E-05
  30.800      1.25100E-04
  31.800      1.62030E-05
  32.800      2.71260E-05
  33.800      2.31060E-05
  34.800      2.80120E-05
  35.700      6.90210E-05
  36.600      1.88140E-04
  37.500      3.32830E-04
  38.500      3.46710E-04
  39.500      6.84760E-04
  40.500      1.54160E-03
  41.400      1.35380E-03
  42.200      1.22040E-03
  43.000      1.18260E-03
  44.100      1.50250E-03
  45.100      1.61180E-03
  46.000      1.13350E-03
  47.000      1.47710E-03
  48.000      1.95140E-03
  49.000      1.23850E-03
  50.000      2.64090E-03
  50.600      1.96910E-03
  51.200      2.79430E-03
  52.000      2.62610E-03
  53.000      2.50390E-03
  54.000      1.92430E-03
  55.000      1.35830E-03
  56.000      2.00040E-03
  57.000      3.09980E-03
  58.000      3.23900E-03
  59.000      3.28310E-03
  60.000      2.38030E-03
  61.000      1.83120E-03
  62.000      2.81180E-03
  63.000      2.44910E-03
  64.000      3.37660E-03
  65.000      3.02020E-03
  65.800      2.35830E-03
  66.500      3.32650E-03
  67.500      3.51950E-03
  68.500      2.98630E-03
  69.500      3.55300E-03
  70.500      2.76600E-03
  71.600      3.54100E-03
  72.600      3.76420E-03
  73.500      3.75320E-03
  74.500      3.48070E-03
  75.500      3.37200E-03
  76.500      2.98510E-03
  77.500      3.48220E-03
  78.500      2.63850E-03
  79.500      3.33040E-03
  80.500      3.57550E-03
  81.500      3.56760E-03
  82.500      3.67200E-03
  83.500      3.08470E-03
  84.500      3.55970E-03
  85.500      3.19140E-03
  86.500      3.62120E-03
  87.500      3.70260E-03
  88.500      3.59620E-03
  89.500      3.56810E-03
  90.500      3.47170E-03
  91.500      2.52910E-03
  92.500      3.84170E-03
  93.500      4.82180E-03
  94.500      5.47490E-03
  95.500      6.68710E-03
  96.500      7.08010E-03
  97.500      5.48110E-03
  98.500      6.33620E-03
  99.500      5.56940E-03
  100.50      5.62620E-03
  101.50      5.90370E-03
  102.50      5.69020E-03
  103.50      6.37280E-03
  104.50      6.90840E-03
  105.50      6.79130E-03
  106.50      6.24540E-03
  107.50      6.80860E-03
  108.50      5.98510E-03
  109.50      6.67570E-03
  110.50      6.57360E-03
  111.50      6.60540E-03
  112.50      6.35200E-03
  113.50      6.67760E-03
  114.50      6.77230E-03
  115.50      6.31510E-03
  116.50      5.83510E-03
  117.50      5.46990E-03
  118.50      6.05790E-03
  119.50      5.54780E-03
  120.50      5.55560E-03
  121.50      4.75330E-03
  122.50      5.42510E-03
  123.50      5.28670E-03
  124.50      5.12520E-03
  125.50      5.47440E-03
  126.50      5.56330E-03
  127.50      5.67230E-03
  128.50      5.68400E-03
  129.50      5.72480E-03
  130.50      5.58740E-03
  131.50      5.58310E-03
  132.50      5.53080E-03
  133.50      5.46290E-03
  134.50      5.35060E-03
  135.50      5.23810E-03
  136.50      4.99850E-03
  137.50      4.74440E-03
  138.50      4.94480E-03
  139.50      4.74830E-03
  140.50      4.51470E-03
  141.50      5.21530E-03
  142.50      4.86380E-03
  143.50      5.14180E-03
  144.20      4.82770E-03
  144.70      4.87210E-03
  145.50      4.77700E-03
  146.50      4.76900E-03
  147.50      4.83930E-03
  148.50      4.91680E-03
  149.50      4.79510E-03
  150.50      4.74080E-03
  151.20      4.74030E-03
  151.70      4.64410E-03
  152.50      4.71010E-03
  153.50      4.37730E-03
  154.50      3.63360E-03
  155.50      3.77810E-03
  156.50      4.26220E-03
  157.50      4.40510E-03
  158.50      4.28070E-03
  159.50      4.45720E-03
  160.50      4.29010E-03
  161.50      4.21780E-03
  162.50      4.32910E-03
  163.50      4.34170E-03
  164.50      4.19350E-03
  165.50      4.34810E-03
  166.50      4.23690E-03
  167.20      4.11730E-03
  167.70      4.46110E-03
  168.50      4.42450E-03
  169.50      4.43710E-03
  170.50      4.28950E-03
  171.50      4.12260E-03
  172.50      4.08000E-03
  173.50      4.27200E-03
  174.50      4.26940E-03
  175.50      4.23720E-03
  176.50      4.14240E-03
  177.50      4.08940E-03
  178.50      4.15180E-03
  179.50      4.05060E-03
  180.50      4.02930E-03
  181.50      3.95590E-03
  182.50      3.94230E-03
  183.50      3.93420E-03
  184.50      3.95670E-03
  185.50      3.93990E-03
  186.50      3.96770E-03
  187.50      3.86540E-03
  188.50      3.82820E-03
  189.50      3.88460E-03
  190.50      3.86160E-03
  191.50      3.84560E-03
  192.50      3.66520E-03
  193.50      3.80900E-03
  194.50      3.80590E-03
  195.50      3.69600E-03
  196.70      3.71540E-03
  197.60      3.64700E-03
  198.40      3.70110E-03
  199.50      3.65990E-03
  200.50      3.66610E-03
  201.50      3.64540E-03
  202.50      3.63510E-03
  203.50      3.56820E-03
  204.50      3.53050E-03
  205.50      2.58150E-03
  206.50      2.48210E-03
  207.40      2.55100E-03
  207.80      2.61500E-03
  208.50      2.79460E-03
  209.50      3.13820E-03
  210.50      3.31410E-03
  211.50      3.37950E-03
  212.50      3.31830E-03
  213.50      3.34950E-03
  214.50      3.31540E-03
  215.50      3.29670E-03
  216.50      3.10350E-03
  217.50      3.28940E-03
  218.50      3.14980E-03
  219.50      3.27690E-03
  220.50      3.24370E-03
  221.50      3.06940E-03
  222.50      3.21750E-03
  223.50      3.19340E-03
  224.50      3.17210E-03
  225.50      3.02320E-03
  226.50      3.11200E-03
  227.50      3.13660E-03
  228.50      3.02820E-03
  229.50      3.00000E-03
  230.50      2.91940E-03
  231.50      2.96260E-03
  232.50      3.00210E-03
  233.50      2.99510E-03
  234.50      2.94350E-03
  235.50      2.89260E-03
  236.50      2.86080E-03
  237.50      2.80670E-03
  238.50      2.65160E-03
  239.50      2.76280E-03
  240.50      2.74650E-03
  241.50      2.73680E-03
  242.50      2.77170E-03
  243.50      2.73420E-03
  244.50      2.71960E-03
  245.50      2.66860E-03
  246.50      2.68340E-03
  247.50      2.71120E-03
  248.50      2.64850E-03
  249.50      2.29430E-03
  250.50      2.61280E-03
  251.30      2.40960E-03
  251.80      2.51850E-03
  252.50      2.55550E-03
  253.50      2.58920E-03
  254.50      2.58380E-03
  255.50      2.56980E-03
  256.50      2.55460E-03
  257.50      2.53290E-03
  258.50      2.51970E-03
  259.50      2.42470E-03
  260.50      2.49280E-03
  261.50      2.41880E-03
  262.50      2.46810E-03
  263.50      2.45960E-03
  264.50      2.41130E-03
  265.50      2.42660E-03
  266.50      2.40740E-03
  267.50      2.34390E-03
  268.50      2.36190E-03
  269.50      2.34350E-03
  270.50      2.36870E-03
  271.50      2.34710E-03
  272.50      2.32280E-03
  273.50      2.23090E-03
  274.50      2.30960E-03
  275.50      2.27630E-03
  276.50      2.27720E-03
  277.50      2.25160E-03
  278.50      2.19560E-03
  279.50      2.18700E-03
  280.50      2.20050E-03
  281.50      2.19180E-03
  282.50      2.16340E-03
  283.50      2.17360E-03
  284.50      2.16860E-03
  285.50      2.15150E-03
  286.50      2.10730E-03
  287.50      2.08680E-03
  288.50      2.10540E-03
  289.50      2.08000E-03
  291.00      2.07260E-03
  293.00      2.06490E-03
  295.00      2.04270E-03
  297.00      2.01070E-03
  299.00      1.97110E-03
  301.00      1.94910E-03
  303.00      1.90720E-03
  305.00      1.90600E-03
  307.00      1.85660E-03
  309.00      1.87020E-03
  311.00      1.85570E-03
  313.00      1.83180E-03
  315.00      1.82540E-03
  317.00      1.80230E-03
  319.00      1.78800E-03
  321.00      1.72030E-03
  323.00      1.75270E-03
  325.00      1.73770E-03
  327.00      1.69440E-03
  329.00      1.69290E-03
  331.00      1.67320E-03
  333.00      1.64930E-03
  335.00      1.61090E-03
  337.00      1.61060E-03
  339.00      1.58770E-03
  341.00      1.57270E-03
  343.00      1.57960E-03
  345.00      1.53930E-03
  347.00      1.54230E-03
  349.00      1.53070E-03
  351.00      1.52370E-03
  353.00      1.49870E-03
  355.00      1.48770E-03
  357.00      1.47150E-03
  359.00      1.46230E-03
  361.00      1.44560E-03
  363.00      1.42810E-03
  364.00      1.39370E-03
  365.00      1.23910E-03
  367.00      1.23040E-03
  369.00      1.21960E-03
  371.00      1.20720E-03
  373.00      1.22480E-03
  375.00      1.24550E-03
  377.00      1.26360E-03
  379.00      1.30210E-03
  381.00      1.32690E-03
  383.00      1.26980E-03
  385.00      1.33080E-03
  387.00      1.31690E-03
  389.00      1.21460E-03
  391.00      1.31910E-03
  393.00      1.29560E-03
  395.00      1.27880E-03
  397.00      1.15660E-03
  399.00      1.27270E-03
  401.00      1.26380E-03
  403.00      1.23030E-03
  405.00      1.24690E-03
  407.00      1.22710E-03
  409.00      1.17450E-03
  411.00      1.11060E-03
  413.00      1.19540E-03
  415.00      1.19180E-03
  417.00      1.18570E-03
  419.00      1.16820E-03
  421.00      1.13970E-03
  423.00      1.15860E-03
  425.00      1.14650E-03
  427.00      1.13840E-03
  429.00      1.12720E-03
  431.00      1.11130E-03
  433.00      1.06010E-03
  435.00      1.01560E-03
  437.00      1.08190E-03
  439.00      1.06680E-03
  441.00      1.05550E-03
  443.00      1.05680E-03
  445.00      1.04430E-03
  447.00      1.03620E-03
  449.00      1.03320E-03
  451.00      1.01900E-03
  453.00      1.00920E-03
  455.00      9.79680E-04
  457.00      9.97770E-04
  459.00      9.88900E-04
  461.00      9.83700E-04
  463.00      9.65050E-04
  465.00      9.37750E-04
  467.00      9.56290E-04
  469.00      9.18390E-04
  471.00      9.49490E-04
  473.00      9.46990E-04
  475.00      9.40250E-04
  477.00      9.32400E-04
  479.00      9.20660E-04
  481.00      9.16690E-04
  483.00      9.08780E-04
  485.00      8.78100E-04
  487.00      8.23070E-04
  489.00      8.86150E-04
  491.00      8.81390E-04
  493.00      8.75820E-04
  495.00      8.70230E-04
  497.00      8.64940E-04
  499.00      8.59340E-04
  501.00      8.48100E-04
  503.00      8.43410E-04
  505.00      8.38030E-04
  507.00      8.33900E-04
  509.00      8.28490E-04
  511.00      8.21700E-04
  513.00      8.14880E-04
  515.00      8.09950E-04
  517.00      8.05140E-04
  519.00      7.99310E-04
  521.00      7.92680E-04
  523.00      7.88240E-04
  525.00      7.80560E-04
  527.00      7.73950E-04
  529.00      7.71900E-04
  531.00      7.66040E-04
  533.00      7.60810E-04
  535.00      7.56160E-04
  537.00      7.50350E-04
  539.00      7.45280E-04
  541.00      7.20140E-04
  543.00      7.35130E-04
  545.00      7.30580E-04
  547.00      7.25060E-04
  549.00      7.20580E-04
  551.00      7.13780E-04
  553.00      7.10950E-04
  555.00      7.06400E-04
  557.00      7.00290E-04
  559.00      6.92360E-04
  561.00      6.92400E-04
  563.00      6.87710E-04
  565.00      6.83130E-04
  567.00      6.78550E-04
  569.00      6.61110E-04
  571.00      6.12990E-04
  573.00      6.09310E-04
  575.00      6.05370E-04
  577.00      6.02330E-04
  579.00      5.99010E-04
  581.00      5.89990E-04
  583.00      5.93680E-04
  585.00      5.93170E-04
  587.00      5.89200E-04
  589.00      5.92450E-04
  591.00      5.92890E-04
  593.00      5.93790E-04
  595.00      5.95560E-04
  597.00      5.97510E-04
  599.00      6.00020E-04
  601.00      6.00290E-04
  603.00      6.00650E-04
  605.00      5.99590E-04
  607.00      5.96310E-04
  609.00      5.93520E-04
  611.00      5.89670E-04
  613.00      5.86340E-04
  615.00      5.83430E-04
  617.00      5.78520E-04
  619.00      5.77210E-04
  621.00      5.74060E-04
  623.00      5.67910E-04
  625.00      5.66110E-04
  627.00      5.63790E-04
  629.00      5.60450E-04
  631.00      5.53280E-04
  633.00      5.53450E-04
  635.00      5.50490E-04
  637.00      5.47690E-04
  639.00      5.43210E-04
  641.00      5.36090E-04
  643.00      5.37900E-04
  645.00      5.34430E-04
  647.00      5.31190E-04
  649.00      5.28450E-04
  651.00      5.23110E-04
  653.00      5.15130E-04
  655.00      5.09630E-04
  657.00      4.72640E-04
  659.00      5.11490E-04
  661.00      5.10800E-04
  663.00      5.08100E-04
  665.00      5.05170E-04
  667.00      4.98190E-04
  669.00      4.90080E-04
  671.00      4.94670E-04
  673.00      4.93200E-04
  675.00      4.90470E-04
  677.00      4.88050E-04
  679.00      4.85750E-04
  681.00      4.83020E-04
  683.00      4.80370E-04
  685.00      4.77480E-04
  687.00      4.74560E-04
  689.00      4.62980E-04
  691.00      4.68880E-04
  693.00      4.67380E-04
  695.00      4.64740E-04
  697.00      4.62310E-04
  699.00      4.59600E-04
  701.00      4.56350E-04
  703.00      4.53410E-04
  705.00      4.50820E-04
  707.00      4.48020E-04
  709.00      4.47560E-04
  711.00      4.44370E-04
  713.00      4.42080E-04
  715.00      4.40500E-04
  717.00      4.31400E-04
  719.00      4.31380E-04
  721.00      4.33270E-04
  723.00      4.31270E-04
  725.00      4.29050E-04
  727.00      4.26840E-04
  729.00      4.24260E-04
  731.00      4.21240E-04
  733.00      4.20190E-04
  735.00      4.18090E-04
  737.00      4.15180E-04
  739.00      4.13040E-04
  741.00      4.10930E-04
  743.00      4.09560E-04
  745.00      4.06300E-04
  747.00      4.05110E-04
  749.00      4.01900E-04
  751.00      4.00580E-04
  753.00      3.99040E-04
  755.00      3.96930E-04
  757.00      3.94670E-04
  759.00      3.83410E-04
  761.00      3.89500E-04
  763.00      3.88910E-04
  765.00      3.86970E-04
  767.00      3.84760E-04
  769.00      3.81610E-04
  771.00      3.80030E-04
  773.00      3.77470E-04
  775.00      3.77140E-04
  777.00      3.76100E-04
  779.00      3.73840E-04
  781.00      3.72400E-04
  783.00      3.70430E-04
  785.00      3.66600E-04
  787.00      3.66020E-04
  789.00      3.64810E-04
  791.00      3.63460E-04
  793.00      3.61860E-04
  795.00      3.59930E-04
  797.00      3.57070E-04
  799.00      3.56590E-04
  801.00      3.54920E-04
  803.00      3.52840E-04
  805.00      3.51620E-04
  807.00      3.49960E-04
  809.00      3.48330E-04
  811.00      3.46640E-04
  813.00      3.45070E-04
  815.00      3.43420E-04
  817.00      3.40920E-04
  819.00      3.38180E-04
  821.00      3.19710E-04
  823.00      3.15380E-04
  825.00      3.16090E-04
  827.00      3.15460E-04
  829.00      3.14200E-04
  831.00      3.12900E-04
  833.00      3.10530E-04
  835.00      3.09820E-04
  837.00      3.08720E-04
  839.00      3.07650E-04
  841.00      3.06530E-04
  843.00      3.05420E-04
  845.00      3.04260E-04
  847.00      3.03310E-04
  849.00      3.02470E-04
  851.00      3.01110E-04
  853.00      3.00830E-04
  855.00      2.99790E-04
  857.00      2.98980E-04
  859.00      2.98270E-04
  861.00      2.97620E-04
  863.00      2.97700E-04
  865.00      2.96660E-04
  867.00      2.93900E-04
  869.00      2.96030E-04
  871.00      2.95950E-04
  873.00      2.94860E-04
  875.00      2.90320E-04
  877.00      2.93150E-04
  879.00      2.94420E-04
  881.00      2.94300E-04
  883.00      2.93450E-04
  885.00      2.88760E-04
  887.00      2.82750E-04
  889.00      2.89630E-04
  891.00      2.90270E-04
  893.00      2.89270E-04
  895.00      2.88460E-04
  897.00      2.87350E-04
  899.00      2.84300E-04
  901.00      2.72390E-04
  903.00      2.76020E-04
  905.00      2.81670E-04
  907.00      2.81510E-04
  909.00      2.80620E-04
  911.00      2.79330E-04
  913.00      2.78590E-04
  915.00      2.77890E-04
  917.00      2.75760E-04
  919.00      2.74170E-04
  921.00      2.69390E-04
  923.00      2.54190E-04
  925.00      2.66020E-04
  927.00      2.69390E-04
  929.00      2.69140E-04
  931.00      2.68410E-04
  933.00      2.66640E-04
  935.00      2.57860E-04
  937.00      2.63590E-04
  939.00      2.63680E-04
  941.00      2.62720E-04
  943.00      2.61940E-04
  945.00      2.60880E-04
  947.00      2.59810E-04
  949.00      2.58210E-04
  951.00      2.56260E-04
  953.00      2.50570E-04
  955.00      2.35370E-04
  957.00      2.50110E-04
  959.00      2.52650E-04
  961.00      2.52450E-04
  963.00      2.51220E-04
  965.00      2.50760E-04
  967.00      2.49860E-04
  969.00      2.48870E-04
  971.00      2.45510E-04
  973.00      2.46340E-04
  975.00      2.45210E-04
  977.00      2.42910E-04
  979.00      2.43810E-04
  981.00      2.42940E-04
  983.00      2.41590E-04
  985.00      2.41090E-04
  987.00      2.40160E-04
  989.00      2.39170E-04
  991.00      2.38080E-04
  993.00      2.37360E-04
  995.00      2.36440E-04
  997.00      2.35520E-04
  999.00      2.34290E-04
  1002.5      2.27340E-04
  1007.5      2.22650E-04
  1012.5      2.22920E-04
  1017.5      2.26330E-04
  1022.5      2.24180E-04
  1027.5      2.21730E-04
  1032.5      2.19650E-04
  1037.5      2.17910E-04
  1042.5      2.14320E-04
  1047.5      2.13990E-04
  1052.5      2.11990E-04
  1057.5      2.10070E-04
  1062.5      2.08160E-04
  1067.5      2.06260E-04
  1072.5      2.04420E-04
  1077.5      2.02560E-04
  1082.5      2.00170E-04
  1087.5      1.98560E-04
  1092.5      1.87530E-04
  1097.5      1.92760E-04
  1102.5      1.93610E-04
  1107.5      1.92040E-04
  1112.5      1.90350E-04
  1117.5      1.88860E-04
  1122.5      1.87140E-04
  1127.5      1.85460E-04
  1132.5      1.83830E-04
  1137.5      1.82370E-04
  1142.5      1.80860E-04
  1147.5      1.79340E-04
  1152.5      1.77840E-04
  1157.5      1.76180E-04
  1162.5      1.71910E-04
  1167.5      1.71230E-04
  1172.5      1.71900E-04
  1177.5      1.70550E-04
  1182.5      1.68860E-04
  1187.5      1.67670E-04
  1192.5      1.66310E-04
  1197.5      1.64630E-04
  1202.5      1.63690E-04
  1207.5      1.62270E-04
  1212.5      1.60890E-04
  1217.5      1.59760E-04
  1222.5      1.58470E-04
  1227.5      1.57240E-04
  1232.5      1.55950E-04
  1237.5      1.54760E-04
  1242.5      1.53540E-04
  1247.5      1.52340E-04
  1252.5      1.51120E-04
  1257.5      1.49950E-04
  1262.5      1.48820E-04
  1267.5      1.47670E-04
  1272.5      1.46500E-04
  1277.5      1.44310E-04
  1282.5      1.36290E-04
  1287.5      1.42680E-04
  1292.5      1.42120E-04
  1297.5      1.41010E-04
  1302.5      1.39980E-04
  1307.5      1.38950E-04
  1312.5      1.37910E-04
  1317.5      1.36870E-04
  1322.5      1.35870E-04
  1327.5      1.34870E-04
  1332.5      1.33880E-04
  1337.5      1.32890E-04
  1342.5      1.31910E-04
  1347.5      1.30960E-04
  1352.5      1.30010E-04
  1357.5      1.29080E-04
  1362.5      1.28150E-04
  1367.5      1.27230E-04
  1372.5      1.26290E-04
  1377.5      1.25410E-04
  1382.5      1.24540E-04
  1387.5      1.23650E-04
  1392.5      1.22780E-04
  1397.5      1.21920E-04
