 Castelli and Kurucz 2004-2012 Atmosphere
 T     33000.     G    4.00000 [0.5a] VTURB=2  L/H=1.25 NOVER NEW ODF          
 Wavelength  Eddington Hnu
   (nm)    (ergs/s/cm2/Hz/sr)
  9.0900      1.42240E-32
  9.3500      8.09350E-32
  9.6100      4.19690E-31
  9.7700      1.12200E-30
  9.9600      3.45020E-30
  10.200      1.35040E-29
  10.380      3.62310E-29
  10.560      9.43230E-29
  10.770      2.77580E-28
  11.040      1.05360E-27
  11.400      5.70720E-27
  11.780      3.07500E-26
  12.130      1.33370E-25
  12.480      5.36620E-25
  12.710      1.28970E-24
  12.840      2.09030E-24
  13.050      4.47080E-24
  13.240      8.74130E-24
  13.390      1.46570E-23
  13.660      3.61740E-23
  13.980      1.01440E-22
  14.330      2.97860E-22
  14.720      9.30320E-22
  15.100      2.70470E-21
  15.520      8.25600E-21
  15.880      2.05590E-20
  16.200      4.47220E-20
  16.600      1.14170E-19
  17.030      2.95240E-19
  17.340      5.76830E-19
  17.680      1.18900E-18
  18.020      2.33340E-18
  18.170      3.21810E-18
  18.610      7.34050E-18
  19.100      1.77030E-17
  19.390      2.90910E-17
  19.840      6.23740E-17
  20.180      1.06960E-16
  20.500      1.74980E-16
  21.050      3.95300E-16
  21.620      8.68580E-16
  21.980      1.43260E-15
  22.300      2.18060E-15
  22.680      4.04420E-15
  23.000      9.06580E-13
  23.400      1.93490E-12
  24.000      3.23350E-12
  24.650      5.71860E-12
  25.240      1.02300E-11
  25.680      1.53550E-11
  26.000      2.71530E-11
  26.400      4.76450E-11
  26.850      7.80480E-11
  27.350      1.11130E-10
  27.850      1.39940E-10
  28.400      3.42890E-10
  29.000      5.19580E-10
  29.600      7.05920E-10
  30.100      1.26860E-09
  30.800      3.82100E-09
  31.800      8.68440E-09
  32.800      1.33080E-08
  33.800      2.67020E-08
  34.800      4.39660E-08
  35.700      1.04420E-07
  36.600      2.72280E-07
  37.500      3.24340E-07
  38.500      5.29570E-07
  39.500      1.52420E-06
  40.500      2.15600E-06
  41.400      3.73230E-06
  42.200      4.46220E-06
  43.000      4.74970E-06
  44.100      6.05700E-06
  45.100      6.62160E-06
  46.000      6.14060E-06
  47.000      7.94770E-06
  48.000      9.83710E-06
  49.000      8.61370E-06
  50.000      1.26070E-05
  50.600      1.16000E-05
  51.200      8.66340E-05
  52.000      8.42230E-05
  53.000      8.18880E-05
  54.000      8.16140E-05
  55.000      8.10720E-05
  56.000      1.28880E-04
  57.000      1.77860E-04
  58.000      1.69810E-04
  59.000      1.79110E-04
  60.000      9.62820E-05
  61.000      1.49980E-04
  62.000      2.25490E-04
  63.000      2.21880E-04
  64.000      2.36540E-04
  65.000      2.08470E-04
  65.800      1.18130E-04
  66.500      2.09730E-04
  67.500      2.92810E-04
  68.500      1.91540E-04
  69.500      3.01550E-04
  70.500      1.74810E-04
  71.600      3.64940E-04
  72.600      3.67720E-04
  73.500      3.76120E-04
  74.500      3.03270E-04
  75.500      3.22350E-04
  76.500      3.45250E-04
  77.500      3.95960E-04
  78.500      3.74630E-04
  79.500      4.26990E-04
  80.500      3.89420E-04
  81.500      3.91240E-04
  82.500      4.55560E-04
  83.500      2.98250E-04
  84.500      4.42100E-04
  85.500      4.37950E-04
  86.500      4.76130E-04
  87.500      4.88610E-04
  88.500      5.07160E-04
  89.500      5.16000E-04
  90.500      5.02220E-04
  91.500      5.32050E-04
  92.500      1.22600E-03
  93.500      1.84160E-03
  94.500      2.11310E-03
  95.500      2.33060E-03
  96.500      2.54120E-03
  97.500      1.10410E-03
  98.500      2.00520E-03
  99.500      1.85490E-03
  100.50      1.94860E-03
  101.50      2.17580E-03
  102.50      1.99290E-03
  103.50      2.24120E-03
  104.50      2.63350E-03
  105.50      2.51910E-03
  106.50      2.16550E-03
  107.50      2.30560E-03
  108.50      2.18490E-03
  109.50      2.35200E-03
  110.50      2.28670E-03
  111.50      2.26870E-03
  112.50      1.69060E-03
  113.50      2.23230E-03
  114.50      2.25130E-03
  115.50      2.08060E-03
  116.50      2.10280E-03
  117.50      1.35310E-03
  118.50      1.96890E-03
  119.50      1.91420E-03
  120.50      1.87110E-03
  121.50      1.67110E-03
  122.50      1.90350E-03
  123.50      2.06500E-03
  124.50      1.99810E-03
  125.50      2.03640E-03
  126.50      2.13490E-03
  127.50      2.27930E-03
  128.50      2.31600E-03
  129.50      2.18120E-03
  130.50      2.20160E-03
  131.50      2.39080E-03
  132.50      2.35070E-03
  133.50      2.29940E-03
  134.50      2.32060E-03
  135.50      2.29950E-03
  136.50      2.23700E-03
  137.50      2.16690E-03
  138.50      2.10460E-03
  139.50      1.45300E-03
  140.50      1.58700E-03
  141.50      2.15800E-03
  142.50      1.94910E-03
  143.50      2.14240E-03
  144.20      2.10240E-03
  144.70      2.11420E-03
  145.50      2.01680E-03
  146.50      1.98500E-03
  147.50      2.06580E-03
  148.50      2.09150E-03
  149.50      2.04650E-03
  150.50      1.99870E-03
  151.20      1.99200E-03
  151.70      2.03000E-03
  152.50      1.95750E-03
  153.50      1.70480E-03
  154.50      1.34810E-03
  155.50      1.39940E-03
  156.50      1.68670E-03
  157.50      1.81400E-03
  158.50      1.83510E-03
  159.50      1.87050E-03
  160.50      1.79010E-03
  161.50      1.72010E-03
  162.50      1.79000E-03
  163.50      1.84270E-03
  164.50      1.88140E-03
  165.50      1.87180E-03
  166.50      1.85320E-03
  167.20      1.70140E-03
  167.70      2.07990E-03
  168.50      1.98430E-03
  169.50      1.93590E-03
  170.50      1.94130E-03
  171.50      1.83630E-03
  172.50      1.79010E-03
  173.50      1.88370E-03
  174.50      1.89750E-03
  175.50      1.89130E-03
  176.50      1.88340E-03
  177.50      1.82140E-03
  178.50      1.88360E-03
  179.50      1.85180E-03
  180.50      1.86370E-03
  181.50      1.83370E-03
  182.50      1.81930E-03
  183.50      1.83840E-03
  184.50      1.77490E-03
  185.50      1.83670E-03
  186.50      1.85610E-03
  187.50      1.81260E-03
  188.50      1.74750E-03
  189.50      1.74260E-03
  190.50      1.80470E-03
  191.50      1.77060E-03
  192.50      1.67000E-03
  193.50      1.80470E-03
  194.50      1.83730E-03
  195.50      1.66770E-03
  196.70      1.77930E-03
  197.60      1.83310E-03
  198.40      1.79320E-03
  199.50      1.76780E-03
  200.50      1.82210E-03
  201.50      1.83160E-03
  202.50      1.84540E-03
  203.50      1.78200E-03
  204.50      1.77130E-03
  205.50      1.41810E-03
  206.50      1.38350E-03
  207.40      1.47310E-03
  207.80      1.47210E-03
  208.50      1.61080E-03
  209.50      1.68620E-03
  210.50      1.72160E-03
  211.50      1.76740E-03
  212.50      1.73970E-03
  213.50      1.75140E-03
  214.50      1.73270E-03
  215.50      1.74810E-03
  216.50      1.67480E-03
  217.50      1.73230E-03
  218.50      1.69810E-03
  219.50      1.75050E-03
  220.50      1.73550E-03
  221.50      1.68210E-03
  222.50      1.71010E-03
  223.50      1.69870E-03
  224.50      1.68600E-03
  225.50      1.65170E-03
  226.50      1.67180E-03
  227.50      1.67710E-03
  228.50      1.62080E-03
  229.50      1.44570E-03
  230.50      1.59050E-03
  231.50      1.58360E-03
  232.50      1.60930E-03
  233.50      1.59780E-03
  234.50      1.58610E-03
  235.50      1.55790E-03
  236.50      1.53830E-03
  237.50      1.50980E-03
  238.50      1.45730E-03
  239.50      1.48240E-03
  240.50      1.49960E-03
  241.50      1.48810E-03
  242.50      1.49720E-03
  243.50      1.48480E-03
  244.50      1.47970E-03
  245.50      1.46780E-03
  246.50      1.46010E-03
  247.50      1.44670E-03
  248.50      1.35310E-03
  249.50      8.59910E-04
  250.50      1.26190E-03
  251.30      1.32740E-03
  251.80      1.35120E-03
  252.50      1.40860E-03
  253.50      1.41940E-03
  254.50      1.39590E-03
  255.50      1.39890E-03
  256.50      1.38600E-03
  257.50      1.38910E-03
  258.50      1.38390E-03
  259.50      1.35910E-03
  260.50      1.37350E-03
  261.50      1.34600E-03
  262.50      1.35440E-03
  263.50      1.35490E-03
  264.50      1.33790E-03
  265.50      1.33780E-03
  266.50      1.31420E-03
  267.50      1.28290E-03
  268.50      1.30890E-03
  269.50      1.29180E-03
  270.50      1.29400E-03
  271.50      1.28390E-03
  272.50      1.28090E-03
  273.50      1.25980E-03
  274.50      1.27860E-03
  275.50      1.26630E-03
  276.50      1.25930E-03
  277.50      1.26390E-03
  278.50      1.24050E-03
  279.50      1.20450E-03
  280.50      1.23270E-03
  281.50      1.23500E-03
  282.50      1.22970E-03
  283.50      1.21370E-03
  284.50      1.22140E-03
  285.50      1.20790E-03
  286.50      1.19420E-03
  287.50      1.18740E-03
  288.50      1.18680E-03
  289.50      1.18110E-03
  291.00      1.15750E-03
  293.00      1.16590E-03
  295.00      1.15120E-03
  297.00      1.13700E-03
  299.00      1.11200E-03
  301.00      1.08670E-03
  303.00      1.07030E-03
  305.00      1.08050E-03
  307.00      1.07450E-03
  309.00      1.05650E-03
  311.00      1.06520E-03
  313.00      1.04510E-03
  315.00      1.04660E-03
  317.00      1.03180E-03
  319.00      1.02830E-03
  321.00      1.00590E-03
  323.00      1.00100E-03
  325.00      1.00100E-03
  327.00      9.76640E-04
  329.00      9.76540E-04
  331.00      9.63770E-04
  333.00      9.51250E-04
  335.00      9.34770E-04
  337.00      9.30020E-04
  339.00      9.32850E-04
  341.00      9.22830E-04
  343.00      9.23850E-04
  345.00      9.03420E-04
  347.00      9.02700E-04
  349.00      8.95950E-04
  351.00      8.88440E-04
  353.00      8.83430E-04
  355.00      8.73870E-04
  357.00      8.66050E-04
  359.00      8.57460E-04
  361.00      8.48740E-04
  363.00      8.42000E-04
  364.00      8.32010E-04
  365.00      7.83070E-04
  367.00      7.79330E-04
  369.00      7.72500E-04
  371.00      7.53590E-04
  373.00      7.56530E-04
  375.00      7.74370E-04
  377.00      7.72850E-04
  379.00      8.02860E-04
  381.00      8.20410E-04
  383.00      7.66150E-04
  385.00      8.25060E-04
  387.00      7.96010E-04
  389.00      7.44960E-04
  391.00      8.21220E-04
  393.00      7.98370E-04
  395.00      7.83860E-04
  397.00      7.10150E-04
  399.00      7.90680E-04
  401.00      7.82610E-04
  403.00      7.64630E-04
  405.00      7.71060E-04
  407.00      7.42580E-04
  409.00      7.13930E-04
  411.00      6.77770E-04
  413.00      7.31910E-04
  415.00      7.30210E-04
  417.00      7.36370E-04
  419.00      7.28920E-04
  421.00      7.19560E-04
  423.00      7.19710E-04
  425.00      7.04250E-04
  427.00      6.96610E-04
  429.00      6.85750E-04
  431.00      6.73870E-04
  433.00      6.54210E-04
  435.00      6.21200E-04
  437.00      6.65730E-04
  439.00      6.60750E-04
  441.00      6.53600E-04
  443.00      6.57390E-04
  445.00      6.49570E-04
  447.00      6.42440E-04
  449.00      6.45560E-04
  451.00      6.32280E-04
  453.00      6.33950E-04
  455.00      6.24640E-04
  457.00      6.27890E-04
  459.00      6.19680E-04
  461.00      6.13720E-04
  463.00      6.05950E-04
  465.00      5.75660E-04
  467.00      5.97730E-04
  469.00      5.91320E-04
  471.00      5.89020E-04
  473.00      6.01100E-04
  475.00      5.95260E-04
  477.00      5.94750E-04
  479.00      5.90200E-04
  481.00      5.83730E-04
  483.00      5.77920E-04
  485.00      5.62390E-04
  487.00      5.20250E-04
  489.00      5.64470E-04
  491.00      5.60940E-04
  493.00      5.53460E-04
  495.00      5.51160E-04
  497.00      5.54160E-04
  499.00      5.50390E-04
  501.00      5.34380E-04
  503.00      5.36960E-04
  505.00      5.34660E-04
  507.00      5.35180E-04
  509.00      5.30730E-04
  511.00      5.26650E-04
  513.00      5.22480E-04
  515.00      5.19250E-04
  517.00      5.14840E-04
  519.00      5.12460E-04
  521.00      5.09500E-04
  523.00      5.06710E-04
  525.00      5.00700E-04
  527.00      4.96440E-04
  529.00      4.96730E-04
  531.00      4.92910E-04
  533.00      4.89950E-04
  535.00      4.87090E-04
  537.00      4.83700E-04
  539.00      4.79580E-04
  541.00      4.71480E-04
  543.00      4.74630E-04
  545.00      4.71310E-04
  547.00      4.67940E-04
  549.00      4.65080E-04
  551.00      4.61560E-04
  553.00      4.59020E-04
  555.00      4.56760E-04
  557.00      4.53170E-04
  559.00      4.48420E-04
  561.00      4.48160E-04
  563.00      4.45360E-04
  565.00      4.42250E-04
  567.00      4.38560E-04
  569.00      4.28130E-04
  571.00      4.17090E-04
  573.00      4.15180E-04
  575.00      4.11520E-04
  577.00      4.10780E-04
  579.00      4.08170E-04
  581.00      4.04390E-04
  583.00      4.02920E-04
  585.00      4.03420E-04
  587.00      3.95330E-04
  589.00      4.00080E-04
  591.00      3.99580E-04
  593.00      3.98690E-04
  595.00      3.98220E-04
  597.00      3.98650E-04
  599.00      3.96690E-04
  601.00      3.95770E-04
  603.00      3.92700E-04
  605.00      3.90650E-04
  607.00      3.88640E-04
  609.00      3.86900E-04
  611.00      3.83880E-04
  613.00      3.81860E-04
  615.00      3.78640E-04
  617.00      3.76210E-04
  619.00      3.75720E-04
  621.00      3.73910E-04
  623.00      3.70590E-04
  625.00      3.68440E-04
  627.00      3.67170E-04
  629.00      3.65100E-04
  631.00      3.61110E-04
  633.00      3.61140E-04
  635.00      3.58330E-04
  637.00      3.57200E-04
  639.00      3.55180E-04
  641.00      3.52010E-04
  643.00      3.51310E-04
  645.00      3.48770E-04
  647.00      3.45880E-04
  649.00      3.43770E-04
  651.00      3.40410E-04
  653.00      3.38530E-04
  655.00      3.34220E-04
  657.00      3.05860E-04
  659.00      3.33650E-04
  661.00      3.33350E-04
  663.00      3.32160E-04
  665.00      3.29860E-04
  667.00      3.24580E-04
  669.00      3.21980E-04
  671.00      3.23580E-04
  673.00      3.21000E-04
  675.00      3.20550E-04
  677.00      3.19570E-04
  679.00      3.17280E-04
  681.00      3.16370E-04
  683.00      3.14440E-04
  685.00      3.12820E-04
  687.00      3.10780E-04
  689.00      3.06930E-04
  691.00      3.06130E-04
  693.00      3.06660E-04
  695.00      3.04930E-04
  697.00      3.03430E-04
  699.00      3.01690E-04
  701.00      2.99430E-04
  703.00      2.97460E-04
  705.00      2.96170E-04
  707.00      2.91410E-04
  709.00      2.93990E-04
  711.00      2.91480E-04
  713.00      2.90230E-04
  715.00      2.89580E-04
  717.00      2.86820E-04
  719.00      2.85970E-04
  721.00      2.85180E-04
  723.00      2.81580E-04
  725.00      2.81540E-04
  727.00      2.80850E-04
  729.00      2.77700E-04
  731.00      2.77540E-04
  733.00      2.76550E-04
  735.00      2.75140E-04
  737.00      2.73660E-04
  739.00      2.72510E-04
  741.00      2.70940E-04
  743.00      2.69790E-04
  745.00      2.67970E-04
  747.00      2.65870E-04
  749.00      2.64230E-04
  751.00      2.64160E-04
  753.00      2.62760E-04
  755.00      2.61790E-04
  757.00      2.60350E-04
  759.00      2.57080E-04
  761.00      2.56950E-04
  763.00      2.56300E-04
  765.00      2.55020E-04
  767.00      2.54250E-04
  769.00      2.51790E-04
  771.00      2.51230E-04
  773.00      2.49020E-04
  775.00      2.49030E-04
  777.00      2.48280E-04
  779.00      2.46970E-04
  781.00      2.45950E-04
  783.00      2.44770E-04
  785.00      2.42870E-04
  787.00      2.41430E-04
  789.00      2.40570E-04
  791.00      2.40030E-04
  793.00      2.38960E-04
  795.00      2.38110E-04
  797.00      2.36460E-04
  799.00      2.35700E-04
  801.00      2.34650E-04
  803.00      2.33270E-04
  805.00      2.32620E-04
  807.00      2.31540E-04
  809.00      2.30320E-04
  811.00      2.27780E-04
  813.00      2.28370E-04
  815.00      2.27090E-04
  817.00      2.26070E-04
  819.00      2.23680E-04
  821.00      2.19470E-04
  823.00      2.17580E-04
  825.00      2.17780E-04
  827.00      2.15470E-04
  829.00      2.15860E-04
  831.00      2.15360E-04
  833.00      2.13600E-04
  835.00      2.12080E-04
  837.00      2.11870E-04
  839.00      2.11750E-04
  841.00      2.10570E-04
  843.00      2.10040E-04
  845.00      2.08580E-04
  847.00      2.08290E-04
  849.00      2.07440E-04
  851.00      2.05170E-04
  853.00      2.06080E-04
  855.00      2.03810E-04
  857.00      2.05370E-04
  859.00      2.01580E-04
  861.00      2.01340E-04
  863.00      2.04270E-04
  865.00      2.01610E-04
  867.00      1.94340E-04
  869.00      2.02160E-04
  871.00      2.02380E-04
  873.00      1.99870E-04
  875.00      1.88160E-04
  877.00      1.97100E-04
  879.00      2.00000E-04
  881.00      1.99810E-04
  883.00      1.98070E-04
  885.00      1.91890E-04
  887.00      1.81920E-04
  889.00      1.95220E-04
  891.00      1.95520E-04
  893.00      1.94700E-04
  895.00      1.94070E-04
  897.00      1.93310E-04
  899.00      1.90900E-04
  901.00      1.76480E-04
  903.00      1.83430E-04
  905.00      1.89780E-04
  907.00      1.88310E-04
  909.00      1.88210E-04
  911.00      1.88140E-04
  913.00      1.87430E-04
  915.00      1.86930E-04
  917.00      1.85510E-04
  919.00      1.84530E-04
  921.00      1.80270E-04
  923.00      1.64550E-04
  925.00      1.78690E-04
  927.00      1.81430E-04
  929.00      1.80990E-04
  931.00      1.80020E-04
  933.00      1.79250E-04
  935.00      1.77360E-04
  937.00      1.77850E-04
  939.00      1.77520E-04
  941.00      1.76270E-04
  943.00      1.75860E-04
  945.00      1.75200E-04
  947.00      1.74210E-04
  949.00      1.73610E-04
  951.00      1.71720E-04
  953.00      1.68100E-04
  955.00      1.53840E-04
  957.00      1.68730E-04
  959.00      1.70450E-04
  961.00      1.69430E-04
  963.00      1.68200E-04
  965.00      1.68830E-04
  967.00      1.68370E-04
  969.00      1.67630E-04
  971.00      1.62200E-04
  973.00      1.65430E-04
  975.00      1.65720E-04
  977.00      1.64720E-04
  979.00      1.64370E-04
  981.00      1.63560E-04
  983.00      1.62990E-04
  985.00      1.62300E-04
  987.00      1.61850E-04
  989.00      1.60680E-04
  991.00      1.59760E-04
  993.00      1.60000E-04
  995.00      1.59450E-04
  997.00      1.58730E-04
  999.00      1.58180E-04
  1002.5      1.52670E-04
  1007.5      1.49400E-04
  1012.5      1.51910E-04
  1017.5      1.52850E-04
  1022.5      1.51230E-04
  1027.5      1.49830E-04
  1032.5      1.48050E-04
  1037.5      1.47260E-04
  1042.5      1.45750E-04
  1047.5      1.44620E-04
  1052.5      1.43220E-04
  1057.5      1.42010E-04
  1062.5      1.40700E-04
  1067.5      1.39360E-04
  1072.5      1.38240E-04
  1077.5      1.36980E-04
  1082.5      1.34520E-04
  1087.5      1.34370E-04
  1092.5      1.25800E-04
  1097.5      1.30410E-04
  1102.5      1.30640E-04
  1107.5      1.29960E-04
  1112.5      1.28810E-04
  1117.5      1.27810E-04
  1122.5      1.26660E-04
  1127.5      1.25570E-04
  1132.5      1.24290E-04
  1137.5      1.23370E-04
  1142.5      1.22380E-04
  1147.5      1.21380E-04
  1152.5      1.20470E-04
  1157.5      1.19320E-04
  1162.5      1.17840E-04
  1167.5      1.16940E-04
  1172.5      1.16570E-04
  1177.5      1.15600E-04
  1182.5      1.14470E-04
  1187.5      1.13650E-04
  1192.5      1.12740E-04
  1197.5      1.10830E-04
  1202.5      1.11030E-04
  1207.5      1.10070E-04
  1212.5      1.09100E-04
  1217.5      1.08390E-04
  1222.5      1.07530E-04
  1227.5      1.06710E-04
  1232.5      1.05790E-04
  1237.5      1.05000E-04
  1242.5      1.04250E-04
  1247.5      1.03390E-04
  1252.5      1.02320E-04
  1257.5      1.01730E-04
  1262.5      1.01000E-04
  1267.5      1.00300E-04
  1272.5      9.95250E-05
  1277.5      9.76130E-05
  1282.5      9.24160E-05
  1287.5      9.70670E-05
  1292.5      9.65910E-05
  1297.5      9.54020E-05
  1302.5      9.50060E-05
  1307.5      9.44640E-05
  1312.5      9.37750E-05
  1317.5      9.30810E-05
  1322.5      9.24060E-05
  1327.5      9.17340E-05
  1332.5      9.10270E-05
  1337.5      9.02970E-05
  1342.5      8.96430E-05
  1347.5      8.90550E-05
  1352.5      8.83290E-05
  1357.5      8.78180E-05
  1362.5      8.70580E-05
  1367.5      8.65810E-05
  1372.5      8.57990E-05
  1377.5      8.53820E-05
  1382.5      8.47930E-05
  1387.5      8.41870E-05
  1392.5      8.34860E-05
  1397.5      8.30180E-05
