 Castelli and Kurucz 2004-2012 Atmosphere
 T     46000.     G    5.00000 [0.5a] VTURB=2  L/H=1.25 NOVER NEW ODF          
 Wavelength  Eddington Hnu
   (nm)    (ergs/s/cm2/Hz/sr)
  9.0900      1.33000E-21
  9.3500      4.26230E-21
  9.6100      1.25370E-20
  9.7700      2.45170E-20
  9.9600      5.16740E-20
  10.200      1.27620E-19
  10.380      2.45060E-19
  10.560      4.60500E-19
  10.770      9.37300E-19
  11.040      2.24960E-18
  11.400      6.79430E-18
  11.780      2.01900E-17
  12.130      5.26190E-17
  12.480      1.29080E-16
  12.710      2.27270E-16
  12.840      3.13240E-16
  13.050      5.08130E-16
  13.240      7.75390E-16
  13.390      1.08440E-15
  13.660      1.91060E-15
  13.980      3.73200E-15
  14.330      7.29460E-15
  14.720      1.42880E-14
  15.100      2.96450E-14
  15.520      6.00600E-14
  15.880      1.08780E-13
  16.200      2.23480E-13
  16.600      4.11710E-13
  17.030      7.28820E-13
  17.340      1.09440E-12
  17.680      1.80280E-12
  18.020      2.78840E-12
  18.170      3.39670E-12
  18.610      5.98950E-12
  19.100      1.03010E-11
  19.390      1.48250E-11
  19.840      2.44400E-11
  20.180      3.26330E-11
  20.500      4.61790E-11
  21.050      7.63030E-11
  21.620      1.22950E-10
  21.980      1.70020E-10
  22.300      2.15630E-10
  22.680      3.28910E-10
  23.000      3.27380E-08
  23.400      9.07030E-08
  24.000      1.17240E-07
  24.650      2.01120E-07
  25.240      5.63360E-07
  25.680      1.35050E-06
  26.000      1.18510E-06
  26.400      7.63650E-06
  26.850      1.04860E-05
  27.350      1.48330E-05
  27.850      7.39550E-06
  28.400      2.24210E-05
  29.000      4.69690E-05
  29.600      3.57440E-05
  30.100      3.96810E-05
  30.800      8.75140E-05
  31.800      1.21120E-05
  32.800      2.08550E-05
  33.800      1.86390E-05
  34.800      2.28880E-05
  35.700      5.62530E-05
  36.600      1.51120E-04
  37.500      2.68770E-04
  38.500      2.91580E-04
  39.500      5.77270E-04
  40.500      1.31150E-03
  41.400      1.14470E-03
  42.200      1.04370E-03
  43.000      1.00700E-03
  44.100      1.26990E-03
  45.100      1.37600E-03
  46.000      9.65150E-04
  47.000      1.25800E-03
  48.000      1.67320E-03
  49.000      1.02160E-03
  50.000      2.20040E-03
  50.600      1.60420E-03
  51.200      2.39530E-03
  52.000      2.23860E-03
  53.000      2.12360E-03
  54.000      1.66520E-03
  55.000      1.18960E-03
  56.000      1.76150E-03
  57.000      2.71580E-03
  58.000      2.81190E-03
  59.000      2.85740E-03
  60.000      2.02600E-03
  61.000      1.62830E-03
  62.000      2.50710E-03
  63.000      2.22680E-03
  64.000      2.99340E-03
  65.000      2.67210E-03
  65.800      2.05160E-03
  66.500      2.92550E-03
  67.500      3.14090E-03
  68.500      2.63760E-03
  69.500      3.16860E-03
  70.500      2.41860E-03
  71.600      3.20130E-03
  72.600      3.38280E-03
  73.500      3.38700E-03
  74.500      3.12870E-03
  75.500      3.05010E-03
  76.500      2.72020E-03
  77.500      3.15260E-03
  78.500      2.39770E-03
  79.500      3.02620E-03
  80.500      3.22300E-03
  81.500      3.22960E-03
  82.500      3.33150E-03
  83.500      2.75700E-03
  84.500      3.23380E-03
  85.500      2.91320E-03
  86.500      3.29860E-03
  87.500      3.37140E-03
  88.500      3.28630E-03
  89.500      3.26620E-03
  90.500      3.17950E-03
  91.500      2.32120E-03
  92.500      3.58610E-03
  93.500      4.58660E-03
  94.500      5.24310E-03
  95.500      6.37010E-03
  96.500      6.82010E-03
  97.500      5.16480E-03
  98.500      6.07650E-03
  99.500      5.33980E-03
  100.50      5.38580E-03
  101.50      5.68750E-03
  102.50      5.41850E-03
  103.50      6.12630E-03
  104.50      6.65070E-03
  105.50      6.52820E-03
  106.50      5.98470E-03
  107.50      6.50170E-03
  108.50      5.73240E-03
  109.50      6.38890E-03
  110.50      6.27370E-03
  111.50      6.30420E-03
  112.50      6.01070E-03
  113.50      6.36040E-03
  114.50      6.45320E-03
  115.50      5.97490E-03
  116.50      5.55980E-03
  117.50      5.12320E-03
  118.50      5.72960E-03
  119.50      5.26440E-03
  120.50      5.27090E-03
  121.50      4.49390E-03
  122.50      5.14280E-03
  123.50      5.06570E-03
  124.50      4.92320E-03
  125.50      5.22190E-03
  126.50      5.31690E-03
  127.50      5.44370E-03
  128.50      5.45800E-03
  129.50      5.48560E-03
  130.50      5.35540E-03
  131.50      5.37540E-03
  132.50      5.33080E-03
  133.50      5.26660E-03
  134.50      5.16400E-03
  135.50      5.05740E-03
  136.50      4.84180E-03
  137.50      4.60800E-03
  138.50      4.77210E-03
  139.50      4.55390E-03
  140.50      4.33680E-03
  141.50      5.01650E-03
  142.50      4.65090E-03
  143.50      4.93540E-03
  144.20      4.64790E-03
  144.70      4.69150E-03
  145.50      4.59030E-03
  146.50      4.58890E-03
  147.50      4.65120E-03
  148.50      4.73000E-03
  149.50      4.61490E-03
  150.50      4.57600E-03
  151.20      4.57910E-03
  151.70      4.49270E-03
  152.50      4.53960E-03
  153.50      4.19690E-03
  154.50      3.45200E-03
  155.50      3.59770E-03
  156.50      4.07390E-03
  157.50      4.22110E-03
  158.50      4.10470E-03
  159.50      4.27610E-03
  160.50      4.10660E-03
  161.50      4.02860E-03
  162.50      4.13960E-03
  163.50      4.15060E-03
  164.50      4.02520E-03
  165.50      4.16990E-03
  166.50      4.05470E-03
  167.20      3.93230E-03
  167.70      4.29650E-03
  168.50      4.25210E-03
  169.50      4.25510E-03
  170.50      4.12290E-03
  171.50      3.96060E-03
  172.50      3.91730E-03
  173.50      4.09980E-03
  174.50      4.10180E-03
  175.50      4.06680E-03
  176.50      3.97940E-03
  177.50      3.92600E-03
  178.50      3.99420E-03
  179.50      3.89400E-03
  180.50      3.87390E-03
  181.50      3.81320E-03
  182.50      3.79010E-03
  183.50      3.78700E-03
  184.50      3.80790E-03
  185.50      3.79490E-03
  186.50      3.82010E-03
  187.50      3.71710E-03
  188.50      3.68260E-03
  189.50      3.74270E-03
  190.50      3.72070E-03
  191.50      3.70400E-03
  192.50      3.52900E-03
  193.50      3.67520E-03
  194.50      3.67240E-03
  195.50      3.55410E-03
  196.70      3.58310E-03
  197.60      3.52490E-03
  198.40      3.57130E-03
  199.50      3.53430E-03
  200.50      3.54190E-03
  201.50      3.52060E-03
  202.50      3.51020E-03
  203.50      3.44840E-03
  204.50      3.40970E-03
  205.50      2.48330E-03
  206.50      2.38640E-03
  207.40      2.45340E-03
  207.80      2.51460E-03
  208.50      2.69060E-03
  209.50      3.02650E-03
  210.50      3.20350E-03
  211.50      3.26940E-03
  212.50      3.20750E-03
  213.50      3.23890E-03
  214.50      3.20720E-03
  215.50      3.19090E-03
  216.50      3.00050E-03
  217.50      3.18540E-03
  218.50      3.04580E-03
  219.50      3.17520E-03
  220.50      3.14330E-03
  221.50      2.97060E-03
  222.50      3.11610E-03
  223.50      3.09380E-03
  224.50      3.07120E-03
  225.50      2.92610E-03
  226.50      3.01530E-03
  227.50      3.03830E-03
  228.50      2.93030E-03
  229.50      2.89830E-03
  230.50      2.82610E-03
  231.50      2.86840E-03
  232.50      2.90690E-03
  233.50      2.90160E-03
  234.50      2.85100E-03
  235.50      2.80170E-03
  236.50      2.76990E-03
  237.50      2.71470E-03
  238.50      2.56340E-03
  239.50      2.67200E-03
  240.50      2.66150E-03
  241.50      2.65200E-03
  242.50      2.68440E-03
  243.50      2.64920E-03
  244.50      2.63520E-03
  245.50      2.58850E-03
  246.50      2.60190E-03
  247.50      2.62700E-03
  248.50      2.56400E-03
  249.50      2.17800E-03
  250.50      2.52390E-03
  251.30      2.33190E-03
  251.80      2.43680E-03
  252.50      2.47760E-03
  253.50      2.50930E-03
  254.50      2.50260E-03
  255.50      2.48880E-03
  256.50      2.47250E-03
  257.50      2.45420E-03
  258.50      2.44200E-03
  259.50      2.35130E-03
  260.50      2.41450E-03
  261.50      2.34530E-03
  262.50      2.39050E-03
  263.50      2.38330E-03
  264.50      2.33660E-03
  265.50      2.35200E-03
  266.50      2.33200E-03
  267.50      2.26880E-03
  268.50      2.28770E-03
  269.50      2.27120E-03
  270.50      2.29560E-03
  271.50      2.27370E-03
  272.50      2.25050E-03
  273.50      2.16130E-03
  274.50      2.23900E-03
  275.50      2.20750E-03
  276.50      2.20740E-03
  277.50      2.18350E-03
  278.50      2.13030E-03
  279.50      2.11800E-03
  280.50      2.13380E-03
  281.50      2.12620E-03
  282.50      2.09970E-03
  283.50      2.10770E-03
  284.50      2.10380E-03
  285.50      2.08730E-03
  286.50      2.04760E-03
  287.50      2.02950E-03
  288.50      2.04410E-03
  289.50      2.02010E-03
  291.00      2.00990E-03
  293.00      2.00270E-03
  295.00      1.98190E-03
  297.00      1.95000E-03
  299.00      1.91070E-03
  301.00      1.88880E-03
  303.00      1.84790E-03
  305.00      1.84810E-03
  307.00      1.80310E-03
  309.00      1.81410E-03
  311.00      1.80120E-03
  313.00      1.77750E-03
  315.00      1.77190E-03
  317.00      1.74910E-03
  319.00      1.73600E-03
  321.00      1.66970E-03
  323.00      1.70020E-03
  325.00      1.68660E-03
  327.00      1.64380E-03
  329.00      1.64300E-03
  331.00      1.62360E-03
  333.00      1.60040E-03
  335.00      1.56340E-03
  337.00      1.56320E-03
  339.00      1.54290E-03
  341.00      1.52820E-03
  343.00      1.53420E-03
  345.00      1.49460E-03
  347.00      1.49820E-03
  349.00      1.48760E-03
  351.00      1.48010E-03
  353.00      1.45600E-03
  355.00      1.44500E-03
  357.00      1.43020E-03
  359.00      1.42110E-03
  361.00      1.40400E-03
  363.00      1.38770E-03
  364.00      1.35380E-03
  365.00      1.20370E-03
  367.00      1.19540E-03
  369.00      1.18480E-03
  371.00      1.17180E-03
  373.00      1.18960E-03
  375.00      1.20950E-03
  377.00      1.22650E-03
  379.00      1.26530E-03
  381.00      1.29030E-03
  383.00      1.23290E-03
  385.00      1.29490E-03
  387.00      1.27890E-03
  389.00      1.17880E-03
  391.00      1.28470E-03
  393.00      1.26170E-03
  395.00      1.24330E-03
  397.00      1.12220E-03
  399.00      1.23930E-03
  401.00      1.23030E-03
  403.00      1.19740E-03
  405.00      1.21450E-03
  407.00      1.19330E-03
  409.00      1.14130E-03
  411.00      1.07870E-03
  413.00      1.16340E-03
  415.00      1.15990E-03
  417.00      1.15500E-03
  419.00      1.13770E-03
  421.00      1.11000E-03
  423.00      1.12850E-03
  425.00      1.11630E-03
  427.00      1.10850E-03
  429.00      1.09740E-03
  431.00      1.08150E-03
  433.00      1.03100E-03
  435.00      9.86940E-04
  437.00      1.05390E-03
  439.00      1.03880E-03
  441.00      1.02770E-03
  443.00      1.02920E-03
  445.00      1.01730E-03
  447.00      1.00870E-03
  449.00      1.00670E-03
  451.00      9.91770E-04
  453.00      9.82710E-04
  455.00      9.53890E-04
  457.00      9.72140E-04
  459.00      9.62970E-04
  461.00      9.58020E-04
  463.00      9.40030E-04
  465.00      9.11530E-04
  467.00      9.31440E-04
  469.00      8.95140E-04
  471.00      9.24860E-04
  473.00      9.23500E-04
  475.00      9.17040E-04
  477.00      9.09340E-04
  479.00      8.98600E-04
  481.00      8.94040E-04
  483.00      8.86190E-04
  485.00      8.55250E-04
  487.00      8.00570E-04
  489.00      8.63840E-04
  491.00      8.59330E-04
  493.00      8.53480E-04
  495.00      8.48350E-04
  497.00      8.43690E-04
  499.00      8.38210E-04
  501.00      8.26540E-04
  503.00      8.22150E-04
  505.00      8.17300E-04
  507.00      8.13440E-04
  509.00      8.08120E-04
  511.00      8.01680E-04
  513.00      7.95210E-04
  515.00      7.90140E-04
  517.00      7.85250E-04
  519.00      7.79620E-04
  521.00      7.73330E-04
  523.00      7.68930E-04
  525.00      7.61300E-04
  527.00      7.54770E-04
  529.00      7.53000E-04
  531.00      7.47290E-04
  533.00      7.42190E-04
  535.00      7.37650E-04
  537.00      7.32060E-04
  539.00      7.27040E-04
  541.00      7.02300E-04
  543.00      7.17160E-04
  545.00      7.12740E-04
  547.00      7.07390E-04
  549.00      7.03010E-04
  551.00      6.96340E-04
  553.00      6.93610E-04
  555.00      6.89190E-04
  557.00      6.83300E-04
  559.00      6.75430E-04
  561.00      6.75560E-04
  563.00      6.71000E-04
  565.00      6.66540E-04
  567.00      6.62140E-04
  569.00      6.44880E-04
  571.00      5.98110E-04
  573.00      5.94540E-04
  575.00      5.90730E-04
  577.00      5.87740E-04
  579.00      5.84500E-04
  581.00      5.76000E-04
  583.00      5.79170E-04
  585.00      5.78740E-04
  587.00      5.74300E-04
  589.00      5.77970E-04
  591.00      5.78400E-04
  593.00      5.79270E-04
  595.00      5.80960E-04
  597.00      5.82860E-04
  599.00      5.85320E-04
  601.00      5.85670E-04
  603.00      5.85930E-04
  605.00      5.85130E-04
  607.00      5.81930E-04
  609.00      5.79210E-04
  611.00      5.75410E-04
  613.00      5.72210E-04
  615.00      5.69210E-04
  617.00      5.64560E-04
  619.00      5.63210E-04
  621.00      5.60280E-04
  623.00      5.54280E-04
  625.00      5.52490E-04
  627.00      5.50280E-04
  629.00      5.46880E-04
  631.00      5.39990E-04
  633.00      5.40160E-04
  635.00      5.37240E-04
  637.00      5.34570E-04
  639.00      5.30270E-04
  641.00      5.23300E-04
  643.00      5.25020E-04
  645.00      5.21580E-04
  647.00      5.18420E-04
  649.00      5.15740E-04
  651.00      5.10410E-04
  653.00      5.02770E-04
  655.00      4.97030E-04
  657.00      4.60490E-04
  659.00      4.99170E-04
  661.00      4.98580E-04
  663.00      4.95980E-04
  665.00      4.93110E-04
  667.00      4.85970E-04
  669.00      4.78130E-04
  671.00      4.82730E-04
  673.00      4.81310E-04
  675.00      4.78690E-04
  677.00      4.76400E-04
  679.00      4.74170E-04
  681.00      4.71530E-04
  683.00      4.68940E-04
  685.00      4.66110E-04
  687.00      4.63240E-04
  689.00      4.51940E-04
  691.00      4.57660E-04
  693.00      4.56280E-04
  695.00      4.53700E-04
  697.00      4.51340E-04
  699.00      4.48640E-04
  701.00      4.45480E-04
  703.00      4.42640E-04
  705.00      4.40150E-04
  707.00      4.37060E-04
  709.00      4.36960E-04
  711.00      4.33950E-04
  713.00      4.31700E-04
  715.00      4.30080E-04
  717.00      4.21300E-04
  719.00      4.21170E-04
  721.00      4.23090E-04
  723.00      4.21060E-04
  725.00      4.18900E-04
  727.00      4.16750E-04
  729.00      4.14130E-04
  731.00      4.11270E-04
  733.00      4.10270E-04
  735.00      4.08200E-04
  737.00      4.05360E-04
  739.00      4.03400E-04
  741.00      4.01220E-04
  743.00      3.99910E-04
  745.00      3.96700E-04
  747.00      3.95530E-04
  749.00      3.92280E-04
  751.00      3.91120E-04
  753.00      3.89620E-04
  755.00      3.87560E-04
  757.00      3.85340E-04
  759.00      3.74360E-04
  761.00      3.80250E-04
  763.00      3.79730E-04
  765.00      3.77790E-04
  767.00      3.75770E-04
  769.00      3.72560E-04
  771.00      3.71170E-04
  773.00      3.68500E-04
  775.00      3.68230E-04
  777.00      3.67260E-04
  779.00      3.65040E-04
  781.00      3.63650E-04
  783.00      3.61730E-04
  785.00      3.57930E-04
  787.00      3.57370E-04
  789.00      3.56220E-04
  791.00      3.54940E-04
  793.00      3.53370E-04
  795.00      3.51530E-04
  797.00      3.48690E-04
  799.00      3.48230E-04
  801.00      3.46600E-04
  803.00      3.44560E-04
  805.00      3.43400E-04
  807.00      3.41780E-04
  809.00      3.40180E-04
  811.00      3.38520E-04
  813.00      3.37000E-04
  815.00      3.35390E-04
  817.00      3.32940E-04
  819.00      3.30270E-04
  821.00      3.12430E-04
  823.00      3.08200E-04
  825.00      3.08890E-04
  827.00      3.08270E-04
  829.00      3.07050E-04
  831.00      3.05810E-04
  833.00      3.03440E-04
  835.00      3.02720E-04
  837.00      3.01690E-04
  839.00      3.00690E-04
  841.00      2.99570E-04
  843.00      2.98490E-04
  845.00      2.97330E-04
  847.00      2.96420E-04
  849.00      2.95580E-04
  851.00      2.94180E-04
  853.00      2.93960E-04
  855.00      2.92940E-04
  857.00      2.92130E-04
  859.00      2.91380E-04
  861.00      2.90780E-04
  863.00      2.90880E-04
  865.00      2.89810E-04
  867.00      2.87060E-04
  869.00      2.89210E-04
  871.00      2.89140E-04
  873.00      2.88010E-04
  875.00      2.83440E-04
  877.00      2.86290E-04
  879.00      2.87610E-04
  881.00      2.87510E-04
  883.00      2.86640E-04
  885.00      2.81900E-04
  887.00      2.75910E-04
  889.00      2.82890E-04
  891.00      2.83570E-04
  893.00      2.82610E-04
  895.00      2.81850E-04
  897.00      2.80750E-04
  899.00      2.77680E-04
  901.00      2.65720E-04
  903.00      2.69410E-04
  905.00      2.75170E-04
  907.00      2.75000E-04
  909.00      2.74190E-04
  911.00      2.72980E-04
  913.00      2.72260E-04
  915.00      2.71540E-04
  917.00      2.69410E-04
  919.00      2.67880E-04
  921.00      2.63010E-04
  923.00      2.47880E-04
  925.00      2.59730E-04
  927.00      2.63200E-04
  929.00      2.62930E-04
  931.00      2.62240E-04
  933.00      2.60570E-04
  935.00      2.52020E-04
  937.00      2.57600E-04
  939.00      2.57680E-04
  941.00      2.56700E-04
  943.00      2.55970E-04
  945.00      2.54970E-04
  947.00      2.53840E-04
  949.00      2.52300E-04
  951.00      2.50310E-04
  953.00      2.44610E-04
  955.00      2.29510E-04
  957.00      2.44250E-04
  959.00      2.46880E-04
  961.00      2.46660E-04
  963.00      2.45440E-04
  965.00      2.45080E-04
  967.00      2.44210E-04
  969.00      2.43250E-04
  971.00      2.39630E-04
  973.00      2.40710E-04
  975.00      2.39680E-04
  977.00      2.37460E-04
  979.00      2.38300E-04
  981.00      2.37430E-04
  983.00      2.36120E-04
  985.00      2.35630E-04
  987.00      2.34750E-04
  989.00      2.33770E-04
  991.00      2.32680E-04
  993.00      2.32000E-04
  995.00      2.31110E-04
  997.00      2.30200E-04
  999.00      2.29000E-04
  1002.5      2.21990E-04
  1007.5      2.17400E-04
  1012.5      2.17840E-04
  1017.5      2.21240E-04
  1022.5      2.19130E-04
  1027.5      2.16740E-04
  1032.5      2.14670E-04
  1037.5      2.13010E-04
  1042.5      2.09540E-04
  1047.5      2.09190E-04
  1052.5      2.07230E-04
  1057.5      2.05360E-04
  1062.5      2.03500E-04
  1067.5      2.01640E-04
  1072.5      1.99830E-04
  1077.5      1.98030E-04
  1082.5      1.95560E-04
  1087.5      1.94060E-04
  1092.5      1.83070E-04
  1097.5      1.88320E-04
  1102.5      1.89270E-04
  1107.5      1.87750E-04
  1112.5      1.86100E-04
  1117.5      1.84640E-04
  1122.5      1.82960E-04
  1127.5      1.81310E-04
  1132.5      1.79730E-04
  1137.5      1.78290E-04
  1142.5      1.76820E-04
  1147.5      1.75340E-04
  1152.5      1.73880E-04
  1157.5      1.72250E-04
  1162.5      1.68090E-04
  1167.5      1.67420E-04
  1172.5      1.68070E-04
  1177.5      1.66760E-04
  1182.5      1.65100E-04
  1187.5      1.63940E-04
  1192.5      1.62610E-04
  1197.5      1.60890E-04
  1202.5      1.60060E-04
  1207.5      1.58660E-04
  1212.5      1.57310E-04
  1217.5      1.56220E-04
  1222.5      1.54950E-04
  1227.5      1.53750E-04
  1232.5      1.52490E-04
  1237.5      1.51330E-04
  1242.5      1.50140E-04
  1247.5      1.48970E-04
  1252.5      1.47770E-04
  1257.5      1.46630E-04
  1262.5      1.45520E-04
  1267.5      1.44400E-04
  1272.5      1.43260E-04
  1277.5      1.41020E-04
  1282.5      1.33110E-04
  1287.5      1.39480E-04
  1292.5      1.38990E-04
  1297.5      1.37870E-04
  1302.5      1.36880E-04
  1307.5      1.35880E-04
  1312.5      1.34870E-04
  1317.5      1.33850E-04
  1322.5      1.32880E-04
  1327.5      1.31900E-04
  1332.5      1.30930E-04
  1337.5      1.29960E-04
  1342.5      1.29010E-04
  1347.5      1.28070E-04
  1352.5      1.27150E-04
  1357.5      1.26240E-04
  1362.5      1.25330E-04
  1367.5      1.24430E-04
  1372.5      1.23510E-04
  1377.5      1.22660E-04
  1382.5      1.21800E-04
  1387.5      1.20940E-04
  1392.5      1.20080E-04
  1397.5      1.19250E-04
