 Castelli and Kurucz 2004-2012 Atmosphere
 T     36000.     G    4.00000 [0.5a] VTURB=2  L/H=1.25 NOVER NEW ODF          
 Wavelength  Eddington Hnu
   (nm)    (ergs/s/cm2/Hz/sr)
  9.0900      1.62510E-29
  9.3500      7.80330E-29
  9.6100      3.38870E-28
  9.7700      8.28320E-28
  9.9600      2.26550E-27
  10.200      7.67650E-27
  10.380      1.85270E-26
  10.560      4.34650E-26
  10.770      1.13620E-25
  11.040      3.71590E-25
  11.400      1.66260E-24
  11.780      7.36350E-24
  12.130      2.70080E-23
  12.480      9.23350E-23
  12.710      2.00230E-22
  12.840      3.06560E-22
  13.050      5.98830E-22
  13.240      1.07890E-21
  13.390      1.70710E-21
  13.660      3.76240E-21
  13.980      9.43910E-21
  14.330      2.43340E-20
  14.720      6.51530E-20
  15.100      1.72570E-19
  15.520      4.64670E-19
  15.880      1.04600E-18
  16.200      2.06540E-18
  16.600      4.83010E-18
  17.030      1.12800E-17
  17.340      2.05440E-17
  17.680      3.97460E-17
  18.020      7.29590E-17
  18.170      9.73590E-17
  18.610      2.06860E-16
  19.100      4.60530E-16
  19.390      7.29130E-16
  19.840      1.46260E-15
  20.180      2.38090E-15
  20.500      3.74190E-15
  21.050      7.88610E-15
  21.620      1.62040E-14
  21.980      2.57060E-14
  22.300      3.76970E-14
  22.680      6.63210E-14
  23.000      3.79940E-11
  23.400      8.25440E-11
  24.000      1.23050E-10
  24.650      1.94790E-10
  25.240      3.75680E-10
  25.680      5.76670E-10
  26.000      8.22990E-10
  26.400      1.93400E-09
  26.850      3.43570E-09
  27.350      4.50200E-09
  27.850      4.65580E-09
  28.400      1.09300E-08
  29.000      1.58380E-08
  29.600      1.89210E-08
  30.100      4.18950E-08
  30.800      8.44520E-08
  31.800      1.69230E-07
  32.800      2.72050E-07
  33.800      5.23420E-07
  34.800      8.03820E-07
  35.700      1.72050E-06
  36.600      4.69780E-06
  37.500      5.75210E-06
  38.500      9.10200E-06
  39.500      2.57310E-05
  40.500      6.08760E-05
  41.400      6.45500E-05
  42.200      6.71450E-05
  43.000      6.46400E-05
  44.100      8.57130E-05
  45.100      9.16330E-05
  46.000      6.85530E-05
  47.000      8.90860E-05
  48.000      1.20530E-04
  49.000      6.40980E-05
  50.000      1.38350E-04
  50.600      8.29300E-05
  51.200      2.81260E-04
  52.000      2.72370E-04
  53.000      2.63070E-04
  54.000      2.38170E-04
  55.000      1.76800E-04
  56.000      2.86470E-04
  57.000      5.06320E-04
  58.000      5.03590E-04
  59.000      5.12850E-04
  60.000      2.59660E-04
  61.000      3.16440E-04
  62.000      5.44780E-04
  63.000      5.30150E-04
  64.000      6.59420E-04
  65.000      5.77800E-04
  65.800      3.24190E-04
  66.500      5.90200E-04
  67.500      7.80150E-04
  68.500      5.26640E-04
  69.500      7.67320E-04
  70.500      4.32660E-04
  71.600      8.93490E-04
  72.600      9.27130E-04
  73.500      9.49490E-04
  74.500      7.69990E-04
  75.500      7.97320E-04
  76.500      7.52350E-04
  77.500      9.09860E-04
  78.500      6.97440E-04
  79.500      9.28720E-04
  80.500      9.10540E-04
  81.500      9.35600E-04
  82.500      1.03110E-03
  83.500      6.80580E-04
  84.500      9.98610E-04
  85.500      9.32700E-04
  86.500      1.06680E-03
  87.500      1.09880E-03
  88.500      1.10630E-03
  89.500      1.11120E-03
  90.500      1.08420E-03
  91.500      9.70660E-04
  92.500      1.71340E-03
  93.500      2.42660E-03
  94.500      2.63530E-03
  95.500      2.98890E-03
  96.500      3.21410E-03
  97.500      2.00420E-03
  98.500      2.74530E-03
  99.500      2.45760E-03
  100.50      2.47970E-03
  101.50      2.72490E-03
  102.50      2.61720E-03
  103.50      2.89880E-03
  104.50      3.21160E-03
  105.50      3.11820E-03
  106.50      2.86050E-03
  107.50      2.96010E-03
  108.50      2.79760E-03
  109.50      2.96520E-03
  110.50      2.90640E-03
  111.50      2.88700E-03
  112.50      2.47930E-03
  113.50      2.88780E-03
  114.50      2.94620E-03
  115.50      2.68420E-03
  116.50      2.68440E-03
  117.50      2.02760E-03
  118.50      2.56180E-03
  119.50      2.43330E-03
  120.50      2.44760E-03
  121.50      2.21040E-03
  122.50      2.41000E-03
  123.50      2.54120E-03
  124.50      2.48810E-03
  125.50      2.54020E-03
  126.50      2.64030E-03
  127.50      2.79330E-03
  128.50      2.81670E-03
  129.50      2.77510E-03
  130.50      2.73550E-03
  131.50      2.86990E-03
  132.50      2.84740E-03
  133.50      2.79330E-03
  134.50      2.82290E-03
  135.50      2.75030E-03
  136.50      2.68920E-03
  137.50      2.59560E-03
  138.50      2.60490E-03
  139.50      2.20440E-03
  140.50      2.18950E-03
  141.50      2.68760E-03
  142.50      2.42440E-03
  143.50      2.63070E-03
  144.20      2.53610E-03
  144.70      2.56020E-03
  145.50      2.46300E-03
  146.50      2.46170E-03
  147.50      2.53020E-03
  148.50      2.57410E-03
  149.50      2.51690E-03
  150.50      2.52140E-03
  151.20      2.52570E-03
  151.70      2.53690E-03
  152.50      2.47520E-03
  153.50      2.21130E-03
  154.50      1.69000E-03
  155.50      1.78740E-03
  156.50      2.15520E-03
  157.50      2.29670E-03
  158.50      2.29620E-03
  159.50      2.35250E-03
  160.50      2.22980E-03
  161.50      2.16670E-03
  162.50      2.24420E-03
  163.50      2.28980E-03
  164.50      2.29650E-03
  165.50      2.32000E-03
  166.50      2.27570E-03
  167.20      2.12500E-03
  167.70      2.50520E-03
  168.50      2.42310E-03
  169.50      2.38850E-03
  170.50      2.37210E-03
  171.50      2.24960E-03
  172.50      2.22690E-03
  173.50      2.33790E-03
  174.50      2.35250E-03
  175.50      2.32900E-03
  176.50      2.31040E-03
  177.50      2.25690E-03
  178.50      2.32140E-03
  179.50      2.26560E-03
  180.50      2.27190E-03
  181.50      2.25320E-03
  182.50      2.22220E-03
  183.50      2.24720E-03
  184.50      2.24030E-03
  185.50      2.27020E-03
  186.50      2.28270E-03
  187.50      2.21720E-03
  188.50      2.18680E-03
  189.50      2.22680E-03
  190.50      2.24740E-03
  191.50      2.22940E-03
  192.50      2.11690E-03
  193.50      2.23900E-03
  194.50      2.24940E-03
  195.50      2.10520E-03
  196.70      2.19380E-03
  197.60      2.19960E-03
  198.40      2.20440E-03
  199.50      2.17380E-03
  200.50      2.21920E-03
  201.50      2.21100E-03
  202.50      2.20840E-03
  203.50      2.17020E-03
  204.50      2.14380E-03
  205.50      1.63990E-03
  206.50      1.59920E-03
  207.40      1.69810E-03
  207.80      1.73820E-03
  208.50      1.93600E-03
  209.50      2.05810E-03
  210.50      2.05560E-03
  211.50      2.10320E-03
  212.50      2.06250E-03
  213.50      2.08590E-03
  214.50      2.06810E-03
  215.50      2.06900E-03
  216.50      1.97160E-03
  217.50      2.05420E-03
  218.50      2.00520E-03
  219.50      2.06350E-03
  220.50      2.04420E-03
  221.50      1.97510E-03
  222.50      2.01940E-03
  223.50      2.00860E-03
  224.50      1.99130E-03
  225.50      1.94720E-03
  226.50      1.96910E-03
  227.50      1.97990E-03
  228.50      1.91540E-03
  229.50      1.81090E-03
  230.50      1.88150E-03
  231.50      1.87480E-03
  232.50      1.90310E-03
  233.50      1.89630E-03
  234.50      1.86710E-03
  235.50      1.83620E-03
  236.50      1.81310E-03
  237.50      1.77840E-03
  238.50      1.70930E-03
  239.50      1.75030E-03
  240.50      1.76240E-03
  241.50      1.75510E-03
  242.50      1.76690E-03
  243.50      1.75120E-03
  244.50      1.74270E-03
  245.50      1.72470E-03
  246.50      1.72060E-03
  247.50      1.72130E-03
  248.50      1.63500E-03
  249.50      1.10300E-03
  250.50      1.55650E-03
  251.30      1.58200E-03
  251.80      1.61150E-03
  252.50      1.65960E-03
  253.50      1.67040E-03
  254.50      1.65930E-03
  255.50      1.65310E-03
  256.50      1.64090E-03
  257.50      1.63670E-03
  258.50      1.63030E-03
  259.50      1.58750E-03
  260.50      1.61390E-03
  261.50      1.57940E-03
  262.50      1.59540E-03
  263.50      1.59740E-03
  264.50      1.57090E-03
  265.50      1.57720E-03
  266.50      1.56130E-03
  267.50      1.51890E-03
  268.50      1.54030E-03
  269.50      1.53130E-03
  270.50      1.54200E-03
  271.50      1.52530E-03
  272.50      1.51840E-03
  273.50      1.48380E-03
  274.50      1.51380E-03
  275.50      1.49450E-03
  276.50      1.49100E-03
  277.50      1.48430E-03
  278.50      1.45380E-03
  279.50      1.42940E-03
  280.50      1.45260E-03
  281.50      1.44940E-03
  282.50      1.44020E-03
  283.50      1.43420E-03
  284.50      1.43600E-03
  285.50      1.42410E-03
  286.50      1.40350E-03
  287.50      1.39510E-03
  288.50      1.39810E-03
  289.50      1.39130E-03
  291.00      1.37200E-03
  293.00      1.37180E-03
  295.00      1.35860E-03
  297.00      1.33830E-03
  299.00      1.31030E-03
  301.00      1.29030E-03
  303.00      1.26460E-03
  305.00      1.27210E-03
  307.00      1.25400E-03
  309.00      1.25160E-03
  311.00      1.24930E-03
  313.00      1.23100E-03
  315.00      1.23080E-03
  317.00      1.21560E-03
  319.00      1.20940E-03
  321.00      1.17470E-03
  323.00      1.18040E-03
  325.00      1.17620E-03
  327.00      1.14700E-03
  329.00      1.14730E-03
  331.00      1.13300E-03
  333.00      1.11890E-03
  335.00      1.09560E-03
  337.00      1.09410E-03
  339.00      1.09100E-03
  341.00      1.07970E-03
  343.00      1.08200E-03
  345.00      1.05690E-03
  347.00      1.05840E-03
  349.00      1.05200E-03
  351.00      1.04460E-03
  353.00      1.03170E-03
  355.00      1.02290E-03
  357.00      1.01410E-03
  359.00      1.00680E-03
  361.00      9.94260E-04
  363.00      9.85710E-04
  364.00      9.67890E-04
  365.00      8.85160E-04
  367.00      8.79900E-04
  369.00      8.74360E-04
  371.00      8.62900E-04
  373.00      8.76180E-04
  375.00      8.98150E-04
  377.00      9.04260E-04
  379.00      9.28560E-04
  381.00      9.42280E-04
  383.00      8.98800E-04
  385.00      9.44420E-04
  387.00      9.19690E-04
  389.00      8.71570E-04
  391.00      9.33090E-04
  393.00      9.11000E-04
  395.00      8.97930E-04
  397.00      8.31010E-04
  399.00      9.01210E-04
  401.00      8.90580E-04
  403.00      8.72270E-04
  405.00      8.78800E-04
  407.00      8.54900E-04
  409.00      8.28390E-04
  411.00      7.93350E-04
  413.00      8.38870E-04
  415.00      8.36310E-04
  417.00      8.37930E-04
  419.00      8.28340E-04
  421.00      8.14440E-04
  423.00      8.19430E-04
  425.00      8.06570E-04
  427.00      8.00620E-04
  429.00      7.91130E-04
  431.00      7.79650E-04
  433.00      7.59540E-04
  435.00      7.26520E-04
  437.00      7.66550E-04
  439.00      7.55420E-04
  441.00      7.46640E-04
  443.00      7.49840E-04
  445.00      7.42300E-04
  447.00      7.35460E-04
  449.00      7.35440E-04
  451.00      7.20590E-04
  453.00      7.19120E-04
  455.00      7.05730E-04
  457.00      7.12730E-04
  459.00      7.03540E-04
  461.00      7.00560E-04
  463.00      6.91120E-04
  465.00      6.61070E-04
  467.00      6.82400E-04
  469.00      6.67010E-04
  471.00      6.75610E-04
  473.00      6.81830E-04
  475.00      6.76830E-04
  477.00      6.72340E-04
  479.00      6.66950E-04
  481.00      6.61580E-04
  483.00      6.56720E-04
  485.00      6.42810E-04
  487.00      6.01860E-04
  489.00      6.40920E-04
  491.00      6.36120E-04
  493.00      6.29870E-04
  495.00      6.26780E-04
  497.00      6.26580E-04
  499.00      6.22780E-04
  501.00      6.10910E-04
  503.00      6.09590E-04
  505.00      6.06750E-04
  507.00      6.05260E-04
  509.00      6.01260E-04
  511.00      5.97000E-04
  513.00      5.92380E-04
  515.00      5.88550E-04
  517.00      5.84140E-04
  519.00      5.80600E-04
  521.00      5.76890E-04
  523.00      5.73740E-04
  525.00      5.67370E-04
  527.00      5.62770E-04
  529.00      5.62410E-04
  531.00      5.58270E-04
  533.00      5.54580E-04
  535.00      5.51520E-04
  537.00      5.47610E-04
  539.00      5.43620E-04
  541.00      5.32000E-04
  543.00      5.37280E-04
  545.00      5.33750E-04
  547.00      5.29870E-04
  549.00      5.26740E-04
  551.00      5.22090E-04
  553.00      5.20000E-04
  555.00      5.17010E-04
  557.00      5.12730E-04
  559.00      5.06940E-04
  561.00      5.07280E-04
  563.00      5.04040E-04
  565.00      5.00770E-04
  567.00      4.97430E-04
  569.00      4.85030E-04
  571.00      4.61160E-04
  573.00      4.58600E-04
  575.00      4.55440E-04
  577.00      4.53670E-04
  579.00      4.51440E-04
  581.00      4.46780E-04
  583.00      4.47970E-04
  585.00      4.48780E-04
  587.00      4.42870E-04
  589.00      4.48130E-04
  591.00      4.48380E-04
  593.00      4.48920E-04
  595.00      4.50180E-04
  597.00      4.50890E-04
  599.00      4.50040E-04
  601.00      4.48190E-04
  603.00      4.45230E-04
  605.00      4.42830E-04
  607.00      4.40070E-04
  609.00      4.38470E-04
  611.00      4.34900E-04
  613.00      4.32540E-04
  615.00      4.30270E-04
  617.00      4.26430E-04
  619.00      4.26270E-04
  621.00      4.24030E-04
  623.00      4.19350E-04
  625.00      4.18310E-04
  627.00      4.16560E-04
  629.00      4.14180E-04
  631.00      4.08820E-04
  633.00      4.09530E-04
  635.00      4.06770E-04
  637.00      4.05040E-04
  639.00      4.02630E-04
  641.00      3.97590E-04
  643.00      3.98330E-04
  645.00      3.95360E-04
  647.00      3.92860E-04
  649.00      3.90750E-04
  651.00      3.87020E-04
  653.00      3.83270E-04
  655.00      3.80930E-04
  657.00      3.53470E-04
  659.00      3.80060E-04
  661.00      3.78560E-04
  663.00      3.76830E-04
  665.00      3.74510E-04
  667.00      3.69040E-04
  669.00      3.64640E-04
  671.00      3.67160E-04
  673.00      3.64970E-04
  675.00      3.63650E-04
  677.00      3.62370E-04
  679.00      3.60760E-04
  681.00      3.58940E-04
  683.00      3.57000E-04
  685.00      3.54870E-04
  687.00      3.52710E-04
  689.00      3.46780E-04
  691.00      3.48380E-04
  693.00      3.47770E-04
  695.00      3.45800E-04
  697.00      3.44120E-04
  699.00      3.42230E-04
  701.00      3.39710E-04
  703.00      3.37450E-04
  705.00      3.35910E-04
  707.00      3.31800E-04
  709.00      3.33480E-04
  711.00      3.31410E-04
  713.00      3.29780E-04
  715.00      3.28470E-04
  717.00      3.24050E-04
  719.00      3.23730E-04
  721.00      3.23460E-04
  723.00      3.21360E-04
  725.00      3.19940E-04
  727.00      3.18580E-04
  729.00      3.15780E-04
  731.00      3.14580E-04
  733.00      3.13770E-04
  735.00      3.12210E-04
  737.00      3.10190E-04
  739.00      3.09000E-04
  741.00      3.07140E-04
  743.00      3.06070E-04
  745.00      3.03770E-04
  747.00      3.02530E-04
  749.00      2.99960E-04
  751.00      2.99590E-04
  753.00      2.98250E-04
  755.00      2.96870E-04
  757.00      2.95270E-04
  759.00      2.90080E-04
  761.00      2.91690E-04
  763.00      2.90890E-04
  765.00      2.89490E-04
  767.00      2.88380E-04
  769.00      2.85720E-04
  771.00      2.85000E-04
  773.00      2.82750E-04
  775.00      2.82370E-04
  777.00      2.81750E-04
  779.00      2.80060E-04
  781.00      2.79070E-04
  783.00      2.77660E-04
  785.00      2.74860E-04
  787.00      2.74140E-04
  789.00      2.73410E-04
  791.00      2.72550E-04
  793.00      2.71380E-04
  795.00      2.70200E-04
  797.00      2.68120E-04
  799.00      2.67560E-04
  801.00      2.66400E-04
  803.00      2.64810E-04
  805.00      2.64010E-04
  807.00      2.62820E-04
  809.00      2.61530E-04
  811.00      2.59970E-04
  813.00      2.59220E-04
  815.00      2.57920E-04
  817.00      2.56330E-04
  819.00      2.54370E-04
  821.00      2.44930E-04
  823.00      2.42390E-04
  825.00      2.42630E-04
  827.00      2.41390E-04
  829.00      2.40790E-04
  831.00      2.39980E-04
  833.00      2.37920E-04
  835.00      2.36940E-04
  837.00      2.36550E-04
  839.00      2.36160E-04
  841.00      2.35230E-04
  843.00      2.34590E-04
  845.00      2.33580E-04
  847.00      2.33010E-04
  849.00      2.32410E-04
  851.00      2.30330E-04
  853.00      2.31220E-04
  855.00      2.29390E-04
  857.00      2.30160E-04
  859.00      2.27890E-04
  861.00      2.27390E-04
  863.00      2.29350E-04
  865.00      2.27690E-04
  867.00      2.21710E-04
  869.00      2.27870E-04
  871.00      2.27990E-04
  873.00      2.26430E-04
  875.00      2.16610E-04
  877.00      2.24200E-04
  879.00      2.25900E-04
  881.00      2.25350E-04
  883.00      2.24020E-04
  885.00      2.19220E-04
  887.00      2.09860E-04
  889.00      2.20960E-04
  891.00      2.20840E-04
  893.00      2.19490E-04
  895.00      2.18940E-04
  897.00      2.18360E-04
  899.00      2.16290E-04
  901.00      2.03400E-04
  903.00      2.09560E-04
  905.00      2.14470E-04
  907.00      2.13280E-04
  909.00      2.12770E-04
  911.00      2.11850E-04
  913.00      2.11430E-04
  915.00      2.10830E-04
  917.00      2.09380E-04
  919.00      2.08580E-04
  921.00      2.05200E-04
  923.00      1.90650E-04
  925.00      2.03360E-04
  927.00      2.05100E-04
  929.00      2.04410E-04
  931.00      2.03520E-04
  933.00      2.02790E-04
  935.00      1.98760E-04
  937.00      2.00110E-04
  939.00      2.00370E-04
  941.00      1.99070E-04
  943.00      1.98600E-04
  945.00      1.97970E-04
  947.00      1.97000E-04
  949.00      1.96310E-04
  951.00      1.94650E-04
  953.00      1.91670E-04
  955.00      1.78190E-04
  957.00      1.91590E-04
  959.00      1.92620E-04
  961.00      1.91710E-04
  963.00      1.90470E-04
  965.00      1.90530E-04
  967.00      1.89970E-04
  969.00      1.89170E-04
  971.00      1.83930E-04
  973.00      1.86820E-04
  975.00      1.86890E-04
  977.00      1.85110E-04
  979.00      1.85520E-04
  981.00      1.84750E-04
  983.00      1.83820E-04
  985.00      1.83300E-04
  987.00      1.82730E-04
  989.00      1.81760E-04
  991.00      1.80910E-04
  993.00      1.80620E-04
  995.00      1.79990E-04
  997.00      1.79260E-04
  999.00      1.78570E-04
  1002.5      1.73820E-04
  1007.5      1.70320E-04
  1012.5      1.70850E-04
  1017.5      1.72500E-04
  1022.5      1.70760E-04
  1027.5      1.69010E-04
  1032.5      1.67230E-04
  1037.5      1.66190E-04
  1042.5      1.64090E-04
  1047.5      1.63250E-04
  1052.5      1.61710E-04
  1057.5      1.60310E-04
  1062.5      1.58860E-04
  1067.5      1.57410E-04
  1072.5      1.56080E-04
  1077.5      1.54680E-04
  1082.5      1.52230E-04
  1087.5      1.51850E-04
  1092.5      1.43950E-04
  1097.5      1.47950E-04
  1102.5      1.47820E-04
  1107.5      1.46790E-04
  1112.5      1.45500E-04
  1117.5      1.44380E-04
  1122.5      1.43070E-04
  1127.5      1.41820E-04
  1132.5      1.40550E-04
  1137.5      1.39420E-04
  1142.5      1.38330E-04
  1147.5      1.37180E-04
  1152.5      1.36100E-04
  1157.5      1.34810E-04
  1162.5      1.32650E-04
  1167.5      1.31830E-04
  1172.5      1.31670E-04
  1177.5      1.30620E-04
  1182.5      1.29310E-04
  1187.5      1.28430E-04
  1192.5      1.27390E-04
  1197.5      1.25550E-04
  1202.5      1.25460E-04
  1207.5      1.24360E-04
  1212.5      1.23290E-04
  1217.5      1.22490E-04
  1222.5      1.21490E-04
  1227.5      1.20600E-04
  1232.5      1.19590E-04
  1237.5      1.18710E-04
  1242.5      1.17810E-04
  1247.5      1.16900E-04
  1252.5      1.15840E-04
  1257.5      1.15040E-04
  1262.5      1.14220E-04
  1267.5      1.13370E-04
  1272.5      1.12500E-04
  1277.5      1.10750E-04
  1282.5      1.05680E-04
  1287.5      1.09860E-04
  1292.5      1.09190E-04
  1297.5      1.08100E-04
  1302.5      1.07480E-04
  1307.5      1.06790E-04
  1312.5      1.06010E-04
  1317.5      1.05220E-04
  1322.5      1.04460E-04
  1327.5      1.03700E-04
  1332.5      1.02940E-04
  1337.5      1.02180E-04
  1342.5      1.01420E-04
  1347.5      1.00710E-04
  1352.5      9.99690E-05
  1357.5      9.93140E-05
  1362.5      9.85680E-05
  1367.5      9.79100E-05
  1372.5      9.70910E-05
  1377.5      9.65340E-05
  1382.5      9.58710E-05
  1387.5      9.51960E-05
  1392.5      9.44800E-05
  1397.5      9.38850E-05
