 Castelli and Kurucz 2004-2012 Atmosphere
 T     41000.     G    4.50000 [0.5a] VTURB=2  L/H=1.25 NOVER NEW ODF          
 Wavelength  Eddington Hnu
   (nm)    (ergs/s/cm2/Hz/sr)
  9.0900      3.40200E-25
  9.3500      1.31190E-24
  9.6100      4.61340E-24
  9.7700      9.98580E-24
  9.9600      2.36910E-23
  10.200      6.75100E-23
  10.380      1.43680E-22
  10.560      2.98250E-22
  10.770      6.78590E-22
  11.040      1.86720E-21
  11.400      6.69510E-21
  11.780      2.36590E-20
  12.130      7.13390E-20
  12.480      2.01540E-19
  12.710      3.87330E-19
  12.840      5.54360E-19
  13.050      9.72400E-19
  13.240      1.59050E-18
  13.390      2.34320E-18
  13.660      4.53040E-18
  13.980      9.84890E-18
  14.330      2.16580E-17
  14.720      4.86100E-17
  15.100      1.12080E-16
  15.520      2.56730E-16
  15.880      5.07160E-16
  16.200      9.41130E-16
  16.600      1.92770E-15
  17.030      3.88210E-15
  17.340      6.36380E-15
  17.680      1.12290E-14
  18.020      1.87160E-14
  18.170      2.36200E-14
  18.610      4.50600E-14
  19.100      8.79280E-14
  19.390      1.30590E-13
  19.840      2.33910E-13
  20.180      3.47160E-13
  20.500      5.13040E-13
  21.050      9.55090E-13
  21.620      1.73130E-12
  21.980      2.55270E-12
  22.300      3.48400E-12
  22.680      5.68650E-12
  23.000      1.93590E-09
  23.400      4.60110E-09
  24.000      6.26190E-09
  24.650      1.00130E-08
  25.240      2.38630E-08
  25.680      3.78890E-08
  26.000      4.47350E-08
  26.400      9.63420E-08
  26.850      1.63220E-07
  27.350      2.12450E-07
  27.850      1.84190E-07
  28.400      4.56100E-07
  29.000      7.05330E-07
  29.600      6.97620E-07
  30.100      1.42460E-06
  30.800      6.44420E-06
  31.800      2.08930E-06
  32.800      3.79420E-06
  33.800      4.68510E-06
  34.800      6.23900E-06
  35.700      1.44560E-05
  36.600      3.78890E-05
  37.500      6.24000E-05
  38.500      7.96940E-05
  39.500      1.75140E-04
  40.500      4.34760E-04
  41.400      3.83430E-04
  42.200      3.67310E-04
  43.000      3.56610E-04
  44.100      4.60720E-04
  45.100      5.02040E-04
  46.000      3.52570E-04
  47.000      4.61540E-04
  48.000      6.38330E-04
  49.000      3.36640E-04
  50.000      8.00480E-04
  50.600      5.12370E-04
  51.200      9.83910E-04
  52.000      9.22650E-04
  53.000      8.73950E-04
  54.000      7.23830E-04
  55.000      4.98980E-04
  56.000      7.76300E-04
  57.000      1.32910E-03
  58.000      1.35260E-03
  59.000      1.38110E-03
  60.000      8.35640E-04
  61.000      7.73150E-04
  62.000      1.28650E-03
  63.000      1.19680E-03
  64.000      1.57290E-03
  65.000      1.39170E-03
  65.800      9.50630E-04
  66.500      1.49680E-03
  67.500      1.73760E-03
  68.500      1.34450E-03
  69.500      1.74200E-03
  70.500      1.16420E-03
  71.600      1.86130E-03
  72.600      1.94690E-03
  73.500      1.97770E-03
  74.500      1.75560E-03
  75.500      1.74760E-03
  76.500      1.56310E-03
  77.500      1.85270E-03
  78.500      1.36490E-03
  79.500      1.80690E-03
  80.500      1.88350E-03
  81.500      1.92110E-03
  82.500      2.01590E-03
  83.500      1.51850E-03
  84.500      1.95770E-03
  85.500      1.77120E-03
  86.500      2.03270E-03
  87.500      2.08640E-03
  88.500      2.05880E-03
  89.500      2.05400E-03
  90.500      2.00460E-03
  91.500      1.56740E-03
  92.500      2.58360E-03
  93.500      3.50000E-03
  94.500      3.90970E-03
  95.500      4.61520E-03
  96.500      4.94790E-03
  97.500      3.56720E-03
  98.500      4.37050E-03
  99.500      3.84670E-03
  100.50      3.83950E-03
  101.50      4.14910E-03
  102.50      3.97410E-03
  103.50      4.46780E-03
  104.50      4.85300E-03
  105.50      4.74750E-03
  106.50      4.40270E-03
  107.50      4.63570E-03
  108.50      4.24210E-03
  109.50      4.57980E-03
  110.50      4.49380E-03
  111.50      4.49500E-03
  112.50      4.15230E-03
  113.50      4.52000E-03
  114.50      4.60350E-03
  115.50      4.20350E-03
  116.50      4.06770E-03
  117.50      3.45070E-03
  118.50      4.02370E-03
  119.50      3.73930E-03
  120.50      3.76450E-03
  121.50      3.30480E-03
  122.50      3.67070E-03
  123.50      3.73860E-03
  124.50      3.65560E-03
  125.50      3.79290E-03
  126.50      3.90160E-03
  127.50      4.06430E-03
  128.50      4.07780E-03
  129.50      4.07730E-03
  130.50      3.98770E-03
  131.50      4.07890E-03
  132.50      4.05140E-03
  133.50      3.99270E-03
  134.50      3.97320E-03
  135.50      3.87000E-03
  136.50      3.74400E-03
  137.50      3.58570E-03
  138.50      3.66380E-03
  139.50      3.38910E-03
  140.50      3.25070E-03
  141.50      3.82140E-03
  142.50      3.48310E-03
  143.50      3.73980E-03
  144.20      3.55450E-03
  144.70      3.59200E-03
  145.50      3.48530E-03
  146.50      3.49500E-03
  147.50      3.55720E-03
  148.50      3.62280E-03
  149.50      3.53720E-03
  150.50      3.53890E-03
  151.20      3.54670E-03
  151.70      3.50920E-03
  152.50      3.49650E-03
  153.50      3.17980E-03
  154.50      2.51090E-03
  155.50      2.64380E-03
  156.50      3.07970E-03
  157.50      3.23520E-03
  158.50      3.18060E-03
  159.50      3.29500E-03
  160.50      3.13900E-03
  161.50      3.06500E-03
  162.50      3.16320E-03
  163.50      3.19580E-03
  164.50      3.14380E-03
  165.50      3.22600E-03
  166.50      3.13810E-03
  167.20      2.99750E-03
  167.70      3.39080E-03
  168.50      3.32440E-03
  169.50      3.30550E-03
  170.50      3.23370E-03
  171.50      3.08680E-03
  172.50      3.06090E-03
  173.50      3.20850E-03
  174.50      3.22050E-03
  175.50      3.18650E-03
  176.50      3.13440E-03
  177.50      3.08050E-03
  178.50      3.15170E-03
  179.50      3.07030E-03
  180.50      3.06390E-03
  181.50      3.02910E-03
  182.50      2.99400E-03
  183.50      3.00990E-03
  184.50      3.02930E-03
  185.50      3.03390E-03
  186.50      3.05190E-03
  187.50      2.96270E-03
  188.50      2.93690E-03
  189.50      2.99870E-03
  190.50      2.99170E-03
  191.50      2.97710E-03
  192.50      2.83340E-03
  193.50      2.96920E-03
  194.50      2.96850E-03
  195.50      2.83430E-03
  196.70      2.89590E-03
  197.60      2.87070E-03
  198.40      2.89740E-03
  199.50      2.86990E-03
  200.50      2.89020E-03
  201.50      2.87180E-03
  202.50      2.86380E-03
  203.50      2.81780E-03
  204.50      2.78300E-03
  205.50      2.04060E-03
  206.50      1.97160E-03
  207.40      2.06040E-03
  207.80      2.12070E-03
  208.50      2.32920E-03
  209.50      2.60400E-03
  210.50      2.64700E-03
  211.50      2.69260E-03
  212.50      2.63970E-03
  213.50      2.66850E-03
  214.50      2.64500E-03
  215.50      2.64140E-03
  216.50      2.49120E-03
  217.50      2.63130E-03
  218.50      2.53430E-03
  219.50      2.63110E-03
  220.50      2.60480E-03
  221.50      2.48490E-03
  222.50      2.57740E-03
  223.50      2.56100E-03
  224.50      2.54060E-03
  225.50      2.45050E-03
  226.50      2.50190E-03
  227.50      2.51860E-03
  228.50      2.42870E-03
  229.50      2.37240E-03
  230.50      2.36780E-03
  231.50      2.37880E-03
  232.50      2.41310E-03
  233.50      2.40780E-03
  234.50      2.36500E-03
  235.50      2.32440E-03
  236.50      2.29550E-03
  237.50      2.24770E-03
  238.50      2.14100E-03
  239.50      2.21380E-03
  240.50      2.21780E-03
  241.50      2.20940E-03
  242.50      2.22980E-03
  243.50      2.20610E-03
  244.50      2.19480E-03
  245.50      2.16480E-03
  246.50      2.16850E-03
  247.50      2.18430E-03
  248.50      2.11340E-03
  249.50      1.61720E-03
  250.50      2.06180E-03
  251.30      1.97140E-03
  251.80      2.03180E-03
  252.50      2.07840E-03
  253.50      2.09640E-03
  254.50      2.08790E-03
  255.50      2.07630E-03
  256.50      2.06100E-03
  257.50      2.05080E-03
  258.50      2.04240E-03
  259.50      1.97390E-03
  260.50      2.01860E-03
  261.50      1.96760E-03
  262.50      1.99790E-03
  263.50      1.99620E-03
  264.50      1.95810E-03
  265.50      1.97060E-03
  266.50      1.95290E-03
  267.50      1.89800E-03
  268.50      1.91860E-03
  269.50      1.90820E-03
  270.50      1.92600E-03
  271.50      1.90570E-03
  272.50      1.89170E-03
  273.50      1.83150E-03
  274.50      1.88340E-03
  275.50      1.85710E-03
  276.50      1.85560E-03
  277.50      1.83930E-03
  278.50      1.79660E-03
  279.50      1.77780E-03
  280.50      1.79870E-03
  281.50      1.79330E-03
  282.50      1.77560E-03
  283.50      1.77600E-03
  284.50      1.77560E-03
  285.50      1.76140E-03
  286.50      1.73210E-03
  287.50      1.71910E-03
  288.50      1.72690E-03
  289.50      1.71320E-03
  291.00      1.69670E-03
  293.00      1.69240E-03
  295.00      1.67600E-03
  297.00      1.64890E-03
  299.00      1.61430E-03
  301.00      1.59370E-03
  303.00      1.55910E-03
  305.00      1.56390E-03
  307.00      1.53240E-03
  309.00      1.53770E-03
  311.00      1.53000E-03
  313.00      1.50890E-03
  315.00      1.50640E-03
  317.00      1.48730E-03
  319.00      1.47800E-03
  321.00      1.42650E-03
  323.00      1.44460E-03
  325.00      1.43570E-03
  327.00      1.39920E-03
  329.00      1.39910E-03
  331.00      1.38200E-03
  333.00      1.36300E-03
  335.00      1.33240E-03
  337.00      1.33210E-03
  339.00      1.32110E-03
  341.00      1.30800E-03
  343.00      1.31190E-03
  345.00      1.27870E-03
  347.00      1.28220E-03
  349.00      1.27410E-03
  351.00      1.26650E-03
  353.00      1.24710E-03
  355.00      1.23730E-03
  357.00      1.22600E-03
  359.00      1.21780E-03
  361.00      1.20230E-03
  363.00      1.19010E-03
  364.00      1.16300E-03
  365.00      1.04090E-03
  367.00      1.03420E-03
  369.00      1.02650E-03
  371.00      1.01620E-03
  373.00      1.03480E-03
  375.00      1.05710E-03
  377.00      1.07080E-03
  379.00      1.10460E-03
  381.00      1.12180E-03
  383.00      1.07000E-03
  385.00      1.12670E-03
  387.00      1.10450E-03
  389.00      1.03020E-03
  391.00      1.11610E-03
  393.00      1.09090E-03
  395.00      1.07590E-03
  397.00      9.81410E-04
  399.00      1.07700E-03
  401.00      1.06580E-03
  403.00      1.03930E-03
  405.00      1.05220E-03
  407.00      1.02860E-03
  409.00      9.91360E-04
  411.00      9.41850E-04
  413.00      1.00580E-03
  415.00      1.00260E-03
  417.00      1.00130E-03
  419.00      9.87940E-04
  421.00      9.66290E-04
  423.00      9.78380E-04
  425.00      9.65600E-04
  427.00      9.59260E-04
  429.00      9.49020E-04
  431.00      9.35400E-04
  433.00      9.00810E-04
  435.00      8.62100E-04
  437.00      9.14830E-04
  439.00      9.00490E-04
  441.00      8.89980E-04
  443.00      8.92560E-04
  445.00      8.83550E-04
  447.00      8.75530E-04
  449.00      8.74680E-04
  451.00      8.58770E-04
  453.00      8.53730E-04
  455.00      8.32610E-04
  457.00      8.45370E-04
  459.00      8.35680E-04
  461.00      8.32190E-04
  463.00      8.18790E-04
  465.00      7.88910E-04
  467.00      8.10150E-04
  469.00      7.83740E-04
  471.00      8.03640E-04
  473.00      8.06010E-04
  475.00      8.00410E-04
  477.00      7.94100E-04
  479.00      7.86290E-04
  481.00      7.81060E-04
  483.00      7.75050E-04
  485.00      7.53250E-04
  487.00      7.04570E-04
  489.00      7.55670E-04
  491.00      7.50690E-04
  493.00      7.44390E-04
  495.00      7.40570E-04
  497.00      7.38010E-04
  499.00      7.33400E-04
  501.00      7.21480E-04
  503.00      7.18380E-04
  505.00      7.14700E-04
  507.00      7.12040E-04
  509.00      7.07400E-04
  511.00      7.02140E-04
  513.00      6.96490E-04
  515.00      6.91960E-04
  517.00      6.87370E-04
  519.00      6.82670E-04
  521.00      6.77640E-04
  523.00      6.73840E-04
  525.00      6.66680E-04
  527.00      6.61010E-04
  529.00      6.60110E-04
  531.00      6.55150E-04
  533.00      6.50720E-04
  535.00      6.46890E-04
  537.00      6.42150E-04
  539.00      6.37660E-04
  541.00      6.19610E-04
  543.00      6.29560E-04
  545.00      6.25480E-04
  547.00      6.20810E-04
  549.00      6.17060E-04
  551.00      6.11220E-04
  553.00      6.08870E-04
  555.00      6.05160E-04
  557.00      6.00010E-04
  559.00      5.92960E-04
  561.00      5.93450E-04
  563.00      5.89510E-04
  565.00      5.85660E-04
  567.00      5.81760E-04
  569.00      5.66520E-04
  571.00      5.28810E-04
  573.00      5.25720E-04
  575.00      5.22310E-04
  577.00      5.19890E-04
  579.00      5.17240E-04
  581.00      5.10750E-04
  583.00      5.13280E-04
  585.00      5.13930E-04
  587.00      5.09080E-04
  589.00      5.14080E-04
  591.00      5.14750E-04
  593.00      5.15910E-04
  595.00      5.17920E-04
  597.00      5.19820E-04
  599.00      5.21600E-04
  601.00      5.20600E-04
  603.00      5.18290E-04
  605.00      5.16080E-04
  607.00      5.12960E-04
  609.00      5.10790E-04
  611.00      5.06720E-04
  613.00      5.03890E-04
  615.00      5.01550E-04
  617.00      4.96830E-04
  619.00      4.96430E-04
  621.00      4.93920E-04
  623.00      4.88050E-04
  625.00      4.87000E-04
  627.00      4.85060E-04
  629.00      4.82210E-04
  631.00      4.75500E-04
  633.00      4.76470E-04
  635.00      4.73530E-04
  637.00      4.71310E-04
  639.00      4.68060E-04
  641.00      4.61360E-04
  643.00      4.63270E-04
  645.00      4.59880E-04
  647.00      4.57090E-04
  649.00      4.54680E-04
  651.00      4.50120E-04
  653.00      4.43980E-04
  655.00      4.40780E-04
  657.00      4.08670E-04
  659.00      4.41250E-04
  661.00      4.39940E-04
  663.00      4.37770E-04
  665.00      4.35220E-04
  667.00      4.28810E-04
  669.00      4.22120E-04
  671.00      4.26280E-04
  673.00      4.24440E-04
  675.00      4.22400E-04
  677.00      4.20650E-04
  679.00      4.18780E-04
  681.00      4.16510E-04
  683.00      4.14240E-04
  685.00      4.11730E-04
  687.00      4.09270E-04
  689.00      4.00230E-04
  691.00      4.04470E-04
  693.00      4.03230E-04
  695.00      4.00910E-04
  697.00      3.98910E-04
  699.00      3.96640E-04
  701.00      3.93740E-04
  703.00      3.91190E-04
  705.00      3.89200E-04
  707.00      3.85480E-04
  709.00      3.86340E-04
  711.00      3.83890E-04
  713.00      3.81900E-04
  715.00      3.80390E-04
  717.00      3.73670E-04
  719.00      3.73610E-04
  721.00      3.74470E-04
  723.00      3.72430E-04
  725.00      3.70530E-04
  727.00      3.68720E-04
  729.00      3.66030E-04
  731.00      3.63900E-04
  733.00      3.63060E-04
  735.00      3.61240E-04
  737.00      3.58730E-04
  739.00      3.57280E-04
  741.00      3.55120E-04
  743.00      3.54000E-04
  745.00      3.51160E-04
  747.00      3.50050E-04
  749.00      3.47020E-04
  751.00      3.46270E-04
  753.00      3.44920E-04
  755.00      3.43130E-04
  757.00      3.41210E-04
  759.00      3.33100E-04
  761.00      3.36950E-04
  763.00      3.36220E-04
  765.00      3.34550E-04
  767.00      3.33030E-04
  769.00      3.30020E-04
  771.00      3.29060E-04
  773.00      3.26510E-04
  775.00      3.26110E-04
  777.00      3.25370E-04
  779.00      3.23360E-04
  781.00      3.22210E-04
  783.00      3.20540E-04
  785.00      3.17060E-04
  787.00      3.16570E-04
  789.00      3.15680E-04
  791.00      3.14580E-04
  793.00      3.13250E-04
  795.00      3.11730E-04
  797.00      3.09170E-04
  799.00      3.08720E-04
  801.00      3.07320E-04
  803.00      3.05490E-04
  805.00      3.04530E-04
  807.00      3.03110E-04
  809.00      3.01670E-04
  811.00      3.00170E-04
  813.00      2.98910E-04
  815.00      2.97480E-04
  817.00      2.95380E-04
  819.00      2.93070E-04
  821.00      2.78640E-04
  823.00      2.75250E-04
  825.00      2.75740E-04
  827.00      2.74860E-04
  829.00      2.73880E-04
  831.00      2.72840E-04
  833.00      2.70590E-04
  835.00      2.69840E-04
  837.00      2.69120E-04
  839.00      2.68420E-04
  841.00      2.67450E-04
  843.00      2.66620E-04
  845.00      2.65610E-04
  847.00      2.64900E-04
  849.00      2.64220E-04
  851.00      2.62640E-04
  853.00      2.62930E-04
  855.00      2.61770E-04
  857.00      2.61520E-04
  859.00      2.60290E-04
  861.00      2.59810E-04
  863.00      2.60670E-04
  865.00      2.59380E-04
  867.00      2.55390E-04
  869.00      2.59240E-04
  871.00      2.59390E-04
  873.00      2.58090E-04
  875.00      2.50980E-04
  877.00      2.56140E-04
  879.00      2.57900E-04
  881.00      2.57650E-04
  883.00      2.56600E-04
  885.00      2.51300E-04
  887.00      2.43150E-04
  889.00      2.52830E-04
  891.00      2.53120E-04
  893.00      2.51800E-04
  895.00      2.51040E-04
  897.00      2.50260E-04
  899.00      2.47800E-04
  901.00      2.34570E-04
  903.00      2.39780E-04
  905.00      2.45580E-04
  907.00      2.44900E-04
  909.00      2.44260E-04
  911.00      2.42980E-04
  913.00      2.42550E-04
  915.00      2.41880E-04
  917.00      2.40180E-04
  919.00      2.38940E-04
  921.00      2.34870E-04
  923.00      2.19280E-04
  925.00      2.32190E-04
  927.00      2.34850E-04
  929.00      2.34440E-04
  931.00      2.33570E-04
  933.00      2.32420E-04
  935.00      2.26030E-04
  937.00      2.29310E-04
  939.00      2.29620E-04
  941.00      2.28470E-04
  943.00      2.27890E-04
  945.00      2.27100E-04
  947.00      2.26060E-04
  949.00      2.25070E-04
  951.00      2.23190E-04
  953.00      2.18870E-04
  955.00      2.04140E-04
  957.00      2.18660E-04
  959.00      2.20370E-04
  961.00      2.19890E-04
  963.00      2.18570E-04
  965.00      2.18380E-04
  967.00      2.17650E-04
  969.00      2.16770E-04
  971.00      2.12320E-04
  973.00      2.14310E-04
  975.00      2.13820E-04
  977.00      2.11560E-04
  979.00      2.12510E-04
  981.00      2.11640E-04
  983.00      2.10480E-04
  985.00      2.10030E-04
  987.00      2.09290E-04
  989.00      2.08320E-04
  991.00      2.07370E-04
  993.00      2.06850E-04
  995.00      2.06080E-04
  997.00      2.05250E-04
  999.00      2.04420E-04
  1002.5      1.98530E-04
  1007.5      1.94480E-04
  1012.5      1.94780E-04
  1017.5      1.97390E-04
  1022.5      1.95430E-04
  1027.5      1.93330E-04
  1032.5      1.91420E-04
  1037.5      1.90070E-04
  1042.5      1.87220E-04
  1047.5      1.86690E-04
  1052.5      1.84930E-04
  1057.5      1.83290E-04
  1062.5      1.81630E-04
  1067.5      1.79970E-04
  1072.5      1.78400E-04
  1077.5      1.76790E-04
  1082.5      1.74310E-04
  1087.5      1.73450E-04
  1092.5      1.64070E-04
  1097.5      1.68690E-04
  1102.5      1.69000E-04
  1107.5      1.67690E-04
  1112.5      1.66210E-04
  1117.5      1.64930E-04
  1122.5      1.63420E-04
  1127.5      1.61970E-04
  1132.5      1.60550E-04
  1137.5      1.59260E-04
  1142.5      1.57980E-04
  1147.5      1.56660E-04
  1152.5      1.55380E-04
  1157.5      1.53910E-04
  1162.5      1.50790E-04
  1167.5      1.50010E-04
  1172.5      1.50260E-04
  1177.5      1.49070E-04
  1182.5      1.47560E-04
  1187.5      1.46550E-04
  1192.5      1.45350E-04
  1197.5      1.43550E-04
  1202.5      1.43130E-04
  1207.5      1.41870E-04
  1212.5      1.40650E-04
  1217.5      1.39710E-04
  1222.5      1.38560E-04
  1227.5      1.37530E-04
  1232.5      1.36390E-04
  1237.5      1.35370E-04
  1242.5      1.34320E-04
  1247.5      1.33280E-04
  1252.5      1.32150E-04
  1257.5      1.31180E-04
  1262.5      1.30210E-04
  1267.5      1.29220E-04
  1272.5      1.28200E-04
  1277.5      1.26280E-04
  1282.5      1.19870E-04
  1287.5      1.25060E-04
  1292.5      1.24410E-04
  1297.5      1.23330E-04
  1302.5      1.22510E-04
  1307.5      1.21650E-04
  1312.5      1.20750E-04
  1317.5      1.19840E-04
  1322.5      1.18980E-04
  1327.5      1.18100E-04
  1332.5      1.17240E-04
  1337.5      1.16380E-04
  1342.5      1.15520E-04
  1347.5      1.14690E-04
  1352.5      1.13860E-04
  1357.5      1.13070E-04
  1362.5      1.12250E-04
  1367.5      1.11460E-04
  1372.5      1.10590E-04
  1377.5      1.09880E-04
  1382.5      1.09120E-04
  1387.5      1.08340E-04
  1392.5      1.07560E-04
  1397.5      1.06840E-04
