 Castelli and Kurucz 2004-2012 Atmosphere
 T     46000.     G    4.50000 [0.5a] VTURB=2  L/H=1.25 NOVER NEW ODF          
 Wavelength  Eddington Hnu
   (nm)    (ergs/s/cm2/Hz/sr)
  9.0900      7.49250E-22
  9.3500      2.46160E-21
  9.6100      7.38050E-21
  9.7700      1.46580E-20
  9.9600      3.13610E-20
  10.200      7.88910E-20
  10.380      1.53490E-19
  10.560      2.92270E-19
  10.770      6.03720E-19
  11.040      1.47580E-18
  11.400      4.56290E-18
  11.780      1.38470E-17
  12.130      3.69570E-17
  12.480      9.23200E-17
  12.710      1.64940E-16
  12.840      2.42620E-16
  13.050      3.99980E-16
  13.240      6.16370E-16
  13.390      8.70650E-16
  13.660      1.56490E-15
  13.980      3.10290E-15
  14.330      6.14410E-15
  14.720      1.20650E-14
  15.100      2.56100E-14
  15.520      5.29000E-14
  15.880      9.90370E-14
  16.200      3.08780E-13
  16.600      5.82980E-13
  17.030      1.03060E-12
  17.340      1.54920E-12
  17.680      2.70760E-12
  18.020      4.29680E-12
  18.170      5.38530E-12
  18.610      1.02080E-11
  19.100      1.79090E-11
  19.390      2.75200E-11
  19.840      4.90540E-11
  20.180      6.17050E-11
  20.500      9.30290E-11
  21.050      1.53750E-10
  21.620      2.48980E-10
  21.980      3.48580E-10
  22.300      4.30510E-10
  22.680      6.41600E-10
  23.000      3.63480E-08
  23.400      9.38440E-08
  24.000      1.15990E-07
  24.650      2.37820E-07
  25.240      1.00250E-06
  25.680      4.02820E-06
  26.000      2.59410E-06
  26.400      1.76870E-05
  26.850      2.20100E-05
  27.350      3.04450E-05
  27.850      1.37460E-05
  28.400      4.04340E-05
  29.000      9.16700E-05
  29.600      7.48140E-05
  30.100      6.57940E-05
  30.800      9.21700E-05
  31.800      1.16570E-05
  32.800      1.91060E-05
  33.800      1.64780E-05
  34.800      2.01500E-05
  35.700      4.88880E-05
  36.600      1.42610E-04
  37.500      2.47650E-04
  38.500      2.39910E-04
  39.500      5.08620E-04
  40.500      1.21810E-03
  41.400      1.09550E-03
  42.200      9.59420E-04
  43.000      9.77890E-04
  44.100      1.31170E-03
  45.100      1.36270E-03
  46.000      9.55710E-04
  47.000      1.24500E-03
  48.000      1.68660E-03
  49.000      1.08590E-03
  50.000      2.56550E-03
  50.600      1.87560E-03
  51.200      2.54710E-03
  52.000      2.42510E-03
  53.000      2.35940E-03
  54.000      1.69370E-03
  55.000      1.04080E-03
  56.000      1.59310E-03
  57.000      2.91900E-03
  58.000      3.15490E-03
  59.000      3.18950E-03
  60.000      2.21680E-03
  61.000      1.48750E-03
  62.000      2.50030E-03
  63.000      2.06330E-03
  64.000      3.22230E-03
  65.000      2.89010E-03
  65.800      2.21550E-03
  66.500      3.26630E-03
  67.500      3.43030E-03
  68.500      2.87430E-03
  69.500      3.46370E-03
  70.500      2.64970E-03
  71.600      3.38890E-03
  72.600      3.67160E-03
  73.500      3.64860E-03
  74.500      3.36150E-03
  75.500      3.19510E-03
  76.500      2.69010E-03
  77.500      3.33680E-03
  78.500      2.34120E-03
  79.500      3.15470E-03
  80.500      3.50680E-03
  81.500      3.48230E-03
  82.500      3.58450E-03
  83.500      2.99850E-03
  84.500      3.45790E-03
  85.500      2.99960E-03
  86.500      3.52580E-03
  87.500      3.63450E-03
  88.500      3.50070E-03
  89.500      3.45630E-03
  90.500      3.36380E-03
  91.500      2.54880E-03
  92.500      3.75090E-03
  93.500      4.54540E-03
  94.500      4.89460E-03
  95.500      5.97980E-03
  96.500      6.08010E-03
  97.500      5.03310E-03
  98.500      5.57500E-03
  99.500      4.90520E-03
  100.50      4.93090E-03
  101.50      5.15500E-03
  102.50      5.18870E-03
  103.50      5.61730E-03
  104.50      6.00990E-03
  105.50      5.94360E-03
  106.50      5.63580E-03
  107.50      6.02460E-03
  108.50      5.48050E-03
  109.50      5.87960E-03
  110.50      5.85590E-03
  111.50      5.87480E-03
  112.50      5.72190E-03
  113.50      5.96570E-03
  114.50      6.05320E-03
  115.50      5.74670E-03
  116.50      5.38930E-03
  117.50      5.04960E-03
  118.50      5.51980E-03
  119.50      5.03770E-03
  120.50      5.08780E-03
  121.50      4.54110E-03
  122.50      4.96830E-03
  123.50      4.76750E-03
  124.50      4.60270E-03
  125.50      4.95610E-03
  126.50      5.03890E-03
  127.50      5.11750E-03
  128.50      5.11230E-03
  129.50      5.17520E-03
  130.50      5.05240E-03
  131.50      5.03170E-03
  132.50      4.96930E-03
  133.50      4.90160E-03
  134.50      4.84270E-03
  135.50      4.70510E-03
  136.50      4.47040E-03
  137.50      4.22560E-03
  138.50      4.46800E-03
  139.50      4.32650E-03
  140.50      4.09220E-03
  141.50      4.74750E-03
  142.50      4.47050E-03
  143.50      4.69720E-03
  144.20      4.39400E-03
  144.70      4.43770E-03
  145.50      4.35700E-03
  146.50      4.35130E-03
  147.50      4.43380E-03
  148.50      4.50010E-03
  149.50      4.38910E-03
  150.50      4.33450E-03
  151.20      4.33340E-03
  151.70      4.23320E-03
  152.50      4.31870E-03
  153.50      4.04490E-03
  154.50      3.35590E-03
  155.50      3.49870E-03
  156.50      3.97100E-03
  157.50      4.11020E-03
  158.50      4.01300E-03
  159.50      4.15820E-03
  160.50      4.01600E-03
  161.50      3.96260E-03
  162.50      4.06170E-03
  163.50      4.11030E-03
  164.50      3.94530E-03
  165.50      4.08230E-03
  166.50      4.00300E-03
  167.20      3.88440E-03
  167.70      4.17140E-03
  168.50      4.14820E-03
  169.50      4.18090E-03
  170.50      4.02500E-03
  171.50      3.85580E-03
  172.50      3.83950E-03
  173.50      4.04090E-03
  174.50      4.03100E-03
  175.50      4.00830E-03
  176.50      3.92140E-03
  177.50      3.87310E-03
  178.50      3.91430E-03
  179.50      3.82700E-03
  180.50      3.81650E-03
  181.50      3.71910E-03
  182.50      3.73060E-03
  183.50      3.72480E-03
  184.50      3.75760E-03
  185.50      3.73670E-03
  186.50      3.76620E-03
  187.50      3.68420E-03
  188.50      3.64950E-03
  189.50      3.69590E-03
  190.50      3.68130E-03
  191.50      3.67120E-03
  192.50      3.50620E-03
  193.50      3.62550E-03
  194.50      3.62000E-03
  195.50      3.53520E-03
  196.70      3.54380E-03
  197.60      3.47420E-03
  198.40      3.53340E-03
  199.50      3.49130E-03
  200.50      3.49550E-03
  201.50      3.47950E-03
  202.50      3.47140E-03
  203.50      3.40290E-03
  204.50      3.37170E-03
  205.50      2.51970E-03
  206.50      2.44590E-03
  207.40      2.55040E-03
  207.80      2.63560E-03
  208.50      2.87170E-03
  209.50      3.17670E-03
  210.50      3.18920E-03
  211.50      3.22560E-03
  212.50      3.17750E-03
  213.50      3.20610E-03
  214.50      3.16960E-03
  215.50      3.15530E-03
  216.50      2.99330E-03
  217.50      3.13570E-03
  218.50      3.04360E-03
  219.50      3.12240E-03
  220.50      3.09120E-03
  221.50      2.96860E-03
  222.50      3.06830E-03
  223.50      3.04520E-03
  224.50      3.02960E-03
  225.50      2.92670E-03
  226.50      2.97170E-03
  227.50      2.99600E-03
  228.50      2.90640E-03
  229.50      2.87440E-03
  230.50      2.82510E-03
  231.50      2.83750E-03
  232.50      2.87660E-03
  233.50      2.86420E-03
  234.50      2.81570E-03
  235.50      2.76990E-03
  236.50      2.74150E-03
  237.50      2.69850E-03
  238.50      2.57750E-03
  239.50      2.65870E-03
  240.50      2.63560E-03
  241.50      2.62560E-03
  242.50      2.65830E-03
  243.50      2.62370E-03
  244.50      2.61120E-03
  245.50      2.56180E-03
  246.50      2.56910E-03
  247.50      2.60050E-03
  248.50      2.53920E-03
  249.50      2.21850E-03
  250.50      2.52140E-03
  251.30      2.36170E-03
  251.80      2.43910E-03
  252.50      2.46680E-03
  253.50      2.48990E-03
  254.50      2.49030E-03
  255.50      2.47650E-03
  256.50      2.46490E-03
  257.50      2.43890E-03
  258.50      2.42780E-03
  259.50      2.33650E-03
  260.50      2.40540E-03
  261.50      2.33140E-03
  262.50      2.38250E-03
  263.50      2.37380E-03
  264.50      2.32810E-03
  265.50      2.33990E-03
  266.50      2.32770E-03
  267.50      2.27110E-03
  268.50      2.28630E-03
  269.50      2.26820E-03
  270.50      2.28940E-03
  271.50      2.27120E-03
  272.50      2.25080E-03
  273.50      2.17890E-03
  274.50      2.23390E-03
  275.50      2.19960E-03
  276.50      2.20260E-03
  277.50      2.17650E-03
  278.50      2.11970E-03
  279.50      2.12000E-03
  280.50      2.12880E-03
  281.50      2.11830E-03
  282.50      2.09210E-03
  283.50      2.10200E-03
  284.50      2.09630E-03
  285.50      2.07850E-03
  286.50      2.02710E-03
  287.50      2.00210E-03
  288.50      2.02960E-03
  289.50      2.01030E-03
  291.00      2.00790E-03
  293.00      2.00120E-03
  295.00      1.97950E-03
  297.00      1.95140E-03
  299.00      1.91510E-03
  301.00      1.89460E-03
  303.00      1.85510E-03
  305.00      1.85200E-03
  307.00      1.79880E-03
  309.00      1.81800E-03
  311.00      1.80130E-03
  313.00      1.77990E-03
  315.00      1.77380E-03
  317.00      1.75300E-03
  319.00      1.73810E-03
  321.00      1.68020E-03
  323.00      1.70770E-03
  325.00      1.69180E-03
  327.00      1.65160E-03
  329.00      1.64950E-03
  331.00      1.63080E-03
  333.00      1.60840E-03
  335.00      1.57100E-03
  337.00      1.57050E-03
  339.00      1.54640E-03
  341.00      1.53130E-03
  343.00      1.53930E-03
  345.00      1.50280E-03
  347.00      1.50360E-03
  349.00      1.49050E-03
  351.00      1.48580E-03
  353.00      1.46080E-03
  355.00      1.45160E-03
  357.00      1.43410E-03
  359.00      1.42590E-03
  361.00      1.41140E-03
  363.00      1.39280E-03
  364.00      1.36380E-03
  365.00      1.21690E-03
  367.00      1.20830E-03
  369.00      1.20060E-03
  371.00      1.19450E-03
  373.00      1.21470E-03
  375.00      1.24200E-03
  377.00      1.26110E-03
  379.00      1.29030E-03
  381.00      1.30480E-03
  383.00      1.25530E-03
  385.00      1.30650E-03
  387.00      1.29400E-03
  389.00      1.21210E-03
  391.00      1.28790E-03
  393.00      1.26060E-03
  395.00      1.25260E-03
  397.00      1.15620E-03
  399.00      1.24380E-03
  401.00      1.23310E-03
  403.00      1.20310E-03
  405.00      1.21340E-03
  407.00      1.19870E-03
  409.00      1.15980E-03
  411.00      1.10400E-03
  413.00      1.16670E-03
  415.00      1.16230E-03
  417.00      1.15420E-03
  419.00      1.14180E-03
  421.00      1.11570E-03
  423.00      1.12870E-03
  425.00      1.11760E-03
  427.00      1.10970E-03
  429.00      1.09990E-03
  431.00      1.08570E-03
  433.00      1.04800E-03
  435.00      1.00800E-03
  437.00      1.05560E-03
  439.00      1.04130E-03
  441.00      1.02890E-03
  443.00      1.03120E-03
  445.00      1.01960E-03
  447.00      1.01360E-03
  449.00      1.00860E-03
  451.00      9.96120E-04
  453.00      9.87480E-04
  455.00      9.63130E-04
  457.00      9.74550E-04
  459.00      9.66660E-04
  461.00      9.61590E-04
  463.00      9.44700E-04
  465.00      9.21510E-04
  467.00      9.35480E-04
  469.00      9.00350E-04
  471.00      9.27890E-04
  473.00      9.23990E-04
  475.00      9.17530E-04
  477.00      9.09890E-04
  479.00      8.97340E-04
  481.00      8.94960E-04
  483.00      8.88780E-04
  485.00      8.68700E-04
  487.00      8.18740E-04
  489.00      8.67880E-04
  491.00      8.61850E-04
  493.00      8.56980E-04
  495.00      8.51070E-04
  497.00      8.45090E-04
  499.00      8.39910E-04
  501.00      8.30490E-04
  503.00      8.25660E-04
  505.00      8.19010E-04
  507.00      8.14980E-04
  509.00      8.10060E-04
  511.00      8.02720E-04
  513.00      7.95730E-04
  515.00      7.91630E-04
  517.00      7.87950E-04
  519.00      7.82150E-04
  521.00      7.75280E-04
  523.00      7.71360E-04
  525.00      7.63920E-04
  527.00      7.57900E-04
  529.00      7.55470E-04
  531.00      7.49890E-04
  533.00      7.44760E-04
  535.00      7.40450E-04
  537.00      7.34570E-04
  539.00      7.29890E-04
  541.00      7.10010E-04
  543.00      7.20510E-04
  545.00      7.15650E-04
  547.00      7.10020E-04
  549.00      7.05880E-04
  551.00      6.99300E-04
  553.00      6.96630E-04
  555.00      6.92250E-04
  557.00      6.85770E-04
  559.00      6.78350E-04
  561.00      6.78570E-04
  563.00      6.73950E-04
  565.00      6.69510E-04
  567.00      6.65040E-04
  569.00      6.48460E-04
  571.00      6.02930E-04
  573.00      5.99310E-04
  575.00      5.95260E-04
  577.00      5.92660E-04
  579.00      5.89860E-04
  581.00      5.80730E-04
  583.00      5.86490E-04
  585.00      5.86900E-04
  587.00      5.84560E-04
  589.00      5.87660E-04
  591.00      5.88670E-04
  593.00      5.90300E-04
  595.00      5.93040E-04
  597.00      5.95070E-04
  599.00      5.96960E-04
  601.00      5.95050E-04
  603.00      5.92760E-04
  605.00      5.89630E-04
  607.00      5.85940E-04
  609.00      5.83500E-04
  611.00      5.78960E-04
  613.00      5.75580E-04
  615.00      5.73260E-04
  617.00      5.67530E-04
  619.00      5.66990E-04
  621.00      5.63700E-04
  623.00      5.57110E-04
  625.00      5.56230E-04
  627.00      5.53580E-04
  629.00      5.50640E-04
  631.00      5.42780E-04
  633.00      5.44000E-04
  635.00      5.40790E-04
  637.00      5.37950E-04
  639.00      5.33830E-04
  641.00      5.26140E-04
  643.00      5.28630E-04
  645.00      5.25110E-04
  647.00      5.21960E-04
  649.00      5.19370E-04
  651.00      5.15000E-04
  653.00      5.06580E-04
  655.00      5.04790E-04
  657.00      4.70620E-04
  659.00      5.03900E-04
  661.00      5.02140E-04
  663.00      4.99350E-04
  665.00      4.96510E-04
  667.00      4.90920E-04
  669.00      4.82670E-04
  671.00      4.86630E-04
  673.00      4.85020E-04
  675.00      4.82320E-04
  677.00      4.79810E-04
  679.00      4.77520E-04
  681.00      4.74840E-04
  683.00      4.72290E-04
  685.00      4.69530E-04
  687.00      4.66900E-04
  689.00      4.56430E-04
  691.00      4.61650E-04
  693.00      4.59610E-04
  695.00      4.57040E-04
  697.00      4.54640E-04
  699.00      4.52080E-04
  701.00      4.48980E-04
  703.00      4.45930E-04
  705.00      4.43390E-04
  707.00      4.41210E-04
  709.00      4.40210E-04
  711.00      4.36740E-04
  713.00      4.34550E-04
  715.00      4.33300E-04
  717.00      4.25320E-04
  719.00      4.25570E-04
  721.00      4.26070E-04
  723.00      4.24310E-04
  725.00      4.22160E-04
  727.00      4.20000E-04
  729.00      4.17650E-04
  731.00      4.14530E-04
  733.00      4.13410E-04
  735.00      4.11450E-04
  737.00      4.08610E-04
  739.00      4.06330E-04
  741.00      4.04460E-04
  743.00      4.03100E-04
  745.00      3.99940E-04
  747.00      3.98750E-04
  749.00      3.95920E-04
  751.00      3.94330E-04
  753.00      3.92890E-04
  755.00      3.90810E-04
  757.00      3.88700E-04
  759.00      3.79260E-04
  761.00      3.84070E-04
  763.00      3.82960E-04
  765.00      3.81060E-04
  767.00      3.78790E-04
  769.00      3.76110E-04
  771.00      3.74290E-04
  773.00      3.72180E-04
  775.00      3.71400E-04
  777.00      3.70370E-04
  779.00      3.68180E-04
  781.00      3.66750E-04
  783.00      3.64830E-04
  785.00      3.61120E-04
  787.00      3.60590E-04
  789.00      3.59400E-04
  791.00      3.58000E-04
  793.00      3.56430E-04
  795.00      3.54460E-04
  797.00      3.51760E-04
  799.00      3.51290E-04
  801.00      3.49610E-04
  803.00      3.47610E-04
  805.00      3.46350E-04
  807.00      3.44770E-04
  809.00      3.43160E-04
  811.00      3.41540E-04
  813.00      3.39970E-04
  815.00      3.38370E-04
  817.00      3.35930E-04
  819.00      3.33260E-04
  821.00      3.15090E-04
  823.00      3.11150E-04
  825.00      3.11810E-04
  827.00      3.10930E-04
  829.00      3.09660E-04
  831.00      3.08380E-04
  833.00      3.06110E-04
  835.00      3.05490E-04
  837.00      3.04420E-04
  839.00      3.03420E-04
  841.00      3.02520E-04
  843.00      3.01590E-04
  845.00      3.00660E-04
  847.00      2.99810E-04
  849.00      2.99180E-04
  851.00      2.97880E-04
  853.00      2.97870E-04
  855.00      2.96650E-04
  857.00      2.96320E-04
  859.00      2.95470E-04
  861.00      2.94770E-04
  863.00      2.95470E-04
  865.00      2.94490E-04
  867.00      2.90560E-04
  869.00      2.94220E-04
  871.00      2.94310E-04
  873.00      2.93380E-04
  875.00      2.86510E-04
  877.00      2.91460E-04
  879.00      2.92770E-04
  881.00      2.92380E-04
  883.00      2.91470E-04
  885.00      2.86500E-04
  887.00      2.78200E-04
  889.00      2.87170E-04
  891.00      2.87100E-04
  893.00      2.85450E-04
  895.00      2.84920E-04
  897.00      2.83940E-04
  899.00      2.81500E-04
  901.00      2.68480E-04
  903.00      2.73500E-04
  905.00      2.78600E-04
  907.00      2.78230E-04
  909.00      2.77090E-04
  911.00      2.75150E-04
  913.00      2.74780E-04
  915.00      2.73950E-04
  917.00      2.72270E-04
  919.00      2.70990E-04
  921.00      2.67370E-04
  923.00      2.51420E-04
  925.00      2.64190E-04
  927.00      2.66370E-04
  929.00      2.65810E-04
  931.00      2.64810E-04
  933.00      2.63390E-04
  935.00      2.55770E-04
  937.00      2.59670E-04
  939.00      2.60130E-04
  941.00      2.59130E-04
  943.00      2.58310E-04
  945.00      2.57200E-04
  947.00      2.56300E-04
  949.00      2.54950E-04
  951.00      2.53520E-04
  953.00      2.49320E-04
  955.00      2.34070E-04
  957.00      2.48520E-04
  959.00      2.49840E-04
  961.00      2.49200E-04
  963.00      2.47850E-04
  965.00      2.47290E-04
  967.00      2.46350E-04
  969.00      2.45380E-04
  971.00      2.42460E-04
  973.00      2.43010E-04
  975.00      2.41970E-04
  977.00      2.39110E-04
  979.00      2.40540E-04
  981.00      2.39560E-04
  983.00      2.38260E-04
  985.00      2.37750E-04
  987.00      2.36830E-04
  989.00      2.35890E-04
  991.00      2.34810E-04
  993.00      2.34080E-04
  995.00      2.33170E-04
  997.00      2.32270E-04
  999.00      2.31360E-04
  1002.5      2.25820E-04
  1007.5      2.21260E-04
  1012.5      2.20510E-04
  1017.5      2.23310E-04
  1022.5      2.21140E-04
  1027.5      2.18720E-04
  1032.5      2.16750E-04
  1037.5      2.14990E-04
  1042.5      2.11550E-04
  1047.5      2.11130E-04
  1052.5      2.09160E-04
  1057.5      2.07270E-04
  1062.5      2.05400E-04
  1067.5      2.03540E-04
  1072.5      2.01720E-04
  1077.5      1.99900E-04
  1082.5      1.97690E-04
  1087.5      1.96220E-04
  1092.5      1.86890E-04
  1097.5      1.91330E-04
  1102.5      1.91200E-04
  1107.5      1.89540E-04
  1112.5      1.87890E-04
  1117.5      1.86410E-04
  1122.5      1.84720E-04
  1127.5      1.83070E-04
  1132.5      1.81480E-04
  1137.5      1.80040E-04
  1142.5      1.78550E-04
  1147.5      1.77050E-04
  1152.5      1.75570E-04
  1157.5      1.73970E-04
  1162.5      1.70240E-04
  1167.5      1.69460E-04
  1172.5      1.69750E-04
  1177.5      1.68390E-04
  1182.5      1.66760E-04
  1187.5      1.65570E-04
  1192.5      1.64220E-04
  1197.5      1.62650E-04
  1202.5      1.61640E-04
  1207.5      1.60250E-04
  1212.5      1.58900E-04
  1217.5      1.57770E-04
  1222.5      1.56490E-04
  1227.5      1.55290E-04
  1232.5      1.54020E-04
  1237.5      1.52850E-04
  1242.5      1.51650E-04
  1247.5      1.50470E-04
  1252.5      1.49280E-04
  1257.5      1.48120E-04
  1262.5      1.47000E-04
  1267.5      1.45870E-04
  1272.5      1.44720E-04
  1277.5      1.43100E-04
  1282.5      1.36140E-04
  1287.5      1.41250E-04
  1292.5      1.40400E-04
  1297.5      1.39320E-04
  1302.5      1.38300E-04
  1307.5      1.37270E-04
  1312.5      1.36250E-04
  1317.5      1.35220E-04
  1322.5      1.34240E-04
  1327.5      1.33260E-04
  1332.5      1.32280E-04
  1337.5      1.31300E-04
  1342.5      1.30340E-04
  1347.5      1.29410E-04
  1352.5      1.28470E-04
  1357.5      1.27550E-04
  1362.5      1.26630E-04
  1367.5      1.25730E-04
  1372.5      1.24810E-04
  1377.5      1.23930E-04
  1382.5      1.23070E-04
  1387.5      1.22200E-04
  1392.5      1.21340E-04
  1397.5      1.20490E-04
