 Castelli and Kurucz 2004-2012 Atmosphere
 T     34000.     G    4.50000 [0.5a] VTURB=2  L/H=1.25 NOVER NEW ODF          
 Wavelength  Eddington Hnu
   (nm)    (ergs/s/cm2/Hz/sr)
  9.0900      3.92920E-31
  9.3500      2.06510E-30
  9.6100      9.92530E-30
  9.7700      2.53320E-29
  9.9600      7.38660E-29
  10.200      2.70970E-28
  10.380      6.93830E-28
  10.560      1.72510E-27
  10.770      4.82170E-27
  11.040      1.71600E-26
  11.400      8.56860E-26
  11.780      4.25580E-25
  12.130      1.72010E-24
  12.480      6.47190E-24
  12.710      1.49180E-23
  12.840      2.36260E-23
  13.050      4.87350E-23
  13.240      9.23190E-23
  13.390      1.51060E-22
  13.660      3.57300E-22
  13.980      9.54880E-22
  14.330      2.66710E-21
  14.720      7.90800E-21
  15.100      2.18850E-20
  15.520      6.35280E-20
  15.880      1.51900E-19
  16.200      3.19150E-19
  16.600      7.80970E-19
  17.030      1.93380E-18
  17.340      3.66730E-18
  17.680      7.30570E-18
  18.020      1.39120E-17
  18.170      1.88580E-17
  18.610      4.14710E-17
  19.100      9.61310E-17
  19.390      1.54500E-16
  19.840      3.19550E-16
  20.180      5.34800E-16
  20.500      8.55520E-16
  21.050      1.86200E-15
  21.620      3.94530E-15
  21.980      6.35630E-15
  22.300      9.49040E-15
  22.680      1.71100E-14
  23.000      2.59360E-12
  23.400      5.47460E-12
  24.000      9.00150E-12
  24.650      1.55780E-11
  25.240      2.71140E-11
  25.680      3.98730E-11
  26.000      6.62160E-11
  26.400      1.07390E-10
  26.850      1.70540E-10
  27.350      2.40800E-10
  27.850      3.04590E-10
  28.400      7.15290E-10
  29.000      1.06710E-09
  29.600      1.44040E-09
  30.100      2.40660E-09
  30.800      6.75130E-09
  31.800      1.44820E-08
  32.800      2.17980E-08
  33.800      4.16190E-08
  34.800      6.70010E-08
  35.700      1.53460E-07
  36.600      3.72220E-07
  37.500      4.49250E-07
  38.500      7.12610E-07
  39.500      1.89570E-06
  40.500      2.52260E-06
  41.400      4.18140E-06
  42.200      4.98200E-06
  43.000      5.46710E-06
  44.100      6.84730E-06
  45.100      7.66260E-06
  46.000      7.38600E-06
  47.000      9.29360E-06
  48.000      1.13390E-05
  49.000      1.08070E-05
  50.000      1.47160E-05
  50.600      1.47040E-05
  51.200      1.10550E-04
  52.000      1.05290E-04
  53.000      1.01320E-04
  54.000      9.99730E-05
  55.000      1.07900E-04
  56.000      1.60720E-04
  57.000      1.96580E-04
  58.000      1.87940E-04
  59.000      2.01650E-04
  60.000      1.24300E-04
  61.000      1.82270E-04
  62.000      2.51120E-04
  63.000      2.47280E-04
  64.000      2.56730E-04
  65.000      2.40820E-04
  65.800      1.54390E-04
  66.500      2.37720E-04
  67.500      3.08630E-04
  68.500      2.18610E-04
  69.500      3.28300E-04
  70.500      2.12740E-04
  71.600      3.83100E-04
  72.600      3.81890E-04
  73.500      3.90180E-04
  74.500      3.37410E-04
  75.500      3.53710E-04
  76.500      3.80230E-04
  77.500      4.18360E-04
  78.500      4.14730E-04
  79.500      4.48590E-04
  80.500      4.16860E-04
  81.500      4.20520E-04
  82.500      4.77260E-04
  83.500      3.38410E-04
  84.500      4.65390E-04
  85.500      4.63070E-04
  86.500      4.96050E-04
  87.500      5.07350E-04
  88.500      5.26310E-04
  89.500      5.36400E-04
  90.500      5.23270E-04
  91.500      5.23120E-04
  92.500      1.24330E-03
  93.500      1.94070E-03
  94.500      2.45690E-03
  95.500      2.77810E-03
  96.500      3.16100E-03
  97.500      1.31580E-03
  98.500      2.53370E-03
  99.500      2.27490E-03
  100.50      2.38310E-03
  101.50      2.66330E-03
  102.50      2.24800E-03
  103.50      2.71330E-03
  104.50      3.23820E-03
  105.50      3.08730E-03
  106.50      2.57590E-03
  107.50      2.79280E-03
  108.50      2.60560E-03
  109.50      2.85620E-03
  110.50      2.75500E-03
  111.50      2.74710E-03
  112.50      2.02970E-03
  113.50      2.68300E-03
  114.50      2.66940E-03
  115.50      2.46710E-03
  116.50      2.48640E-03
  117.50      1.61870E-03
  118.50      2.34220E-03
  119.50      2.26540E-03
  120.50      2.19260E-03
  121.50      1.83590E-03
  122.50      2.23220E-03
  123.50      2.43320E-03
  124.50      2.36240E-03
  125.50      2.39800E-03
  126.50      2.50930E-03
  127.50      2.66920E-03
  128.50      2.71640E-03
  129.50      2.51870E-03
  130.50      2.56040E-03
  131.50      2.79410E-03
  132.50      2.73350E-03
  133.50      2.68340E-03
  134.50      2.67550E-03
  135.50      2.67710E-03
  136.50      2.58300E-03
  137.50      2.50800E-03
  138.50      2.42650E-03
  139.50      1.69530E-03
  140.50      1.84420E-03
  141.50      2.46670E-03
  142.50      2.22410E-03
  143.50      2.44500E-03
  144.20      2.41080E-03
  144.70      2.42210E-03
  145.50      2.30890E-03
  146.50      2.26420E-03
  147.50      2.34560E-03
  148.50      2.37060E-03
  149.50      2.31810E-03
  150.50      2.24330E-03
  151.20      2.23260E-03
  151.70      2.27190E-03
  152.50      2.19880E-03
  153.50      1.90660E-03
  154.50      1.55620E-03
  155.50      1.59970E-03
  156.50      1.88490E-03
  157.50      2.01720E-03
  158.50      2.03100E-03
  159.50      2.08310E-03
  160.50      2.00460E-03
  161.50      1.91940E-03
  162.50      1.99590E-03
  163.50      2.04580E-03
  164.50      2.08820E-03
  165.50      2.08450E-03
  166.50      2.05500E-03
  167.20      1.90140E-03
  167.70      2.31010E-03
  168.50      2.20520E-03
  169.50      2.14650E-03
  170.50      2.14490E-03
  171.50      2.04530E-03
  172.50      1.96770E-03
  173.50      2.07530E-03
  174.50      2.09190E-03
  175.50      2.08490E-03
  176.50      2.06820E-03
  177.50      1.99780E-03
  178.50      2.06660E-03
  179.50      2.03450E-03
  180.50      2.04570E-03
  181.50      2.00720E-03
  182.50      1.99110E-03
  183.50      2.00730E-03
  184.50      1.92550E-03
  185.50      1.99200E-03
  186.50      2.01760E-03
  187.50      1.97080E-03
  188.50      1.89220E-03
  189.50      1.87900E-03
  190.50      1.94970E-03
  191.50      1.90620E-03
  192.50      1.79430E-03
  193.50      1.94430E-03
  194.50      1.98460E-03
  195.50      1.79610E-03
  196.70      1.91720E-03
  197.60      1.98470E-03
  198.40      1.92840E-03
  199.50      1.90520E-03
  200.50      1.95990E-03
  201.50      1.96990E-03
  202.50      1.98320E-03
  203.50      1.91070E-03
  204.50      1.90190E-03
  205.50      1.52810E-03
  206.50      1.48510E-03
  207.40      1.55600E-03
  207.80      1.54470E-03
  208.50      1.64670E-03
  209.50      1.75610E-03
  210.50      1.84730E-03
  211.50      1.89180E-03
  212.50      1.85760E-03
  213.50      1.86710E-03
  214.50      1.84810E-03
  215.50      1.86660E-03
  216.50      1.78290E-03
  217.50      1.85040E-03
  218.50      1.80270E-03
  219.50      1.86710E-03
  220.50      1.85240E-03
  221.50      1.78270E-03
  222.50      1.82350E-03
  223.50      1.81080E-03
  224.50      1.79700E-03
  225.50      1.74620E-03
  226.50      1.78070E-03
  227.50      1.78250E-03
  228.50      1.71710E-03
  229.50      1.53960E-03
  230.50      1.67960E-03
  231.50      1.68070E-03
  232.50      1.70430E-03
  233.50      1.69370E-03
  234.50      1.68510E-03
  235.50      1.65420E-03
  236.50      1.63420E-03
  237.50      1.60210E-03
  238.50      1.54080E-03
  239.50      1.57050E-03
  240.50      1.59050E-03
  241.50      1.57570E-03
  242.50      1.58590E-03
  243.50      1.57050E-03
  244.50      1.56660E-03
  245.50      1.55480E-03
  246.50      1.54930E-03
  247.50      1.53670E-03
  248.50      1.45850E-03
  249.50      9.72320E-04
  250.50      1.37430E-03
  251.30      1.39730E-03
  251.80      1.41920E-03
  252.50      1.48980E-03
  253.50      1.50020E-03
  254.50      1.46960E-03
  255.50      1.47300E-03
  256.50      1.45660E-03
  257.50      1.46270E-03
  258.50      1.45770E-03
  259.50      1.43310E-03
  260.50      1.44570E-03
  261.50      1.41800E-03
  262.50      1.42570E-03
  263.50      1.42310E-03
  264.50      1.40660E-03
  265.50      1.40540E-03
  266.50      1.37590E-03
  267.50      1.34400E-03
  268.50      1.37290E-03
  269.50      1.35120E-03
  270.50      1.35070E-03
  271.50      1.34200E-03
  272.50      1.33780E-03
  273.50      1.31400E-03
  274.50      1.33520E-03
  275.50      1.32380E-03
  276.50      1.31440E-03
  277.50      1.32270E-03
  278.50      1.29940E-03
  279.50      1.25600E-03
  280.50      1.28610E-03
  281.50      1.29160E-03
  282.50      1.28440E-03
  283.50      1.26430E-03
  284.50      1.27550E-03
  285.50      1.26000E-03
  286.50      1.24680E-03
  287.50      1.23940E-03
  288.50      1.23700E-03
  289.50      1.22780E-03
  291.00      1.20220E-03
  293.00      1.21440E-03
  295.00      1.19690E-03
  297.00      1.18280E-03
  299.00      1.15640E-03
  301.00      1.12680E-03
  303.00      1.11180E-03
  305.00      1.12210E-03
  307.00      1.11870E-03
  309.00      1.09400E-03
  311.00      1.10550E-03
  313.00      1.08290E-03
  315.00      1.08360E-03
  317.00      1.06700E-03
  319.00      1.06410E-03
  321.00      1.04210E-03
  323.00      1.03600E-03
  325.00      1.03570E-03
  327.00      1.01040E-03
  329.00      1.01020E-03
  331.00      9.96700E-04
  333.00      9.83100E-04
  335.00      9.67350E-04
  337.00      9.61020E-04
  339.00      9.64020E-04
  341.00      9.53250E-04
  343.00      9.53760E-04
  345.00      9.32250E-04
  347.00      9.31010E-04
  349.00      9.23440E-04
  351.00      9.15240E-04
  353.00      9.11440E-04
  355.00      9.00680E-04
  357.00      8.92930E-04
  359.00      8.82240E-04
  361.00      8.74630E-04
  363.00      8.66840E-04
  364.00      8.58370E-04
  365.00      8.15390E-04
  367.00      8.11730E-04
  369.00      8.04050E-04
  371.00      7.80040E-04
  373.00      7.81180E-04
  375.00      7.88440E-04
  377.00      7.79170E-04
  379.00      8.15980E-04
  381.00      8.38380E-04
  383.00      7.71130E-04
  385.00      8.48400E-04
  387.00      8.20090E-04
  389.00      7.44690E-04
  391.00      8.53520E-04
  393.00      8.31690E-04
  395.00      8.11140E-04
  397.00      7.10500E-04
  399.00      8.19650E-04
  401.00      8.13230E-04
  403.00      7.89290E-04
  405.00      8.01910E-04
  407.00      7.68120E-04
  409.00      7.30000E-04
  411.00      6.83650E-04
  413.00      7.59390E-04
  415.00      7.57400E-04
  417.00      7.66050E-04
  419.00      7.57810E-04
  421.00      7.48030E-04
  423.00      7.47990E-04
  425.00      7.29270E-04
  427.00      7.21580E-04
  429.00      7.09250E-04
  431.00      6.94720E-04
  433.00      6.64380E-04
  435.00      6.28200E-04
  437.00      6.86420E-04
  439.00      6.82330E-04
  441.00      6.76830E-04
  443.00      6.81050E-04
  445.00      6.72740E-04
  447.00      6.61010E-04
  449.00      6.68230E-04
  451.00      6.56160E-04
  453.00      6.58070E-04
  455.00      6.48180E-04
  457.00      6.51590E-04
  459.00      6.43190E-04
  461.00      6.34430E-04
  463.00      6.24950E-04
  465.00      5.94590E-04
  467.00      6.17730E-04
  469.00      6.12100E-04
  471.00      6.07150E-04
  473.00      6.21730E-04
  475.00      6.15270E-04
  477.00      6.16040E-04
  479.00      6.11010E-04
  481.00      6.03300E-04
  483.00      5.95640E-04
  485.00      5.70750E-04
  487.00      5.23450E-04
  489.00      5.81420E-04
  491.00      5.79010E-04
  493.00      5.69560E-04
  495.00      5.68810E-04
  497.00      5.72810E-04
  499.00      5.68560E-04
  501.00      5.49630E-04
  503.00      5.53660E-04
  505.00      5.51320E-04
  507.00      5.52680E-04
  509.00      5.47470E-04
  511.00      5.43010E-04
  513.00      5.38420E-04
  515.00      5.35250E-04
  517.00      5.30740E-04
  519.00      5.28340E-04
  521.00      5.25290E-04
  523.00      5.22250E-04
  525.00      5.16180E-04
  527.00      5.11550E-04
  529.00      5.11840E-04
  531.00      5.07700E-04
  533.00      5.04750E-04
  535.00      5.01580E-04
  537.00      4.98050E-04
  539.00      4.93620E-04
  541.00      4.84840E-04
  543.00      4.88520E-04
  545.00      4.84930E-04
  547.00      4.81480E-04
  549.00      4.78460E-04
  551.00      4.75020E-04
  553.00      4.72090E-04
  555.00      4.69790E-04
  557.00      4.66230E-04
  559.00      4.61420E-04
  561.00      4.60770E-04
  563.00      4.57880E-04
  565.00      4.54500E-04
  567.00      4.50410E-04
  569.00      4.40270E-04
  571.00      4.31640E-04
  573.00      4.29860E-04
  575.00      4.25840E-04
  577.00      4.25230E-04
  579.00      4.22290E-04
  581.00      4.18350E-04
  583.00      4.15730E-04
  585.00      4.15770E-04
  587.00      4.05630E-04
  589.00      4.10750E-04
  591.00      4.10040E-04
  593.00      4.08680E-04
  595.00      4.07450E-04
  597.00      4.07640E-04
  599.00      4.05440E-04
  601.00      4.04760E-04
  603.00      4.02100E-04
  605.00      4.00510E-04
  607.00      3.98660E-04
  609.00      3.96570E-04
  611.00      3.93560E-04
  613.00      3.91540E-04
  615.00      3.87610E-04
  617.00      3.85580E-04
  619.00      3.84810E-04
  621.00      3.82970E-04
  623.00      3.79990E-04
  625.00      3.77110E-04
  627.00      3.75920E-04
  629.00      3.73780E-04
  631.00      3.70120E-04
  633.00      3.69670E-04
  635.00      3.66670E-04
  637.00      3.65620E-04
  639.00      3.63500E-04
  641.00      3.60790E-04
  643.00      3.59440E-04
  645.00      3.56950E-04
  647.00      3.53610E-04
  649.00      3.51370E-04
  651.00      3.48050E-04
  653.00      3.45880E-04
  655.00      3.38170E-04
  657.00      3.06700E-04
  659.00      3.39900E-04
  661.00      3.40500E-04
  663.00      3.39470E-04
  665.00      3.37180E-04
  667.00      3.31160E-04
  669.00      3.28850E-04
  671.00      3.30590E-04
  673.00      3.28080E-04
  675.00      3.27680E-04
  677.00      3.26620E-04
  679.00      3.23800E-04
  681.00      3.23180E-04
  683.00      3.21080E-04
  685.00      3.19560E-04
  687.00      3.17460E-04
  689.00      3.13860E-04
  691.00      3.12450E-04
  693.00      3.13170E-04
  695.00      3.11450E-04
  697.00      3.09860E-04
  699.00      3.08000E-04
  701.00      3.05680E-04
  703.00      3.03750E-04
  705.00      3.02310E-04
  707.00      2.97180E-04
  709.00      3.00070E-04
  711.00      2.97430E-04
  713.00      2.96100E-04
  715.00      2.95510E-04
  717.00      2.92960E-04
  719.00      2.91890E-04
  721.00      2.90990E-04
  723.00      2.86940E-04
  725.00      2.87210E-04
  727.00      2.86530E-04
  729.00      2.83170E-04
  731.00      2.83220E-04
  733.00      2.82080E-04
  735.00      2.80620E-04
  737.00      2.79180E-04
  739.00      2.77940E-04
  741.00      2.76380E-04
  743.00      2.75120E-04
  745.00      2.73330E-04
  747.00      2.70820E-04
  749.00      2.69350E-04
  751.00      2.69370E-04
  753.00      2.67850E-04
  755.00      2.66920E-04
  757.00      2.65500E-04
  759.00      2.62390E-04
  761.00      2.61890E-04
  763.00      2.61280E-04
  765.00      2.59910E-04
  767.00      2.59100E-04
  769.00      2.56530E-04
  771.00      2.55990E-04
  773.00      2.53570E-04
  775.00      2.53850E-04
  777.00      2.52950E-04
  779.00      2.51720E-04
  781.00      2.50580E-04
  783.00      2.49390E-04
  785.00      2.47660E-04
  787.00      2.45890E-04
  789.00      2.44890E-04
  791.00      2.44430E-04
  793.00      2.43310E-04
  795.00      2.42500E-04
  797.00      2.40890E-04
  799.00      2.39970E-04
  801.00      2.38950E-04
  803.00      2.37570E-04
  805.00      2.36820E-04
  807.00      2.35690E-04
  809.00      2.34500E-04
  811.00      2.31630E-04
  813.00      2.32440E-04
  815.00      2.31160E-04
  817.00      2.30180E-04
  819.00      2.27400E-04
  821.00      2.24330E-04
  823.00      2.22450E-04
  825.00      2.22650E-04
  827.00      2.19980E-04
  829.00      2.20650E-04
  831.00      2.20240E-04
  833.00      2.18500E-04
  835.00      2.16800E-04
  837.00      2.16580E-04
  839.00      2.16480E-04
  841.00      2.15180E-04
  843.00      2.14650E-04
  845.00      2.12930E-04
  847.00      2.12840E-04
  849.00      2.11670E-04
  851.00      2.09760E-04
  853.00      2.09960E-04
  855.00      2.08560E-04
  857.00      2.08910E-04
  859.00      2.05510E-04
  861.00      2.05670E-04
  863.00      2.07410E-04
  865.00      2.04520E-04
  867.00      1.99410E-04
  869.00      2.04870E-04
  871.00      2.05160E-04
  873.00      2.02120E-04
  875.00      1.92400E-04
  877.00      1.99010E-04
  879.00      2.02570E-04
  881.00      2.02780E-04
  883.00      2.00610E-04
  885.00      1.93190E-04
  887.00      1.84560E-04
  889.00      1.97240E-04
  891.00      1.98580E-04
  893.00      1.98040E-04
  895.00      1.97220E-04
  897.00      1.96290E-04
  899.00      1.92920E-04
  901.00      1.77910E-04
  903.00      1.84120E-04
  905.00      1.92200E-04
  907.00      1.91100E-04
  909.00      1.91280E-04
  911.00      1.91550E-04
  913.00      1.90790E-04
  915.00      1.90270E-04
  917.00      1.88520E-04
  919.00      1.87240E-04
  921.00      1.81380E-04
  923.00      1.65070E-04
  925.00      1.79430E-04
  927.00      1.83950E-04
  929.00      1.83830E-04
  931.00      1.83030E-04
  933.00      1.82300E-04
  935.00      1.80540E-04
  937.00      1.81150E-04
  939.00      1.80650E-04
  941.00      1.79380E-04
  943.00      1.78960E-04
  945.00      1.78190E-04
  947.00      1.77040E-04
  949.00      1.76300E-04
  951.00      1.73980E-04
  953.00      1.68560E-04
  955.00      1.53730E-04
  957.00      1.69640E-04
  959.00      1.72860E-04
  961.00      1.72020E-04
  963.00      1.70880E-04
  965.00      1.71750E-04
  967.00      1.71270E-04
  969.00      1.70510E-04
  971.00      1.65420E-04
  973.00      1.68390E-04
  975.00      1.68570E-04
  977.00      1.67770E-04
  979.00      1.67180E-04
  981.00      1.66310E-04
  983.00      1.65800E-04
  985.00      1.65030E-04
  987.00      1.64560E-04
  989.00      1.63310E-04
  991.00      1.62320E-04
  993.00      1.62680E-04
  995.00      1.62100E-04
  997.00      1.61330E-04
  999.00      1.60530E-04
  1002.5      1.53680E-04
  1007.5      1.50240E-04
  1012.5      1.54360E-04
  1017.5      1.55360E-04
  1022.5      1.53720E-04
  1027.5      1.52340E-04
  1032.5      1.50440E-04
  1037.5      1.49670E-04
  1042.5      1.48210E-04
  1047.5      1.46960E-04
  1052.5      1.45520E-04
  1057.5      1.44290E-04
  1062.5      1.42950E-04
  1067.5      1.41560E-04
  1072.5      1.40440E-04
  1077.5      1.39140E-04
  1082.5      1.36610E-04
  1087.5      1.36220E-04
  1092.5      1.26070E-04
  1097.5      1.31470E-04
  1102.5      1.32480E-04
  1107.5      1.31930E-04
  1112.5      1.30780E-04
  1117.5      1.29770E-04
  1122.5      1.28600E-04
  1127.5      1.27480E-04
  1132.5      1.26150E-04
  1137.5      1.25230E-04
  1142.5      1.24210E-04
  1147.5      1.23200E-04
  1152.5      1.22280E-04
  1157.5      1.21110E-04
  1162.5      1.19620E-04
  1167.5      1.18740E-04
  1172.5      1.18290E-04
  1177.5      1.17300E-04
  1182.5      1.16150E-04
  1187.5      1.15330E-04
  1192.5      1.14400E-04
  1197.5      1.12280E-04
  1202.5      1.12650E-04
  1207.5      1.11670E-04
  1212.5      1.10690E-04
  1217.5      1.09950E-04
  1222.5      1.09090E-04
  1227.5      1.08250E-04
  1232.5      1.07300E-04
  1237.5      1.06500E-04
  1242.5      1.05740E-04
  1247.5      1.04840E-04
  1252.5      1.03750E-04
  1257.5      1.03170E-04
  1262.5      1.02420E-04
  1267.5      1.01710E-04
  1272.5      1.00880E-04
  1277.5      9.85870E-05
  1282.5      9.23800E-05
  1287.5      9.81050E-05
  1292.5      9.79280E-05
  1297.5      9.66360E-05
  1302.5      9.63210E-05
  1307.5      9.57740E-05
  1312.5      9.50740E-05
  1317.5      9.43680E-05
  1322.5      9.36810E-05
  1327.5      9.29960E-05
  1332.5      9.22720E-05
  1337.5      9.15030E-05
  1342.5      9.08540E-05
  1347.5      9.02660E-05
  1352.5      8.95110E-05
  1357.5      8.90040E-05
  1362.5      8.81900E-05
  1367.5      8.77480E-05
  1372.5      8.69550E-05
  1377.5      8.65350E-05
  1382.5      8.59340E-05
  1387.5      8.53170E-05
  1392.5      8.45960E-05
  1397.5      8.41240E-05
