 Castelli and Kurucz 2004-2012 Atmosphere
 T     32000.     G    5.00000 [0.5a] VTURB=2  L/H=1.25 NOVER NEW ODF          
 Wavelength  Eddington Hnu
   (nm)    (ergs/s/cm2/Hz/sr)
  9.0900      3.17970E-33
  9.3500      1.93120E-32
  9.6100      1.06850E-31
  9.7700      2.93630E-31
  9.9600      9.36460E-31
  10.200      3.82290E-30
  10.380      1.05550E-29
  10.560      2.82020E-29
  10.770      8.53730E-29
  11.040      3.34480E-28
  11.400      1.87900E-27
  11.780      1.04540E-26
  12.130      4.64580E-26
  12.480      1.90860E-25
  12.710      4.64290E-25
  12.840      7.57450E-25
  13.050      1.63600E-24
  13.240      3.22710E-24
  13.390      5.44270E-24
  13.660      1.35910E-23
  13.980      3.85360E-23
  14.330      1.14630E-22
  14.720      3.65030E-22
  15.100      1.06950E-21
  15.520      3.31550E-21
  15.880      8.36520E-21
  16.200      1.84560E-20
  16.600      4.77240E-20
  17.030      1.25520E-19
  17.340      2.48360E-19
  17.680      5.08260E-19
  18.020      1.01340E-18
  18.170      1.36840E-18
  18.610      3.18280E-18
  19.100      7.83210E-18
  19.390      1.30570E-17
  19.840      2.80890E-17
  20.180      4.90030E-17
  20.500      8.14110E-17
  21.050      1.88730E-16
  21.620      4.29640E-16
  21.980      7.13570E-16
  22.300      1.10200E-15
  22.680      2.05180E-15
  23.000      8.65810E-14
  23.400      1.82340E-13
  24.000      3.40220E-13
  24.650      6.59770E-13
  25.240      1.19530E-12
  25.680      1.79170E-12
  26.000      2.75330E-12
  26.400      3.92720E-12
  26.850      6.15490E-12
  27.350      9.40540E-12
  27.850      1.35450E-11
  28.400      2.97330E-11
  29.000      4.66710E-11
  29.600      6.96420E-11
  30.100      9.77490E-11
  30.800      2.37850E-10
  31.800      4.97750E-10
  32.800      8.33040E-10
  33.800      1.55290E-09
  34.800      2.62510E-09
  35.700      9.10660E-09
  36.600      2.18080E-08
  37.500      2.92140E-08
  38.500      4.82530E-08
  39.500      1.34530E-07
  40.500      1.78490E-07
  41.400      3.20520E-07
  42.200      3.88490E-07
  43.000      4.92390E-07
  44.100      6.50640E-07
  45.100      7.87850E-07
  46.000      8.81440E-07
  47.000      1.15150E-06
  48.000      1.43860E-06
  49.000      1.71740E-06
  50.000      2.14660E-06
  50.600      3.17490E-06
  51.200      2.96670E-05
  52.000      2.82610E-05
  53.000      2.82920E-05
  54.000      2.77200E-05
  55.000      3.72970E-05
  56.000      4.92840E-05
  57.000      5.30730E-05
  58.000      4.97030E-05
  59.000      5.77420E-05
  60.000      4.52400E-05
  61.000      6.20430E-05
  62.000      7.42110E-05
  63.000      7.49430E-05
  64.000      7.13680E-05
  65.000      7.47870E-05
  65.800      6.21690E-05
  66.500      7.77260E-05
  67.500      8.80550E-05
  68.500      7.13820E-05
  69.500      1.05990E-04
  70.500      8.29890E-05
  71.600      1.21690E-04
  72.600      1.18760E-04
  73.500      1.24400E-04
  74.500      1.25580E-04
  75.500      1.29930E-04
  76.500      1.42020E-04
  77.500      1.51910E-04
  78.500      1.61400E-04
  79.500      1.63330E-04
  80.500      1.60280E-04
  81.500      1.62280E-04
  82.500      1.80700E-04
  83.500      1.38030E-04
  84.500      1.79190E-04
  85.500      1.80180E-04
  86.500      1.91950E-04
  87.500      1.98700E-04
  88.500      2.10630E-04
  89.500      2.17750E-04
  90.500      2.13180E-04
  91.500      2.22860E-04
  92.500      6.47280E-04
  93.500      1.16000E-03
  94.500      1.84750E-03
  95.500      2.19590E-03
  96.500      2.70410E-03
  97.500      7.56820E-04
  98.500      2.20350E-03
  99.500      1.98380E-03
  100.50      2.17550E-03
  101.50      2.41170E-03
  102.50      1.58650E-03
  103.50      2.29550E-03
  104.50      3.01780E-03
  105.50      2.83900E-03
  106.50      2.15990E-03
  107.50      2.49230E-03
  108.50      2.33960E-03
  109.50      2.62620E-03
  110.50      2.46810E-03
  111.50      2.43280E-03
  112.50      1.64870E-03
  113.50      2.40970E-03
  114.50      2.28820E-03
  115.50      2.20290E-03
  116.50      2.23810E-03
  117.50      1.32580E-03
  118.50      2.11220E-03
  119.50      2.03940E-03
  120.50      1.79500E-03
  121.50      1.36270E-03
  122.50      1.98160E-03
  123.50      2.23260E-03
  124.50      2.16580E-03
  125.50      2.18850E-03
  126.50      2.29340E-03
  127.50      2.41660E-03
  128.50      2.46730E-03
  129.50      2.04530E-03
  130.50      2.18350E-03
  131.50      2.53890E-03
  132.50      2.42430E-03
  133.50      2.40670E-03
  134.50      2.35330E-03
  135.50      2.41370E-03
  136.50      2.25850E-03
  137.50      2.18410E-03
  138.50      2.06560E-03
  139.50      1.25900E-03
  140.50      1.47390E-03
  141.50      2.04720E-03
  142.50      1.89800E-03
  143.50      2.07780E-03
  144.20      2.11240E-03
  144.70      2.11130E-03
  145.50      2.01500E-03
  146.50      1.92540E-03
  147.50      1.99940E-03
  148.50      2.00140E-03
  149.50      1.96610E-03
  150.50      1.82190E-03
  151.20      1.76020E-03
  151.70      1.80440E-03
  152.50      1.79390E-03
  153.50      1.51130E-03
  154.50      1.33630E-03
  155.50      1.34350E-03
  156.50      1.53560E-03
  157.50      1.65430E-03
  158.50      1.66640E-03
  159.50      1.71020E-03
  160.50      1.69720E-03
  161.50      1.62060E-03
  162.50      1.66430E-03
  163.50      1.73360E-03
  164.50      1.78220E-03
  165.50      1.77370E-03
  166.50      1.77000E-03
  167.20      1.65350E-03
  167.70      1.97920E-03
  168.50      1.88760E-03
  169.50      1.81470E-03
  170.50      1.79970E-03
  171.50      1.73250E-03
  172.50      1.63980E-03
  173.50      1.74650E-03
  174.50      1.75990E-03
  175.50      1.76230E-03
  176.50      1.75400E-03
  177.50      1.66820E-03
  178.50      1.72930E-03
  179.50      1.73360E-03
  180.50      1.75440E-03
  181.50      1.66910E-03
  182.50      1.68950E-03
  183.50      1.67930E-03
  184.50      1.55960E-03
  185.50      1.62830E-03
  186.50      1.66260E-03
  187.50      1.65360E-03
  188.50      1.54160E-03
  189.50      1.49020E-03
  190.50      1.58660E-03
  191.50      1.52620E-03
  192.50      1.43260E-03
  193.50      1.56660E-03
  194.50      1.62370E-03
  195.50      1.44900E-03
  196.70      1.57190E-03
  197.60      1.66560E-03
  198.40      1.56320E-03
  199.50      1.56220E-03
  200.50      1.61070E-03
  201.50      1.62010E-03
  202.50      1.64080E-03
  203.50      1.55150E-03
  204.50      1.56480E-03
  205.50      1.36330E-03
  206.50      1.34680E-03
  207.40      1.39310E-03
  207.80      1.34010E-03
  208.50      1.39620E-03
  209.50      1.39760E-03
  210.50      1.52330E-03
  211.50      1.56330E-03
  212.50      1.55170E-03
  213.50      1.54630E-03
  214.50      1.51500E-03
  215.50      1.55430E-03
  216.50      1.51080E-03
  217.50      1.53440E-03
  218.50      1.50480E-03
  219.50      1.54230E-03
  220.50      1.53950E-03
  221.50      1.49950E-03
  222.50      1.50500E-03
  223.50      1.49330E-03
  224.50      1.49650E-03
  225.50      1.45340E-03
  226.50      1.48230E-03
  227.50      1.47460E-03
  228.50      1.43130E-03
  229.50      1.26740E-03
  230.50      1.40470E-03
  231.50      1.39820E-03
  232.50      1.40810E-03
  233.50      1.39480E-03
  234.50      1.40840E-03
  235.50      1.38930E-03
  236.50      1.37970E-03
  237.50      1.35100E-03
  238.50      1.32030E-03
  239.50      1.32800E-03
  240.50      1.33850E-03
  241.50      1.32100E-03
  242.50      1.32850E-03
  243.50      1.30840E-03
  244.50      1.31060E-03
  245.50      1.30570E-03
  246.50      1.30080E-03
  247.50      1.28700E-03
  248.50      1.23720E-03
  249.50      8.67490E-04
  250.50      1.17640E-03
  251.30      1.17250E-03
  251.80      1.18480E-03
  252.50      1.24710E-03
  253.50      1.25610E-03
  254.50      1.21290E-03
  255.50      1.22610E-03
  256.50      1.20720E-03
  257.50      1.22050E-03
  258.50      1.21880E-03
  259.50      1.20810E-03
  260.50      1.20970E-03
  261.50      1.19170E-03
  262.50      1.19420E-03
  263.50      1.18710E-03
  264.50      1.17620E-03
  265.50      1.17270E-03
  266.50      1.13400E-03
  267.50      1.12610E-03
  268.50      1.14720E-03
  269.50      1.11510E-03
  270.50      1.10100E-03
  271.50      1.10530E-03
  272.50      1.10680E-03
  273.50      1.09590E-03
  274.50      1.09990E-03
  275.50      1.09700E-03
  276.50      1.08550E-03
  277.50      1.10330E-03
  278.50      1.08560E-03
  279.50      1.04100E-03
  280.50      1.06590E-03
  281.50      1.07930E-03
  282.50      1.07030E-03
  283.50      1.04210E-03
  284.50      1.06110E-03
  285.50      1.04460E-03
  286.50      1.04180E-03
  287.50      1.03310E-03
  288.50      1.02730E-03
  289.50      1.01790E-03
  291.00      9.94120E-04
  293.00      1.01080E-03
  295.00      9.92100E-04
  297.00      9.85310E-04
  299.00      9.64830E-04
  301.00      9.31580E-04
  303.00      9.29340E-04
  305.00      9.36780E-04
  307.00      9.41040E-04
  309.00      9.06000E-04
  311.00      9.22590E-04
  313.00      9.01110E-04
  315.00      9.01260E-04
  317.00      8.85360E-04
  319.00      8.83560E-04
  321.00      8.75360E-04
  323.00      8.62150E-04
  325.00      8.63150E-04
  327.00      8.45500E-04
  329.00      8.42830E-04
  331.00      8.32800E-04
  333.00      8.20640E-04
  335.00      8.13570E-04
  337.00      8.03950E-04
  339.00      8.07090E-04
  341.00      7.97990E-04
  343.00      7.96870E-04
  345.00      7.81570E-04
  347.00      7.77140E-04
  349.00      7.69130E-04
  351.00      7.62980E-04
  353.00      7.62790E-04
  355.00      7.53090E-04
  357.00      7.47570E-04
  359.00      7.34060E-04
  361.00      7.32600E-04
  363.00      7.24210E-04
  364.00      7.23690E-04
  365.00      7.10330E-04
  367.00      7.08620E-04
  369.00      7.02820E-04
  371.00      6.77760E-04
  373.00      6.73640E-04
  375.00      6.69440E-04
  377.00      6.49790E-04
  379.00      6.75540E-04
  381.00      6.99870E-04
  383.00      6.28450E-04
  385.00      7.14420E-04
  387.00      6.98710E-04
  389.00      6.03560E-04
  391.00      7.34560E-04
  393.00      7.20530E-04
  395.00      6.97740E-04
  397.00      5.78710E-04
  399.00      7.02630E-04
  401.00      7.05850E-04
  403.00      6.75490E-04
  405.00      6.95370E-04
  407.00      6.56000E-04
  409.00      6.12540E-04
  411.00      5.61880E-04
  413.00      6.55830E-04
  415.00      6.56380E-04
  417.00      6.67620E-04
  419.00      6.62010E-04
  421.00      6.59550E-04
  423.00      6.51870E-04
  425.00      6.29430E-04
  427.00      6.22030E-04
  429.00      6.11340E-04
  431.00      5.93210E-04
  433.00      5.54080E-04
  435.00      5.19580E-04
  437.00      5.85000E-04
  439.00      5.89750E-04
  441.00      5.88150E-04
  443.00      5.93880E-04
  445.00      5.85220E-04
  447.00      5.66270E-04
  449.00      5.80340E-04
  451.00      5.78470E-04
  453.00      5.79170E-04
  455.00      5.74700E-04
  457.00      5.72090E-04
  459.00      5.65150E-04
  461.00      5.51920E-04
  463.00      5.44120E-04
  465.00      5.22490E-04
  467.00      5.40460E-04
  469.00      5.39480E-04
  471.00      5.23500E-04
  473.00      5.40590E-04
  475.00      5.34860E-04
  477.00      5.39710E-04
  479.00      5.34240E-04
  481.00      5.24630E-04
  483.00      5.15190E-04
  485.00      4.80770E-04
  487.00      4.35930E-04
  489.00      5.04130E-04
  491.00      5.04580E-04
  493.00      4.92350E-04
  495.00      4.95660E-04
  497.00      5.01270E-04
  499.00      4.96840E-04
  501.00      4.75790E-04
  503.00      4.83700E-04
  505.00      4.80400E-04
  507.00      4.83590E-04
  509.00      4.77020E-04
  511.00      4.72590E-04
  513.00      4.67330E-04
  515.00      4.65400E-04
  517.00      4.63170E-04
  519.00      4.61580E-04
  521.00      4.58330E-04
  523.00      4.56100E-04
  525.00      4.51960E-04
  527.00      4.47150E-04
  529.00      4.47050E-04
  531.00      4.43460E-04
  533.00      4.40930E-04
  535.00      4.37460E-04
  537.00      4.35140E-04
  539.00      4.30910E-04
  541.00      4.26680E-04
  543.00      4.26630E-04
  545.00      4.22870E-04
  547.00      4.20110E-04
  549.00      4.17610E-04
  551.00      4.15710E-04
  553.00      4.12060E-04
  555.00      4.10560E-04
  557.00      4.07750E-04
  559.00      4.04440E-04
  561.00      4.02540E-04
  563.00      4.00320E-04
  565.00      3.96500E-04
  567.00      3.92170E-04
  569.00      3.85700E-04
  571.00      3.84880E-04
  573.00      3.84190E-04
  575.00      3.79850E-04
  577.00      3.80250E-04
  579.00      3.77300E-04
  581.00      3.74750E-04
  583.00      3.71070E-04
  585.00      3.70220E-04
  587.00      3.57440E-04
  589.00      3.62400E-04
  591.00      3.61980E-04
  593.00      3.60210E-04
  595.00      3.58070E-04
  597.00      3.58490E-04
  599.00      3.54550E-04
  601.00      3.54210E-04
  603.00      3.51260E-04
  605.00      3.49760E-04
  607.00      3.48380E-04
  609.00      3.46500E-04
  611.00      3.44140E-04
  613.00      3.42490E-04
  615.00      3.38020E-04
  617.00      3.36650E-04
  619.00      3.36170E-04
  621.00      3.34730E-04
  623.00      3.32820E-04
  625.00      3.29530E-04
  627.00      3.28360E-04
  629.00      3.26770E-04
  631.00      3.24030E-04
  633.00      3.23220E-04
  635.00      3.20180E-04
  637.00      3.19740E-04
  639.00      3.17750E-04
  641.00      3.15880E-04
  643.00      3.14390E-04
  645.00      3.12390E-04
  647.00      3.08190E-04
  649.00      3.06770E-04
  651.00      3.04700E-04
  653.00      3.01240E-04
  655.00      2.89890E-04
  657.00      2.58800E-04
  659.00      2.94570E-04
  661.00      2.96960E-04
  663.00      2.96570E-04
  665.00      2.94620E-04
  667.00      2.89270E-04
  669.00      2.87870E-04
  671.00      2.89690E-04
  673.00      2.87180E-04
  675.00      2.87290E-04
  677.00      2.86020E-04
  679.00      2.81960E-04
  681.00      2.82450E-04
  683.00      2.80320E-04
  685.00      2.79670E-04
  687.00      2.77940E-04
  689.00      2.75590E-04
  691.00      2.72910E-04
  693.00      2.74040E-04
  695.00      2.72660E-04
  697.00      2.71250E-04
  699.00      2.69580E-04
  701.00      2.67890E-04
  703.00      2.66240E-04
  705.00      2.64990E-04
  707.00      2.59560E-04
  709.00      2.62310E-04
  711.00      2.59670E-04
  713.00      2.58560E-04
  715.00      2.58250E-04
  717.00      2.57200E-04
  719.00      2.56080E-04
  721.00      2.54860E-04
  723.00      2.49980E-04
  725.00      2.51270E-04
  727.00      2.50970E-04
  729.00      2.47640E-04
  731.00      2.48290E-04
  733.00      2.47000E-04
  735.00      2.45790E-04
  737.00      2.44710E-04
  739.00      2.43510E-04
  741.00      2.42270E-04
  743.00      2.41010E-04
  745.00      2.39670E-04
  747.00      2.36200E-04
  749.00      2.36460E-04
  751.00      2.36110E-04
  753.00      2.34500E-04
  755.00      2.33980E-04
  757.00      2.32820E-04
  759.00      2.31320E-04
  761.00      2.29460E-04
  763.00      2.29190E-04
  765.00      2.27940E-04
  767.00      2.27170E-04
  769.00      2.25550E-04
  771.00      2.24710E-04
  773.00      2.22830E-04
  775.00      2.22760E-04
  777.00      2.21380E-04
  779.00      2.20790E-04
  781.00      2.19700E-04
  783.00      2.18730E-04
  785.00      2.17640E-04
  787.00      2.15510E-04
  789.00      2.14200E-04
  791.00      2.14190E-04
  793.00      2.13150E-04
  795.00      2.12430E-04
  797.00      2.11280E-04
  799.00      2.10330E-04
  801.00      2.09440E-04
  803.00      2.08360E-04
  805.00      2.07610E-04
  807.00      2.06650E-04
  809.00      2.05550E-04
  811.00      2.02000E-04
  813.00      2.03750E-04
  815.00      2.02780E-04
  817.00      2.02030E-04
  819.00      1.98620E-04
  821.00      1.98330E-04
  823.00      1.96960E-04
  825.00      1.97510E-04
  827.00      1.93700E-04
  829.00      1.95270E-04
  831.00      1.95140E-04
  833.00      1.94140E-04
  835.00      1.92350E-04
  837.00      1.91850E-04
  839.00      1.91830E-04
  841.00      1.90530E-04
  843.00      1.90200E-04
  845.00      1.88200E-04
  847.00      1.88590E-04
  849.00      1.87310E-04
  851.00      1.86130E-04
  853.00      1.85650E-04
  855.00      1.84760E-04
  857.00      1.84500E-04
  859.00      1.81340E-04
  861.00      1.81970E-04
  863.00      1.82760E-04
  865.00      1.79930E-04
  867.00      1.76870E-04
  869.00      1.80110E-04
  871.00      1.80380E-04
  873.00      1.77100E-04
  875.00      1.70080E-04
  877.00      1.74130E-04
  879.00      1.77600E-04
  881.00      1.78220E-04
  883.00      1.75610E-04
  885.00      1.68120E-04
  887.00      1.61670E-04
  889.00      1.72230E-04
  891.00      1.74450E-04
  893.00      1.74350E-04
  895.00      1.73930E-04
  897.00      1.72540E-04
  899.00      1.68080E-04
  901.00      1.54590E-04
  903.00      1.59590E-04
  905.00      1.68110E-04
  907.00      1.67800E-04
  909.00      1.68640E-04
  911.00      1.69010E-04
  913.00      1.68360E-04
  915.00      1.67720E-04
  917.00      1.66090E-04
  919.00      1.64320E-04
  921.00      1.57240E-04
  923.00      1.42440E-04
  925.00      1.55190E-04
  927.00      1.60910E-04
  929.00      1.62040E-04
  931.00      1.61260E-04
  933.00      1.60690E-04
  935.00      1.60600E-04
  937.00      1.60350E-04
  939.00      1.59780E-04
  941.00      1.58710E-04
  943.00      1.58230E-04
  945.00      1.57310E-04
  947.00      1.55990E-04
  949.00      1.55260E-04
  951.00      1.52410E-04
  953.00      1.45600E-04
  955.00      1.32130E-04
  957.00      1.47090E-04
  959.00      1.51780E-04
  961.00      1.51480E-04
  963.00      1.50490E-04
  965.00      1.51900E-04
  967.00      1.51460E-04
  969.00      1.50760E-04
  971.00      1.47940E-04
  973.00      1.49340E-04
  975.00      1.49110E-04
  977.00      1.48530E-04
  979.00      1.47890E-04
  981.00      1.46940E-04
  983.00      1.46750E-04
  985.00      1.45900E-04
  987.00      1.45490E-04
  989.00      1.44170E-04
  991.00      1.43000E-04
  993.00      1.43860E-04
  995.00      1.43190E-04
  997.00      1.42290E-04
  999.00      1.41510E-04
  1002.5      1.33730E-04
  1007.5      1.30450E-04
  1012.5      1.36960E-04
  1017.5      1.37450E-04
  1022.5      1.36070E-04
  1027.5      1.34900E-04
  1032.5      1.33090E-04
  1037.5      1.32500E-04
  1042.5      1.31300E-04
  1047.5      1.30100E-04
  1052.5      1.28790E-04
  1057.5      1.27740E-04
  1062.5      1.26540E-04
  1067.5      1.25260E-04
  1072.5      1.24340E-04
  1077.5      1.23180E-04
  1082.5      1.20730E-04
  1087.5      1.20170E-04
  1092.5      1.09130E-04
  1097.5      1.14880E-04
  1102.5      1.16900E-04
  1107.5      1.16720E-04
  1112.5      1.15810E-04
  1117.5      1.14920E-04
  1122.5      1.13910E-04
  1127.5      1.12870E-04
  1132.5      1.11580E-04
  1137.5      1.10920E-04
  1142.5      1.09960E-04
  1147.5      1.09140E-04
  1152.5      1.08330E-04
  1157.5      1.07290E-04
  1162.5      1.06300E-04
  1167.5      1.05300E-04
  1172.5      1.04820E-04
  1177.5      1.03930E-04
  1182.5      1.03020E-04
  1187.5      1.02250E-04
  1192.5      1.01430E-04
  1197.5      9.92710E-05
  1202.5      9.98360E-05
  1207.5      9.90320E-05
  1212.5      9.82080E-05
  1217.5      9.74670E-05
  1222.5      9.66970E-05
  1227.5      9.59580E-05
  1232.5      9.51060E-05
  1237.5      9.43870E-05
  1242.5      9.37430E-05
  1247.5      9.28670E-05
  1252.5      9.18470E-05
  1257.5      9.14290E-05
  1262.5      9.07380E-05
  1267.5      9.01720E-05
  1272.5      8.93010E-05
  1277.5      8.66850E-05
  1282.5      7.99970E-05
  1287.5      8.64720E-05
  1292.5      8.66920E-05
  1297.5      8.54450E-05
  1302.5      8.53940E-05
  1307.5      8.49480E-05
  1312.5      8.43340E-05
  1317.5      8.37050E-05
  1322.5      8.31010E-05
  1327.5      8.24970E-05
  1332.5      8.18340E-05
  1337.5      8.10830E-05
  1342.5      8.05500E-05
  1347.5      8.00700E-05
  1352.5      7.93410E-05
  1357.5      7.89400E-05
  1362.5      7.81010E-05
  1367.5      7.78210E-05
  1372.5      7.71250E-05
  1377.5      7.67920E-05
  1382.5      7.62620E-05
  1387.5      7.57110E-05
  1392.5      7.50220E-05
  1397.5      7.46440E-05
