 Castelli and Kurucz 2004-2012 Atmosphere
 T     36000.     G    5.00000 [0.5a] VTURB=2  L/H=1.25 NOVER NEW ODF          
 Wavelength  Eddington Hnu
   (nm)    (ergs/s/cm2/Hz/sr)
  9.0900      1.33020E-28
  9.3500      6.05740E-28
  9.6100      2.53070E-27
  9.7700      5.97900E-27
  9.9600      1.58840E-26
  10.200      5.20390E-26
  10.380      1.22720E-25
  10.560      2.81770E-25
  10.770      7.19870E-25
  11.040      2.29210E-24
  11.400      9.93820E-24
  11.780      4.28670E-23
  12.130      1.53310E-22
  12.480      5.13550E-22
  12.710      1.10010E-21
  12.840      1.67350E-21
  13.050      3.23900E-21
  13.240      5.80050E-21
  13.390      9.09510E-21
  13.660      1.99300E-20
  13.980      4.89690E-20
  14.330      1.25020E-19
  14.720      3.35370E-19
  15.100      8.56090E-19
  15.520      2.26700E-18
  15.880      5.02760E-18
  16.200      9.87650E-18
  16.600      2.24310E-17
  17.030      5.13310E-17
  17.340      9.21690E-17
  17.680      1.73650E-16
  18.020      3.12760E-16
  18.170      4.14360E-16
  18.610      8.52270E-16
  19.100      1.83920E-15
  19.390      2.83540E-15
  19.840      5.51860E-15
  20.180      8.82260E-15
  20.500      1.35430E-14
  21.050      2.75170E-14
  21.620      5.43890E-14
  21.980      8.41800E-14
  22.300      1.21260E-13
  22.680      2.08510E-13
  23.000      3.19190E-11
  23.400      6.83190E-11
  24.000      1.05180E-10
  24.650      1.69200E-10
  25.240      2.86130E-10
  25.680      4.12710E-10
  26.000      6.42670E-10
  26.400      1.05770E-09
  26.850      1.65550E-09
  27.350      2.23220E-09
  27.850      2.65110E-09
  28.400      5.62610E-09
  29.000      8.06580E-09
  29.600      1.03360E-08
  30.100      1.86760E-08
  30.800      4.10210E-08
  31.800      8.35870E-08
  32.800      1.20540E-07
  33.800      2.21770E-07
  34.800      3.43350E-07
  35.700      6.98560E-07
  36.600      1.64300E-06
  37.500      1.92280E-06
  38.500      2.90940E-06
  39.500      7.87840E-06
  40.500      1.09440E-05
  41.400      1.57700E-05
  42.200      1.81220E-05
  43.000      1.88440E-05
  44.100      2.27800E-05
  45.100      2.53600E-05
  46.000      2.30930E-05
  47.000      2.77620E-05
  48.000      3.35280E-05
  49.000      2.96970E-05
  50.000      3.98610E-05
  50.600      3.64730E-05
  51.200      2.23860E-04
  52.000      2.09630E-04
  53.000      2.00320E-04
  54.000      1.92020E-04
  55.000      2.03840E-04
  56.000      2.93320E-04
  57.000      3.47620E-04
  58.000      3.37360E-04
  59.000      3.59400E-04
  60.000      2.36300E-04
  61.000      3.19410E-04
  62.000      4.29910E-04
  63.000      4.22540E-04
  64.000      4.47040E-04
  65.000      4.24380E-04
  65.800      2.89340E-04
  66.500      4.16900E-04
  67.500      5.17940E-04
  68.500      3.82080E-04
  69.500      5.42650E-04
  70.500      3.72440E-04
  71.600      6.14280E-04
  72.600      6.13700E-04
  73.500      6.24800E-04
  74.500      5.53500E-04
  75.500      5.72900E-04
  76.500      6.02380E-04
  77.500      6.50130E-04
  78.500      6.35730E-04
  79.500      6.87160E-04
  80.500      6.48170E-04
  81.500      6.57340E-04
  82.500      7.26650E-04
  83.500      5.42480E-04
  84.500      7.09990E-04
  85.500      7.02300E-04
  86.500      7.49210E-04
  87.500      7.62520E-04
  88.500      7.82100E-04
  89.500      7.94150E-04
  90.500      7.75550E-04
  91.500      7.12220E-04
  92.500      1.43190E-03
  93.500      2.20090E-03
  94.500      2.93580E-03
  95.500      3.40650E-03
  96.500      4.03550E-03
  97.500      1.83920E-03
  98.500      3.35950E-03
  99.500      2.94020E-03
  100.50      3.05620E-03
  101.50      3.37970E-03
  102.50      2.68910E-03
  103.50      3.45090E-03
  104.50      4.08230E-03
  105.50      3.90600E-03
  106.50      3.24090E-03
  107.50      3.53920E-03
  108.50      3.24760E-03
  109.50      3.61760E-03
  110.50      3.47290E-03
  111.50      3.48110E-03
  112.50      2.66690E-03
  113.50      3.39450E-03
  114.50      3.35350E-03
  115.50      3.07880E-03
  116.50      3.07750E-03
  117.50      2.14000E-03
  118.50      2.93860E-03
  119.50      2.82270E-03
  120.50      2.74830E-03
  121.50      2.17120E-03
  122.50      2.74920E-03
  123.50      2.98730E-03
  124.50      2.92290E-03
  125.50      2.96340E-03
  126.50      3.08190E-03
  127.50      3.25240E-03
  128.50      3.31030E-03
  129.50      3.09920E-03
  130.50      3.13730E-03
  131.50      3.38190E-03
  132.50      3.30710E-03
  133.50      3.26020E-03
  134.50      3.21620E-03
  135.50      3.23120E-03
  136.50      3.11350E-03
  137.50      3.03350E-03
  138.50      2.94900E-03
  139.50      2.22510E-03
  140.50      2.34070E-03
  141.50      2.99270E-03
  142.50      2.68740E-03
  143.50      2.94170E-03
  144.20      2.89540E-03
  144.70      2.91070E-03
  145.50      2.78200E-03
  146.50      2.74310E-03
  147.50      2.80950E-03
  148.50      2.84490E-03
  149.50      2.78370E-03
  150.50      2.70930E-03
  151.20      2.70700E-03
  151.70      2.73870E-03
  152.50      2.65540E-03
  153.50      2.31970E-03
  154.50      1.90770E-03
  155.50      1.96190E-03
  156.50      2.27270E-03
  157.50      2.41070E-03
  158.50      2.40810E-03
  159.50      2.48930E-03
  160.50      2.38870E-03
  161.50      2.28870E-03
  162.50      2.37620E-03
  163.50      2.40980E-03
  164.50      2.44770E-03
  165.50      2.46640E-03
  166.50      2.41150E-03
  167.20      2.25870E-03
  167.70      2.69540E-03
  168.50      2.58760E-03
  169.50      2.52300E-03
  170.50      2.50940E-03
  171.50      2.41520E-03
  172.50      2.30740E-03
  173.50      2.43510E-03
  174.50      2.45510E-03
  175.50      2.43920E-03
  176.50      2.41030E-03
  177.50      2.33780E-03
  178.50      2.41330E-03
  179.50      2.36920E-03
  180.50      2.37660E-03
  181.50      2.34330E-03
  182.50      2.31370E-03
  183.50      2.33300E-03
  184.50      2.25510E-03
  185.50      2.31240E-03
  186.50      2.33960E-03
  187.50      2.27870E-03
  188.50      2.20460E-03
  189.50      2.20270E-03
  190.50      2.26440E-03
  191.50      2.21880E-03
  192.50      2.08970E-03
  193.50      2.25160E-03
  194.50      2.28930E-03
  195.50      2.09130E-03
  196.70      2.21210E-03
  197.60      2.27270E-03
  198.40      2.22130E-03
  199.50      2.19270E-03
  200.50      2.24800E-03
  201.50      2.25310E-03
  202.50      2.25770E-03
  203.50      2.19140E-03
  204.50      2.17610E-03
  205.50      1.72210E-03
  206.50      1.66630E-03
  207.40      1.71920E-03
  207.80      1.71170E-03
  208.50      1.79680E-03
  209.50      1.91710E-03
  210.50      2.08190E-03
  211.50      2.14610E-03
  212.50      2.09630E-03
  213.50      2.11370E-03
  214.50      2.09620E-03
  215.50      2.10350E-03
  216.50      2.00200E-03
  217.50      2.08850E-03
  218.50      2.02320E-03
  219.50      2.10100E-03
  220.50      2.08460E-03
  221.50      1.98890E-03
  222.50      2.05380E-03
  223.50      2.04160E-03
  224.50      2.02100E-03
  225.50      1.94770E-03
  226.50      2.00210E-03
  227.50      2.00300E-03
  228.50      1.92360E-03
  229.50      1.76670E-03
  230.50      1.87280E-03
  231.50      1.88940E-03
  232.50      1.91150E-03
  233.50      1.90530E-03
  234.50      1.89120E-03
  235.50      1.85620E-03
  236.50      1.83370E-03
  237.50      1.79650E-03
  238.50      1.71350E-03
  239.50      1.75870E-03
  240.50      1.78220E-03
  241.50      1.76730E-03
  242.50      1.77930E-03
  243.50      1.75950E-03
  244.50      1.75520E-03
  245.50      1.74040E-03
  246.50      1.73820E-03
  247.50      1.72860E-03
  248.50      1.66170E-03
  249.50      1.17920E-03
  250.50      1.58330E-03
  251.30      1.55520E-03
  251.80      1.57860E-03
  252.50      1.66640E-03
  253.50      1.67740E-03
  254.50      1.64660E-03
  255.50      1.64580E-03
  256.50      1.62740E-03
  257.50      1.63330E-03
  258.50      1.62760E-03
  259.50      1.59690E-03
  260.50      1.61180E-03
  261.50      1.58180E-03
  262.50      1.59070E-03
  263.50      1.58650E-03
  264.50      1.56780E-03
  265.50      1.56720E-03
  266.50      1.53690E-03
  267.50      1.49710E-03
  268.50      1.52780E-03
  269.50      1.50730E-03
  270.50      1.50930E-03
  271.50      1.49740E-03
  272.50      1.48770E-03
  273.50      1.45360E-03
  274.50      1.48680E-03
  275.50      1.47320E-03
  276.50      1.46250E-03
  277.50      1.46960E-03
  278.50      1.44460E-03
  279.50      1.39670E-03
  280.50      1.42820E-03
  281.50      1.43390E-03
  282.50      1.42450E-03
  283.50      1.40520E-03
  284.50      1.41640E-03
  285.50      1.39970E-03
  286.50      1.38310E-03
  287.50      1.37640E-03
  288.50      1.37340E-03
  289.50      1.35920E-03
  291.00      1.33320E-03
  293.00      1.34600E-03
  295.00      1.32630E-03
  297.00      1.31000E-03
  299.00      1.28110E-03
  301.00      1.24990E-03
  303.00      1.23170E-03
  305.00      1.24150E-03
  307.00      1.23640E-03
  309.00      1.21170E-03
  311.00      1.22050E-03
  313.00      1.19660E-03
  315.00      1.19590E-03
  317.00      1.17760E-03
  319.00      1.17390E-03
  321.00      1.14630E-03
  323.00      1.14470E-03
  325.00      1.14260E-03
  327.00      1.11380E-03
  329.00      1.11410E-03
  331.00      1.09910E-03
  333.00      1.08430E-03
  335.00      1.06610E-03
  337.00      1.05970E-03
  339.00      1.06120E-03
  341.00      1.04930E-03
  343.00      1.04940E-03
  345.00      1.02480E-03
  347.00      1.02420E-03
  349.00      1.01650E-03
  351.00      1.00730E-03
  353.00      1.00150E-03
  355.00      9.89730E-04
  357.00      9.81790E-04
  359.00      9.69700E-04
  361.00      9.61030E-04
  363.00      9.51930E-04
  364.00      9.41830E-04
  365.00      8.90590E-04
  367.00      8.86260E-04
  369.00      8.77740E-04
  371.00      8.51610E-04
  373.00      8.56380E-04
  375.00      8.57010E-04
  377.00      8.43490E-04
  379.00      8.75540E-04
  381.00      9.00810E-04
  383.00      8.29360E-04
  385.00      9.13300E-04
  387.00      8.87780E-04
  389.00      7.94230E-04
  391.00      9.23190E-04
  393.00      9.06420E-04
  395.00      8.77910E-04
  397.00      7.57470E-04
  399.00      8.86260E-04
  401.00      8.81880E-04
  403.00      8.52860E-04
  405.00      8.72270E-04
  407.00      8.35150E-04
  409.00      7.86610E-04
  411.00      7.33450E-04
  413.00      8.25760E-04
  415.00      8.23930E-04
  417.00      8.33420E-04
  419.00      8.22650E-04
  421.00      8.10760E-04
  423.00      8.13810E-04
  425.00      7.92460E-04
  427.00      7.85240E-04
  429.00      7.73030E-04
  431.00      7.55920E-04
  433.00      7.14330E-04
  435.00      6.74810E-04
  437.00      7.46240E-04
  439.00      7.39560E-04
  441.00      7.35920E-04
  443.00      7.40350E-04
  445.00      7.31350E-04
  447.00      7.14040E-04
  449.00      7.24610E-04
  451.00      7.12960E-04
  453.00      7.13840E-04
  455.00      7.01150E-04
  457.00      7.07240E-04
  459.00      6.98140E-04
  461.00      6.88450E-04
  463.00      6.76180E-04
  465.00      6.44580E-04
  467.00      6.69600E-04
  469.00      6.61090E-04
  471.00      6.58390E-04
  473.00      6.74160E-04
  475.00      6.67390E-04
  477.00      6.67020E-04
  479.00      6.61510E-04
  481.00      6.52880E-04
  483.00      6.43640E-04
  485.00      6.09060E-04
  487.00      5.58380E-04
  489.00      6.27280E-04
  491.00      6.25620E-04
  493.00      6.14830E-04
  495.00      6.15730E-04
  497.00      6.19620E-04
  499.00      6.15020E-04
  501.00      5.95110E-04
  503.00      5.98770E-04
  505.00      5.96440E-04
  507.00      5.97610E-04
  509.00      5.92130E-04
  511.00      5.87410E-04
  513.00      5.82660E-04
  515.00      5.79000E-04
  517.00      5.73950E-04
  519.00      5.71200E-04
  521.00      5.67790E-04
  523.00      5.64490E-04
  525.00      5.57900E-04
  527.00      5.52980E-04
  529.00      5.53080E-04
  531.00      5.48560E-04
  533.00      5.45240E-04
  535.00      5.41750E-04
  537.00      5.37970E-04
  539.00      5.33300E-04
  541.00      5.21470E-04
  543.00      5.27360E-04
  545.00      5.23600E-04
  547.00      5.19860E-04
  549.00      5.16570E-04
  551.00      5.12690E-04
  553.00      5.09640E-04
  555.00      5.06950E-04
  557.00      5.03220E-04
  559.00      4.97830E-04
  561.00      4.97120E-04
  563.00      4.93950E-04
  565.00      4.90380E-04
  567.00      4.86230E-04
  569.00      4.75360E-04
  571.00      4.64320E-04
  573.00      4.62250E-04
  575.00      4.58220E-04
  577.00      4.57120E-04
  579.00      4.54010E-04
  581.00      4.49620E-04
  583.00      4.46800E-04
  585.00      4.46420E-04
  587.00      4.34750E-04
  589.00      4.40720E-04
  591.00      4.39930E-04
  593.00      4.38480E-04
  595.00      4.37080E-04
  597.00      4.36910E-04
  599.00      4.34790E-04
  601.00      4.34190E-04
  603.00      4.32120E-04
  605.00      4.31060E-04
  607.00      4.29230E-04
  609.00      4.27000E-04
  611.00      4.24000E-04
  613.00      4.21850E-04
  615.00      4.17780E-04
  617.00      4.15600E-04
  619.00      4.14530E-04
  621.00      4.12450E-04
  623.00      4.09420E-04
  625.00      4.06360E-04
  627.00      4.04850E-04
  629.00      4.02430E-04
  631.00      3.98850E-04
  633.00      3.97980E-04
  635.00      3.94840E-04
  637.00      3.93570E-04
  639.00      3.91280E-04
  641.00      3.88390E-04
  643.00      3.86840E-04
  645.00      3.84120E-04
  647.00      3.80680E-04
  649.00      3.78180E-04
  651.00      3.74840E-04
  653.00      3.71770E-04
  655.00      3.60650E-04
  657.00      3.26940E-04
  659.00      3.64940E-04
  661.00      3.66030E-04
  663.00      3.65140E-04
  665.00      3.62860E-04
  667.00      3.55710E-04
  669.00      3.53330E-04
  671.00      3.55350E-04
  673.00      3.53120E-04
  675.00      3.52420E-04
  677.00      3.51280E-04
  679.00      3.48560E-04
  681.00      3.47610E-04
  683.00      3.45420E-04
  685.00      3.43660E-04
  687.00      3.41400E-04
  689.00      3.37410E-04
  691.00      3.36120E-04
  693.00      3.36700E-04
  695.00      3.34830E-04
  697.00      3.33100E-04
  699.00      3.31020E-04
  701.00      3.28470E-04
  703.00      3.26510E-04
  705.00      3.24820E-04
  707.00      3.19480E-04
  709.00      3.22530E-04
  711.00      3.20220E-04
  713.00      3.18710E-04
  715.00      3.17590E-04
  717.00      3.14660E-04
  719.00      3.13430E-04
  721.00      3.12670E-04
  723.00      3.08840E-04
  725.00      3.08760E-04
  727.00      3.07850E-04
  729.00      3.04290E-04
  731.00      3.04260E-04
  733.00      3.03060E-04
  735.00      3.01480E-04
  737.00      2.99880E-04
  739.00      2.98550E-04
  741.00      2.96850E-04
  743.00      2.95520E-04
  745.00      2.93550E-04
  747.00      2.91230E-04
  749.00      2.89190E-04
  751.00      2.89300E-04
  753.00      2.87730E-04
  755.00      2.86640E-04
  757.00      2.85110E-04
  759.00      2.81380E-04
  761.00      2.81250E-04
  763.00      2.80570E-04
  765.00      2.79070E-04
  767.00      2.78110E-04
  769.00      2.75190E-04
  771.00      2.74720E-04
  773.00      2.71910E-04
  775.00      2.72550E-04
  777.00      2.71570E-04
  779.00      2.70210E-04
  781.00      2.69020E-04
  783.00      2.67720E-04
  785.00      2.65790E-04
  787.00      2.63990E-04
  789.00      2.62950E-04
  791.00      2.62450E-04
  793.00      2.61250E-04
  795.00      2.60270E-04
  797.00      2.58540E-04
  799.00      2.57590E-04
  801.00      2.56480E-04
  803.00      2.55010E-04
  805.00      2.54200E-04
  807.00      2.52970E-04
  809.00      2.51720E-04
  811.00      2.48860E-04
  813.00      2.49460E-04
  815.00      2.48140E-04
  817.00      2.46930E-04
  819.00      2.44170E-04
  821.00      2.40340E-04
  823.00      2.38120E-04
  825.00      2.38210E-04
  827.00      2.35900E-04
  829.00      2.36290E-04
  831.00      2.35800E-04
  833.00      2.33860E-04
  835.00      2.32230E-04
  837.00      2.31970E-04
  839.00      2.31770E-04
  841.00      2.30420E-04
  843.00      2.29790E-04
  845.00      2.28080E-04
  847.00      2.27870E-04
  849.00      2.26670E-04
  851.00      2.24770E-04
  853.00      2.24740E-04
  855.00      2.23790E-04
  857.00      2.23150E-04
  859.00      2.20620E-04
  861.00      2.20820E-04
  863.00      2.21240E-04
  865.00      2.18840E-04
  867.00      2.15790E-04
  869.00      2.18570E-04
  871.00      2.18510E-04
  873.00      2.15690E-04
  875.00      2.09320E-04
  877.00      2.12830E-04
  879.00      2.15630E-04
  881.00      2.15880E-04
  883.00      2.13530E-04
  885.00      2.06640E-04
  887.00      2.00330E-04
  889.00      2.09990E-04
  891.00      2.11720E-04
  893.00      2.11410E-04
  895.00      2.10550E-04
  897.00      2.09350E-04
  899.00      2.05240E-04
  901.00      1.91780E-04
  903.00      1.96480E-04
  905.00      2.04540E-04
  907.00      2.04030E-04
  909.00      2.04490E-04
  911.00      2.04640E-04
  913.00      2.03790E-04
  915.00      2.03120E-04
  917.00      2.01310E-04
  919.00      1.99550E-04
  921.00      1.92670E-04
  923.00      1.77530E-04
  925.00      1.90460E-04
  927.00      1.95960E-04
  929.00      1.96320E-04
  931.00      1.95550E-04
  933.00      1.94930E-04
  935.00      1.92430E-04
  937.00      1.93730E-04
  939.00      1.93200E-04
  941.00      1.91880E-04
  943.00      1.91390E-04
  945.00      1.90570E-04
  947.00      1.89130E-04
  949.00      1.88300E-04
  951.00      1.85370E-04
  953.00      1.78640E-04
  955.00      1.64370E-04
  957.00      1.79760E-04
  959.00      1.84100E-04
  961.00      1.83780E-04
  963.00      1.82610E-04
  965.00      1.83600E-04
  967.00      1.83120E-04
  969.00      1.82300E-04
  971.00      1.77140E-04
  973.00      1.80100E-04
  975.00      1.80230E-04
  977.00      1.79390E-04
  979.00      1.78740E-04
  981.00      1.77870E-04
  983.00      1.77250E-04
  985.00      1.76460E-04
  987.00      1.75950E-04
  989.00      1.74680E-04
  991.00      1.73630E-04
  993.00      1.73910E-04
  995.00      1.73260E-04
  997.00      1.72250E-04
  999.00      1.71300E-04
  1002.5      1.63290E-04
  1007.5      1.59620E-04
  1012.5      1.64560E-04
  1017.5      1.66030E-04
  1022.5      1.64300E-04
  1027.5      1.62800E-04
  1032.5      1.60750E-04
  1037.5      1.59940E-04
  1042.5      1.58370E-04
  1047.5      1.57030E-04
  1052.5      1.55510E-04
  1057.5      1.54170E-04
  1062.5      1.52740E-04
  1067.5      1.51250E-04
  1072.5      1.50040E-04
  1077.5      1.48650E-04
  1082.5      1.45980E-04
  1087.5      1.45210E-04
  1092.5      1.33770E-04
  1097.5      1.39550E-04
  1102.5      1.41390E-04
  1107.5      1.40870E-04
  1112.5      1.39700E-04
  1117.5      1.38600E-04
  1122.5      1.37350E-04
  1127.5      1.36160E-04
  1132.5      1.34780E-04
  1137.5      1.33750E-04
  1142.5      1.32670E-04
  1147.5      1.31580E-04
  1152.5      1.30580E-04
  1157.5      1.29350E-04
  1162.5      1.27570E-04
  1167.5      1.26780E-04
  1172.5      1.26310E-04
  1177.5      1.25250E-04
  1182.5      1.23990E-04
  1187.5      1.23120E-04
  1192.5      1.22140E-04
  1197.5      1.19770E-04
  1202.5      1.20260E-04
  1207.5      1.19200E-04
  1212.5      1.18150E-04
  1217.5      1.17380E-04
  1222.5      1.16450E-04
  1227.5      1.15550E-04
  1232.5      1.14550E-04
  1237.5      1.13690E-04
  1242.5      1.12860E-04
  1247.5      1.11920E-04
  1252.5      1.10780E-04
  1257.5      1.10130E-04
  1262.5      1.09330E-04
  1267.5      1.08560E-04
  1272.5      1.07580E-04
  1277.5      1.04870E-04
  1282.5      9.77540E-05
  1287.5      1.04380E-04
  1292.5      1.04430E-04
  1297.5      1.03110E-04
  1302.5      1.02810E-04
  1307.5      1.02200E-04
  1312.5      1.01450E-04
  1317.5      1.00690E-04
  1322.5      9.99590E-05
  1327.5      9.92270E-05
  1332.5      9.84630E-05
  1337.5      9.76660E-05
  1342.5      9.69540E-05
  1347.5      9.63130E-05
  1352.5      9.55350E-05
  1357.5      9.49690E-05
  1362.5      9.41070E-05
  1367.5      9.36200E-05
  1372.5      9.27850E-05
  1377.5      9.23180E-05
  1382.5      9.16750E-05
  1387.5      9.10200E-05
  1392.5      9.02710E-05
  1397.5      8.97480E-05
