 Castelli and Kurucz 2004-2012 Atmosphere
 T     44000.     G    4.50000 [0.5a] VTURB=2  L/H=1.25 NOVER NEW ODF          
 Wavelength  Eddington Hnu
   (nm)    (ergs/s/cm2/Hz/sr)
  9.0900      4.41970E-23
  9.3500      1.54310E-22
  9.6100      4.91560E-22
  9.7700      1.00830E-21
  9.9600      2.24280E-21
  10.200      5.91170E-21
  10.380      1.18940E-20
  10.560      2.33860E-20
  10.770      5.00710E-20
  11.040      1.27880E-19
  11.400      4.17570E-19
  11.780      1.34080E-18
  12.130      3.74060E-18
  12.480      9.78310E-18
  12.710      1.79370E-17
  12.840      2.53480E-17
  13.050      4.25990E-17
  13.240      6.70370E-17
  13.390      9.61060E-17
  13.660      1.76770E-16
  13.980      3.63050E-16
  14.330      7.46380E-16
  14.720      1.54080E-15
  15.100      3.37730E-15
  15.520      7.22760E-15
  15.880      1.36840E-14
  16.200      3.15860E-14
  16.600      6.11580E-14
  17.030      1.13440E-13
  17.340      1.75890E-13
  17.680      3.04170E-13
  18.020      4.88450E-13
  18.170      6.08140E-13
  18.610      1.13190E-12
  19.100      2.04310E-12
  19.390      3.04110E-12
  19.840      5.28330E-12
  20.180      7.14080E-12
  20.500      1.05080E-11
  21.050      1.80830E-11
  21.620      3.03310E-11
  21.980      4.30420E-11
  22.300      5.53970E-11
  22.680      8.66700E-11
  23.000      1.17610E-08
  23.400      2.95960E-08
  24.000      3.79400E-08
  24.650      6.86470E-08
  25.240      1.95580E-07
  25.680      4.08930E-07
  26.000      4.05410E-07
  26.400      2.68330E-06
  26.850      3.64270E-06
  27.350      5.27100E-06
  27.850      2.44200E-06
  28.400      8.29050E-06
  29.000      1.97480E-05
  29.600      1.50440E-05
  30.100      1.88710E-05
  30.800      4.19130E-05
  31.800      6.08810E-06
  32.800      1.07510E-05
  33.800      1.02770E-05
  34.800      1.28920E-05
  35.700      3.12340E-05
  36.600      8.73010E-05
  37.500      1.53970E-04
  38.500      1.65160E-04
  39.500      3.52480E-04
  40.500      8.73860E-04
  41.400      7.73900E-04
  42.200      6.96100E-04
  43.000      6.96900E-04
  44.100      9.19670E-04
  45.100      9.77050E-04
  46.000      6.77280E-04
  47.000      8.91490E-04
  48.000      1.23480E-03
  49.000      7.09070E-04
  50.000      1.75730E-03
  50.600      1.20820E-03
  51.200      1.82150E-03
  52.000      1.71330E-03
  53.000      1.64380E-03
  54.000      1.23990E-03
  55.000      7.79930E-04
  56.000      1.20800E-03
  57.000      2.20440E-03
  58.000      2.31660E-03
  59.000      2.35290E-03
  60.000      1.54290E-03
  61.000      1.15300E-03
  62.000      1.95600E-03
  63.000      1.71170E-03
  64.000      2.48860E-03
  65.000      2.20820E-03
  65.800      1.61660E-03
  66.500      2.45820E-03
  67.500      2.67200E-03
  68.500      2.18580E-03
  69.500      2.69520E-03
  70.500      1.95930E-03
  71.600      2.73200E-03
  72.600      2.91660E-03
  73.500      2.92440E-03
  74.500      2.67180E-03
  75.500      2.58740E-03
  76.500      2.21370E-03
  77.500      2.69820E-03
  78.500      1.89420E-03
  79.500      2.56100E-03
  80.500      2.79390E-03
  81.500      2.80470E-03
  82.500      2.90320E-03
  83.500      2.33240E-03
  84.500      2.80710E-03
  85.500      2.45900E-03
  86.500      2.87960E-03
  87.500      2.96680E-03
  88.500      2.88280E-03
  89.500      2.85920E-03
  90.500      2.78510E-03
  91.500      2.11490E-03
  92.500      3.25020E-03
  93.500      4.12530E-03
  94.500      4.49760E-03
  95.500      5.42210E-03
  96.500      5.63410E-03
  97.500      4.45900E-03
  98.500      5.09830E-03
  99.500      4.49260E-03
  100.50      4.49600E-03
  101.50      4.76480E-03
  102.50      4.70980E-03
  103.50      5.17420E-03
  104.50      5.55050E-03
  105.50      5.47100E-03
  106.50      5.15100E-03
  107.50      5.47590E-03
  108.50      4.98980E-03
  109.50      5.36840E-03
  110.50      5.31570E-03
  111.50      5.32370E-03
  112.50      5.10500E-03
  113.50      5.39120E-03
  114.50      5.48300E-03
  115.50      5.11830E-03
  116.50      4.85110E-03
  117.50      4.39530E-03
  118.50      4.90750E-03
  119.50      4.50580E-03
  120.50      4.54610E-03
  121.50      4.03430E-03
  122.50      4.43500E-03
  123.50      4.35580E-03
  124.50      4.22520E-03
  125.50      4.48150E-03
  126.50      4.57760E-03
  127.50      4.69600E-03
  128.50      4.69640E-03
  129.50      4.74220E-03
  130.50      4.62480E-03
  131.50      4.64570E-03
  132.50      4.60430E-03
  133.50      4.54310E-03
  134.50      4.49950E-03
  135.50      4.37360E-03
  136.50      4.18800E-03
  137.50      3.98030E-03
  138.50      4.15050E-03
  139.50      3.96840E-03
  140.50      3.76550E-03
  141.50      4.38050E-03
  142.50      4.06830E-03
  143.50      4.31280E-03
  144.20      4.05920E-03
  144.70      4.10060E-03
  145.50      4.01000E-03
  146.50      4.01630E-03
  147.50      4.08400E-03
  148.50      4.15330E-03
  149.50      4.05340E-03
  150.50      4.02990E-03
  151.20      4.03400E-03
  151.70      3.95390E-03
  152.50      4.00250E-03
  153.50      3.70430E-03
  154.50      2.99600E-03
  155.50      3.14490E-03
  156.50      3.61200E-03
  157.50      3.76030E-03
  158.50      3.67760E-03
  159.50      3.81200E-03
  160.50      3.66080E-03
  161.50      3.59600E-03
  162.50      3.69590E-03
  163.50      3.73790E-03
  164.50      3.61970E-03
  165.50      3.73730E-03
  166.50      3.65000E-03
  167.20      3.52280E-03
  167.70      3.85680E-03
  168.50      3.81710E-03
  169.50      3.82870E-03
  170.50      3.70630E-03
  171.50      3.54290E-03
  172.50      3.53060E-03
  173.50      3.70770E-03
  174.50      3.70670E-03
  175.50      3.67740E-03
  176.50      3.60460E-03
  177.50      3.55760E-03
  178.50      3.61390E-03
  179.50      3.52620E-03
  180.50      3.51630E-03
  181.50      3.45010E-03
  182.50      3.43930E-03
  183.50      3.44060E-03
  184.50      3.46970E-03
  185.50      3.45650E-03
  186.50      3.48050E-03
  187.50      3.39280E-03
  188.50      3.36330E-03
  189.50      3.42110E-03
  190.50      3.40610E-03
  191.50      3.39460E-03
  192.50      3.23740E-03
  193.50      3.36560E-03
  194.50      3.36090E-03
  195.50      3.25680E-03
  196.70      3.28480E-03
  197.60      3.23330E-03
  198.40      3.27830E-03
  199.50      3.24560E-03
  200.50      3.25220E-03
  201.50      3.23460E-03
  202.50      3.22690E-03
  203.50      3.16880E-03
  204.50      3.13460E-03
  205.50      2.31290E-03
  206.50      2.24090E-03
  207.40      2.33960E-03
  207.80      2.41770E-03
  208.50      2.64680E-03
  209.50      2.94530E-03
  210.50      2.97000E-03
  211.50      3.01100E-03
  212.50      2.96050E-03
  213.50      2.99010E-03
  214.50      2.95930E-03
  215.50      2.94890E-03
  216.50      2.78800E-03
  217.50      2.93440E-03
  218.50      2.83670E-03
  219.50      2.92640E-03
  220.50      2.89650E-03
  221.50      2.77290E-03
  222.50      2.87190E-03
  223.50      2.85150E-03
  224.50      2.83470E-03
  225.50      2.73530E-03
  226.50      2.78380E-03
  227.50      2.80510E-03
  228.50      2.71480E-03
  229.50      2.67880E-03
  230.50      2.64300E-03
  231.50      2.65430E-03
  232.50      2.69120E-03
  233.50      2.68320E-03
  234.50      2.63570E-03
  235.50      2.59310E-03
  236.50      2.56410E-03
  237.50      2.51740E-03
  238.50      2.40130E-03
  239.50      2.48090E-03
  240.50      2.46930E-03
  241.50      2.45930E-03
  242.50      2.48720E-03
  243.50      2.45670E-03
  244.50      2.44480E-03
  245.50      2.40350E-03
  246.50      2.40990E-03
  247.50      2.43630E-03
  248.50      2.37300E-03
  249.50      1.97230E-03
  250.50      2.34390E-03
  251.30      2.20450E-03
  251.80      2.27660E-03
  252.50      2.31100E-03
  253.50      2.33280E-03
  254.50      2.32950E-03
  255.50      2.31680E-03
  256.50      2.30300E-03
  257.50      2.28390E-03
  258.50      2.27420E-03
  259.50      2.18990E-03
  260.50      2.25000E-03
  261.50      2.18500E-03
  262.50      2.22830E-03
  263.50      2.22270E-03
  264.50      2.17890E-03
  265.50      2.19270E-03
  266.50      2.17750E-03
  267.50      2.12130E-03
  268.50      2.13820E-03
  269.50      2.12390E-03
  270.50      2.14440E-03
  271.50      2.12490E-03
  272.50      2.10740E-03
  273.50      2.03910E-03
  274.50      2.09440E-03
  275.50      2.06350E-03
  276.50      2.06460E-03
  277.50      2.04190E-03
  278.50      1.99010E-03
  279.50      1.98350E-03
  280.50      1.99690E-03
  281.50      1.98900E-03
  282.50      1.96530E-03
  283.50      1.97200E-03
  284.50      1.96830E-03
  285.50      1.95300E-03
  286.50      1.91300E-03
  287.50      1.89320E-03
  288.50      1.91100E-03
  289.50      1.89420E-03
  291.00      1.88540E-03
  293.00      1.87810E-03
  295.00      1.85920E-03
  297.00      1.83070E-03
  299.00      1.79440E-03
  301.00      1.77500E-03
  303.00      1.73670E-03
  305.00      1.73700E-03
  307.00      1.69280E-03
  309.00      1.70660E-03
  311.00      1.69330E-03
  313.00      1.67250E-03
  315.00      1.66780E-03
  317.00      1.64740E-03
  319.00      1.63510E-03
  321.00      1.57800E-03
  323.00      1.60250E-03
  325.00      1.58960E-03
  327.00      1.55050E-03
  329.00      1.54920E-03
  331.00      1.53130E-03
  333.00      1.51010E-03
  335.00      1.47530E-03
  337.00      1.47540E-03
  339.00      1.45660E-03
  341.00      1.44230E-03
  343.00      1.44840E-03
  345.00      1.41290E-03
  347.00      1.41510E-03
  349.00      1.40440E-03
  351.00      1.39860E-03
  353.00      1.37550E-03
  355.00      1.36590E-03
  357.00      1.35140E-03
  359.00      1.34320E-03
  361.00      1.32790E-03
  363.00      1.31210E-03
  364.00      1.28240E-03
  365.00      1.14210E-03
  367.00      1.13430E-03
  369.00      1.12680E-03
  371.00      1.11950E-03
  373.00      1.14040E-03
  375.00      1.16660E-03
  377.00      1.18450E-03
  379.00      1.21570E-03
  381.00      1.23140E-03
  383.00      1.18160E-03
  385.00      1.23460E-03
  387.00      1.21760E-03
  389.00      1.13920E-03
  391.00      1.21910E-03
  393.00      1.19240E-03
  395.00      1.18140E-03
  397.00      1.08600E-03
  399.00      1.17700E-03
  401.00      1.16610E-03
  403.00      1.13730E-03
  405.00      1.14890E-03
  407.00      1.13120E-03
  409.00      1.09290E-03
  411.00      1.03920E-03
  413.00      1.10290E-03
  415.00      1.09870E-03
  417.00      1.09300E-03
  419.00      1.08010E-03
  421.00      1.05530E-03
  423.00      1.06850E-03
  425.00      1.05730E-03
  427.00      1.05010E-03
  429.00      1.04050E-03
  431.00      1.02650E-03
  433.00      9.89490E-04
  435.00      9.50220E-04
  437.00      9.99830E-04
  439.00      9.85360E-04
  441.00      9.73510E-04
  443.00      9.75640E-04
  445.00      9.65330E-04
  447.00      9.58630E-04
  449.00      9.55100E-04
  451.00      9.41120E-04
  453.00      9.33710E-04
  455.00      9.10230E-04
  457.00      9.22690E-04
  459.00      9.14260E-04
  461.00      9.09970E-04
  463.00      8.94210E-04
  465.00      8.68160E-04
  467.00      8.85700E-04
  469.00      8.53300E-04
  471.00      8.79120E-04
  473.00      8.76820E-04
  475.00      8.70760E-04
  477.00      8.63530E-04
  479.00      8.53010E-04
  481.00      8.49450E-04
  483.00      8.43300E-04
  485.00      8.22510E-04
  487.00      7.72880E-04
  489.00      8.22990E-04
  491.00      8.17360E-04
  493.00      8.12210E-04
  495.00      8.07000E-04
  497.00      8.02110E-04
  499.00      7.97150E-04
  501.00      7.86890E-04
  503.00      7.82520E-04
  505.00      7.77420E-04
  507.00      7.73740E-04
  509.00      7.68870E-04
  511.00      7.62610E-04
  513.00      7.56200E-04
  515.00      7.51770E-04
  517.00      7.47610E-04
  519.00      7.42200E-04
  521.00      7.36120E-04
  523.00      7.32180E-04
  525.00      7.24900E-04
  527.00      7.18860E-04
  529.00      7.17190E-04
  531.00      7.11840E-04
  533.00      7.06960E-04
  535.00      7.02850E-04
  537.00      6.97460E-04
  539.00      6.92880E-04
  541.00      6.73390E-04
  543.00      6.83880E-04
  545.00      6.79410E-04
  547.00      6.74170E-04
  549.00      6.70190E-04
  551.00      6.63860E-04
  553.00      6.61380E-04
  555.00      6.57240E-04
  557.00      6.51320E-04
  559.00      6.43940E-04
  561.00      6.44350E-04
  563.00      6.40050E-04
  565.00      6.35810E-04
  567.00      6.31620E-04
  569.00      6.15280E-04
  571.00      5.71520E-04
  573.00      5.68140E-04
  575.00      5.64400E-04
  577.00      5.61850E-04
  579.00      5.59170E-04
  581.00      5.51210E-04
  583.00      5.55760E-04
  585.00      5.56360E-04
  587.00      5.53090E-04
  589.00      5.57120E-04
  591.00      5.58150E-04
  593.00      5.59780E-04
  595.00      5.62420E-04
  597.00      5.64540E-04
  599.00      5.66630E-04
  601.00      5.65100E-04
  603.00      5.62820E-04
  605.00      5.60140E-04
  607.00      5.56590E-04
  609.00      5.54260E-04
  611.00      5.49870E-04
  613.00      5.46810E-04
  615.00      5.44470E-04
  617.00      5.39070E-04
  619.00      5.38720E-04
  621.00      5.35780E-04
  623.00      5.29230E-04
  625.00      5.28500E-04
  627.00      5.26120E-04
  629.00      5.23150E-04
  631.00      5.15620E-04
  633.00      5.16860E-04
  635.00      5.13840E-04
  637.00      5.11200E-04
  639.00      5.07410E-04
  641.00      4.99910E-04
  643.00      5.02410E-04
  645.00      4.98930E-04
  647.00      4.95930E-04
  649.00      4.93440E-04
  651.00      4.88960E-04
  653.00      4.81230E-04
  655.00      4.79090E-04
  657.00      4.45680E-04
  659.00      4.78770E-04
  661.00      4.77230E-04
  663.00      4.74650E-04
  665.00      4.71930E-04
  667.00      4.66010E-04
  669.00      4.58110E-04
  671.00      4.62440E-04
  673.00      4.60770E-04
  675.00      4.58260E-04
  677.00      4.56050E-04
  679.00      4.53960E-04
  681.00      4.51430E-04
  683.00      4.49000E-04
  685.00      4.46310E-04
  687.00      4.43810E-04
  689.00      4.33630E-04
  691.00      4.38730E-04
  693.00      4.36980E-04
  695.00      4.34530E-04
  697.00      4.32270E-04
  699.00      4.29830E-04
  701.00      4.26830E-04
  703.00      4.23970E-04
  705.00      4.21670E-04
  707.00      4.18920E-04
  709.00      4.18590E-04
  711.00      4.15610E-04
  713.00      4.13500E-04
  715.00      4.12090E-04
  717.00      4.04460E-04
  719.00      4.04610E-04
  721.00      4.05420E-04
  723.00      4.03520E-04
  725.00      4.01460E-04
  727.00      3.99410E-04
  729.00      3.96990E-04
  731.00      3.94170E-04
  733.00      3.93240E-04
  735.00      3.91290E-04
  737.00      3.88550E-04
  739.00      3.86640E-04
  741.00      3.84610E-04
  743.00      3.83390E-04
  745.00      3.80320E-04
  747.00      3.79210E-04
  749.00      3.76230E-04
  751.00      3.75010E-04
  753.00      3.73600E-04
  755.00      3.71630E-04
  757.00      3.69640E-04
  759.00      3.60500E-04
  761.00      3.65130E-04
  763.00      3.64190E-04
  765.00      3.62410E-04
  767.00      3.60470E-04
  769.00      3.57620E-04
  771.00      3.56180E-04
  773.00      3.53820E-04
  775.00      3.53190E-04
  777.00      3.52270E-04
  779.00      3.50180E-04
  781.00      3.48870E-04
  783.00      3.47030E-04
  785.00      3.43330E-04
  787.00      3.42890E-04
  789.00      3.41840E-04
  791.00      3.40570E-04
  793.00      3.39090E-04
  795.00      3.37300E-04
  797.00      3.34590E-04
  799.00      3.34190E-04
  801.00      3.32620E-04
  803.00      3.30710E-04
  805.00      3.29570E-04
  807.00      3.28030E-04
  809.00      3.26500E-04
  811.00      3.24940E-04
  813.00      3.23480E-04
  815.00      3.21950E-04
  817.00      3.19610E-04
  819.00      3.17060E-04
  821.00      2.99810E-04
  823.00      2.96050E-04
  825.00      2.96680E-04
  827.00      2.95830E-04
  829.00      2.94660E-04
  831.00      2.93470E-04
  833.00      2.91200E-04
  835.00      2.90580E-04
  837.00      2.89640E-04
  839.00      2.88770E-04
  841.00      2.87870E-04
  843.00      2.86990E-04
  845.00      2.86070E-04
  847.00      2.85280E-04
  849.00      2.84660E-04
  851.00      2.83260E-04
  853.00      2.83410E-04
  855.00      2.82230E-04
  857.00      2.81920E-04
  859.00      2.81020E-04
  861.00      2.80400E-04
  863.00      2.81170E-04
  865.00      2.80130E-04
  867.00      2.76210E-04
  869.00      2.79950E-04
  871.00      2.80080E-04
  873.00      2.79090E-04
  875.00      2.72180E-04
  877.00      2.77230E-04
  879.00      2.78680E-04
  881.00      2.78350E-04
  883.00      2.77460E-04
  885.00      2.72400E-04
  887.00      2.64130E-04
  889.00      2.73370E-04
  891.00      2.73430E-04
  893.00      2.71880E-04
  895.00      2.71280E-04
  897.00      2.70330E-04
  899.00      2.67980E-04
  901.00      2.54850E-04
  903.00      2.59960E-04
  905.00      2.65320E-04
  907.00      2.64860E-04
  909.00      2.63890E-04
  911.00      2.62160E-04
  913.00      2.61810E-04
  915.00      2.61060E-04
  917.00      2.59350E-04
  919.00      2.58050E-04
  921.00      2.54380E-04
  923.00      2.38480E-04
  925.00      2.51340E-04
  927.00      2.53690E-04
  929.00      2.53230E-04
  931.00      2.52260E-04
  933.00      2.50940E-04
  935.00      2.43610E-04
  937.00      2.47370E-04
  939.00      2.47800E-04
  941.00      2.46810E-04
  943.00      2.46060E-04
  945.00      2.45100E-04
  947.00      2.44150E-04
  949.00      2.42990E-04
  951.00      2.41350E-04
  953.00      2.37130E-04
  955.00      2.22020E-04
  957.00      2.36530E-04
  959.00      2.37950E-04
  961.00      2.37430E-04
  963.00      2.36100E-04
  965.00      2.35640E-04
  967.00      2.34810E-04
  969.00      2.33880E-04
  971.00      2.30310E-04
  973.00      2.31440E-04
  975.00      2.30620E-04
  977.00      2.27900E-04
  979.00      2.29250E-04
  981.00      2.28330E-04
  983.00      2.27050E-04
  985.00      2.26600E-04
  987.00      2.25750E-04
  989.00      2.24810E-04
  991.00      2.23780E-04
  993.00      2.23120E-04
  995.00      2.22270E-04
  997.00      2.21410E-04
  999.00      2.20540E-04
  1002.5      2.14830E-04
  1007.5      2.10480E-04
  1012.5      2.10030E-04
  1017.5      2.12880E-04
  1022.5      2.10800E-04
  1027.5      2.08480E-04
  1032.5      2.06550E-04
  1037.5      2.04960E-04
  1042.5      2.01680E-04
  1047.5      2.01290E-04
  1052.5      1.99410E-04
  1057.5      1.97610E-04
  1062.5      1.95830E-04
  1067.5      1.94050E-04
  1072.5      1.92320E-04
  1077.5      1.90590E-04
  1082.5      1.88290E-04
  1087.5      1.87060E-04
  1092.5      1.77700E-04
  1097.5      1.82240E-04
  1102.5      1.82260E-04
  1107.5      1.80750E-04
  1112.5      1.79160E-04
  1117.5      1.77770E-04
  1122.5      1.76150E-04
  1127.5      1.74570E-04
  1132.5      1.73050E-04
  1137.5      1.71680E-04
  1142.5      1.70260E-04
  1147.5      1.68850E-04
  1152.5      1.67450E-04
  1157.5      1.65880E-04
  1162.5      1.62340E-04
  1167.5      1.61570E-04
  1172.5      1.61910E-04
  1177.5      1.60620E-04
  1182.5      1.59030E-04
  1187.5      1.57910E-04
  1192.5      1.56630E-04
  1197.5      1.54990E-04
  1202.5      1.54190E-04
  1207.5      1.52850E-04
  1212.5      1.51550E-04
  1217.5      1.50500E-04
  1222.5      1.49260E-04
  1227.5      1.48140E-04
  1232.5      1.46920E-04
  1237.5      1.45810E-04
  1242.5      1.44670E-04
  1247.5      1.43550E-04
  1252.5      1.42400E-04
  1257.5      1.41300E-04
  1262.5      1.40230E-04
  1267.5      1.39160E-04
  1272.5      1.38070E-04
  1277.5      1.36330E-04
  1282.5      1.29580E-04
  1287.5      1.34720E-04
  1292.5      1.33960E-04
  1297.5      1.32900E-04
  1302.5      1.31940E-04
  1307.5      1.30980E-04
  1312.5      1.30010E-04
  1317.5      1.29020E-04
  1322.5      1.28090E-04
  1327.5      1.27150E-04
  1332.5      1.26220E-04
  1337.5      1.25290E-04
  1342.5      1.24370E-04
  1347.5      1.23480E-04
  1352.5      1.22590E-04
  1357.5      1.21710E-04
  1362.5      1.20840E-04
  1367.5      1.19980E-04
  1372.5      1.19090E-04
  1377.5      1.18270E-04
  1382.5      1.17440E-04
  1387.5      1.16610E-04
  1392.5      1.15790E-04
  1397.5      1.14990E-04
