 Castelli and Kurucz 2004-2012 Atmosphere
 T     36000.     G    4.50000 [0.5a] VTURB=2  L/H=1.25 NOVER NEW ODF          
 Wavelength  Eddington Hnu
   (nm)    (ergs/s/cm2/Hz/sr)
  9.0900      4.26710E-29
  9.3500      2.00250E-28
  9.6100      8.56860E-28
  9.7700      2.06510E-27
  9.9600      5.58910E-27
  10.200      1.87200E-26
  10.380      4.48670E-26
  10.560      1.04620E-25
  10.770      2.71900E-25
  11.040      8.84290E-25
  11.400      3.93730E-24
  11.780      1.74230E-23
  12.130      6.37740E-23
  12.480      2.18180E-22
  12.710      4.73660E-22
  12.840      7.25760E-22
  13.050      1.42030E-21
  13.240      2.56730E-21
  13.390      4.05850E-21
  13.660      8.99660E-21
  13.980      2.24800E-20
  14.330      5.82170E-20
  14.720      1.57800E-19
  15.100      4.11230E-19
  15.520      1.10570E-18
  15.880      2.48340E-18
  16.200      4.91400E-18
  16.600      1.13350E-17
  17.030      2.62520E-17
  17.340      4.75410E-17
  17.680      9.06620E-17
  18.020      1.64750E-16
  18.170      2.19550E-16
  18.610      4.57090E-16
  19.100      9.98660E-16
  19.390      1.55500E-15
  19.840      3.06320E-15
  20.180      4.92920E-15
  20.500      7.61890E-15
  21.050      1.56610E-14
  21.620      3.12930E-14
  21.980      4.88190E-14
  22.300      7.06850E-14
  22.680      1.23200E-13
  23.000      3.16760E-11
  23.400      6.78190E-11
  24.000      1.02850E-10
  24.650      1.63590E-10
  25.240      2.86760E-10
  25.680      4.23550E-10
  26.000      6.62140E-10
  26.400      1.26320E-09
  26.850      2.07220E-09
  27.350      2.74950E-09
  27.850      3.10170E-09
  28.400      6.72840E-09
  29.000      9.65350E-09
  29.600      1.20610E-08
  30.100      2.57920E-08
  30.800      5.32080E-08
  31.800      1.12410E-07
  32.800      1.64990E-07
  33.800      3.17760E-07
  34.800      4.95850E-07
  35.700      1.01350E-06
  36.600      2.57660E-06
  37.500      3.00340E-06
  38.500      4.65830E-06
  39.500      1.36210E-05
  40.500      2.35030E-05
  41.400      2.92010E-05
  42.200      3.32130E-05
  43.000      3.25190E-05
  44.100      4.02830E-05
  45.100      4.37930E-05
  46.000      3.63650E-05
  47.000      4.47290E-05
  48.000      5.59170E-05
  49.000      4.03300E-05
  50.000      6.26540E-05
  50.600      4.91720E-05
  51.200      2.45070E-04
  52.000      2.32510E-04
  53.000      2.21550E-04
  54.000      2.10970E-04
  55.000      1.96440E-04
  56.000      2.99900E-04
  57.000      4.07850E-04
  58.000      3.98700E-04
  59.000      4.15480E-04
  60.000      2.43200E-04
  61.000      3.26510E-04
  62.000      4.83230E-04
  63.000      4.72210E-04
  64.000      5.27770E-04
  65.000      4.81570E-04
  65.800      2.97910E-04
  66.500      4.77930E-04
  67.500      6.20390E-04
  68.500      4.37060E-04
  69.500      6.30910E-04
  70.500      3.94090E-04
  71.600      7.26700E-04
  72.600      7.36590E-04
  73.500      7.51330E-04
  74.500      6.32530E-04
  75.500      6.58870E-04
  76.500      6.72530E-04
  77.500      7.55800E-04
  78.500      6.82670E-04
  79.500      7.94940E-04
  80.500      7.49610E-04
  81.500      7.63210E-04
  82.500      8.48310E-04
  83.500      5.97540E-04
  84.500      8.25770E-04
  85.500      8.04550E-04
  86.500      8.76070E-04
  87.500      8.94180E-04
  88.500      9.11330E-04
  89.500      9.21750E-04
  90.500      8.99100E-04
  91.500      8.13350E-04
  92.500      1.62250E-03
  93.500      2.42080E-03
  94.500      2.90310E-03
  95.500      3.31330E-03
  96.500      3.71590E-03
  97.500      1.94950E-03
  98.500      3.08420E-03
  99.500      2.72130E-03
  100.50      2.78270E-03
  101.50      3.08480E-03
  102.50      2.74260E-03
  103.50      3.22400E-03
  104.50      3.69810E-03
  105.50      3.55530E-03
  106.50      3.09680E-03
  107.50      3.28720E-03
  108.50      3.04410E-03
  109.50      3.31770E-03
  110.50      3.21640E-03
  111.50      3.21790E-03
  112.50      2.58580E-03
  113.50      3.16180E-03
  114.50      3.18340E-03
  115.50      2.89910E-03
  116.50      2.89710E-03
  117.50      2.07490E-03
  118.50      2.75950E-03
  119.50      2.63810E-03
  120.50      2.61430E-03
  121.50      2.22300E-03
  122.50      2.59170E-03
  123.50      2.78080E-03
  124.50      2.71930E-03
  125.50      2.76180E-03
  126.50      2.87680E-03
  127.50      3.05310E-03
  128.50      3.09510E-03
  129.50      2.97460E-03
  130.50      2.96700E-03
  131.50      3.16380E-03
  132.50      3.11950E-03
  133.50      3.06080E-03
  134.50      3.06050E-03
  135.50      3.02720E-03
  136.50      2.94230E-03
  137.50      2.85220E-03
  138.50      2.81240E-03
  139.50      2.22630E-03
  140.50      2.28040E-03
  141.50      2.87800E-03
  142.50      2.58110E-03
  143.50      2.82270E-03
  144.20      2.74480E-03
  144.70      2.76560E-03
  145.50      2.64670E-03
  146.50      2.62530E-03
  147.50      2.70080E-03
  148.50      2.74160E-03
  149.50      2.67840E-03
  150.50      2.64150E-03
  151.20      2.64890E-03
  151.70      2.67450E-03
  152.50      2.59130E-03
  153.50      2.28490E-03
  154.50      1.81190E-03
  155.50      1.88550E-03
  156.50      2.22900E-03
  157.50      2.37030E-03
  158.50      2.37140E-03
  159.50      2.44050E-03
  160.50      2.32460E-03
  161.50      2.23920E-03
  162.50      2.32730E-03
  163.50      2.36560E-03
  164.50      2.39230E-03
  165.50      2.40820E-03
  166.50      2.35680E-03
  167.20      2.19700E-03
  167.70      2.62900E-03
  168.50      2.52680E-03
  169.50      2.47540E-03
  170.50      2.46530E-03
  171.50      2.35160E-03
  172.50      2.28360E-03
  173.50      2.40010E-03
  174.50      2.41920E-03
  175.50      2.39960E-03
  176.50      2.37570E-03
  177.50      2.30820E-03
  178.50      2.38250E-03
  179.50      2.33100E-03
  180.50      2.33560E-03
  181.50      2.31240E-03
  182.50      2.27780E-03
  183.50      2.30230E-03
  184.50      2.25860E-03
  185.50      2.30800E-03
  186.50      2.32800E-03
  187.50      2.26140E-03
  188.50      2.20680E-03
  189.50      2.22640E-03
  190.50      2.27010E-03
  191.50      2.23710E-03
  192.50      2.11320E-03
  193.50      2.26210E-03
  194.50      2.28750E-03
  195.50      2.10390E-03
  196.70      2.21760E-03
  197.60      2.25400E-03
  198.40      2.23030E-03
  199.50      2.19690E-03
  200.50      2.25400E-03
  201.50      2.25320E-03
  202.50      2.25540E-03
  203.50      2.20050E-03
  204.50      2.17860E-03
  205.50      1.67710E-03
  206.50      1.62080E-03
  207.40      1.69790E-03
  207.80      1.71040E-03
  208.50      1.84750E-03
  209.50      2.01880E-03
  210.50      2.09730E-03
  211.50      2.14610E-03
  212.50      2.09910E-03
  213.50      2.11850E-03
  214.50      2.10240E-03
  215.50      2.11030E-03
  216.50      2.00110E-03
  217.50      2.09730E-03
  218.50      2.03060E-03
  219.50      2.11100E-03
  220.50      2.09180E-03
  221.50      2.00100E-03
  222.50      2.06320E-03
  223.50      2.05080E-03
  224.50      2.02960E-03
  225.50      1.96640E-03
  226.50      2.00940E-03
  227.50      2.01640E-03
  228.50      1.93890E-03
  229.50      1.79580E-03
  230.50      1.89380E-03
  231.50      1.90040E-03
  232.50      1.92860E-03
  233.50      1.92100E-03
  234.50      1.89800E-03
  235.50      1.86160E-03
  236.50      1.83700E-03
  237.50      1.79950E-03
  238.50      1.71970E-03
  239.50      1.76580E-03
  240.50      1.78600E-03
  241.50      1.77530E-03
  242.50      1.78720E-03
  243.50      1.77080E-03
  244.50      1.76370E-03
  245.50      1.74770E-03
  246.50      1.74460E-03
  247.50      1.73830E-03
  248.50      1.65660E-03
  249.50      1.13580E-03
  250.50      1.57390E-03
  251.30      1.57610E-03
  251.80      1.60750E-03
  252.50      1.67590E-03
  253.50      1.68770E-03
  254.50      1.66530E-03
  255.50      1.66200E-03
  256.50      1.64610E-03
  257.50      1.64770E-03
  258.50      1.64100E-03
  259.50      1.60430E-03
  260.50      1.62510E-03
  261.50      1.59200E-03
  262.50      1.60430E-03
  263.50      1.60390E-03
  264.50      1.58110E-03
  265.50      1.58390E-03
  266.50      1.55980E-03
  267.50      1.51620E-03
  268.50      1.54460E-03
  269.50      1.52940E-03
  270.50      1.53700E-03
  271.50      1.52160E-03
  272.50      1.51320E-03
  273.50      1.47740E-03
  274.50      1.51120E-03
  275.50      1.49430E-03
  276.50      1.48670E-03
  277.50      1.48720E-03
  278.50      1.45930E-03
  279.50      1.42060E-03
  280.50      1.45040E-03
  281.50      1.45150E-03
  282.50      1.44280E-03
  283.50      1.42980E-03
  284.50      1.43610E-03
  285.50      1.42140E-03
  286.50      1.40200E-03
  287.50      1.39520E-03
  288.50      1.39500E-03
  289.50      1.38440E-03
  291.00      1.36000E-03
  293.00      1.36710E-03
  295.00      1.35030E-03
  297.00      1.33150E-03
  299.00      1.30200E-03
  301.00      1.27520E-03
  303.00      1.25280E-03
  305.00      1.26280E-03
  307.00      1.25180E-03
  309.00      1.23750E-03
  311.00      1.24170E-03
  313.00      1.21960E-03
  315.00      1.22000E-03
  317.00      1.20270E-03
  319.00      1.19800E-03
  321.00      1.16590E-03
  323.00      1.16760E-03
  325.00      1.16500E-03
  327.00      1.13500E-03
  329.00      1.13550E-03
  331.00      1.12040E-03
  333.00      1.10600E-03
  335.00      1.08450E-03
  337.00      1.08070E-03
  339.00      1.08070E-03
  341.00      1.06910E-03
  343.00      1.07000E-03
  345.00      1.04440E-03
  347.00      1.04520E-03
  349.00      1.03860E-03
  351.00      1.03000E-03
  353.00      1.02080E-03
  355.00      1.01020E-03
  357.00      1.00180E-03
  359.00      9.92120E-04
  361.00      9.80860E-04
  363.00      9.72550E-04
  364.00      9.57950E-04
  365.00      8.89120E-04
  367.00      8.84320E-04
  369.00      8.76100E-04
  371.00      8.55950E-04
  373.00      8.63660E-04
  375.00      8.74920E-04
  377.00      8.72750E-04
  379.00      9.09380E-04
  381.00      9.29850E-04
  383.00      8.67790E-04
  385.00      9.38030E-04
  387.00      9.10290E-04
  389.00      8.36790E-04
  391.00      9.37400E-04
  393.00      9.15070E-04
  395.00      8.95050E-04
  397.00      7.97720E-04
  399.00      9.02270E-04
  401.00      8.93270E-04
  403.00      8.69420E-04
  405.00      8.82130E-04
  407.00      8.50550E-04
  409.00      8.12560E-04
  411.00      7.66920E-04
  413.00      8.37150E-04
  415.00      8.34860E-04
  417.00      8.41250E-04
  419.00      8.30570E-04
  421.00      8.16690E-04
  423.00      8.21810E-04
  425.00      8.04560E-04
  427.00      7.97360E-04
  429.00      7.85420E-04
  431.00      7.71520E-04
  433.00      7.41240E-04
  435.00      7.03270E-04
  437.00      7.61100E-04
  439.00      7.51610E-04
  441.00      7.44920E-04
  443.00      7.48780E-04
  445.00      7.40230E-04
  447.00      7.29460E-04
  449.00      7.34170E-04
  451.00      7.19080E-04
  453.00      7.19410E-04
  455.00      7.05490E-04
  457.00      7.13150E-04
  459.00      7.03540E-04
  461.00      6.97630E-04
  463.00      6.87110E-04
  465.00      6.54110E-04
  467.00      6.78480E-04
  469.00      6.66980E-04
  471.00      6.69970E-04
  473.00      6.82100E-04
  475.00      6.76030E-04
  477.00      6.73530E-04
  479.00      6.68240E-04
  481.00      6.61310E-04
  483.00      6.54210E-04
  485.00      6.30520E-04
  487.00      5.82420E-04
  489.00      6.37760E-04
  491.00      6.34510E-04
  493.00      6.25870E-04
  495.00      6.24200E-04
  497.00      6.26450E-04
  499.00      6.22200E-04
  501.00      6.05580E-04
  503.00      6.06960E-04
  505.00      6.04500E-04
  507.00      6.04510E-04
  509.00      5.99780E-04
  511.00      5.95280E-04
  513.00      5.90620E-04
  515.00      5.86730E-04
  517.00      5.81610E-04
  519.00      5.78600E-04
  521.00      5.75040E-04
  523.00      5.71790E-04
  525.00      5.65040E-04
  527.00      5.60210E-04
  529.00      5.60310E-04
  531.00      5.55900E-04
  533.00      5.52390E-04
  535.00      5.49150E-04
  537.00      5.45200E-04
  539.00      5.40820E-04
  541.00      5.28470E-04
  543.00      5.34620E-04
  545.00      5.31050E-04
  547.00      5.27200E-04
  549.00      5.23860E-04
  551.00      5.19530E-04
  553.00      5.16960E-04
  555.00      5.14090E-04
  557.00      5.10090E-04
  559.00      5.04400E-04
  561.00      5.04280E-04
  563.00      5.00980E-04
  565.00      4.97590E-04
  567.00      4.93770E-04
  569.00      4.81680E-04
  571.00      4.64100E-04
  573.00      4.61720E-04
  575.00      4.58140E-04
  577.00      4.56640E-04
  579.00      4.53780E-04
  581.00      4.48910E-04
  583.00      4.47720E-04
  585.00      4.48080E-04
  587.00      4.39450E-04
  589.00      4.45040E-04
  591.00      4.44570E-04
  593.00      4.43890E-04
  595.00      4.43590E-04
  597.00      4.44120E-04
  599.00      4.43420E-04
  601.00      4.42750E-04
  603.00      4.40200E-04
  605.00      4.38600E-04
  607.00      4.36330E-04
  609.00      4.34190E-04
  611.00      4.30800E-04
  613.00      4.28480E-04
  615.00      4.25120E-04
  617.00      4.22320E-04
  619.00      4.21590E-04
  621.00      4.19450E-04
  623.00      4.15690E-04
  625.00      4.13310E-04
  627.00      4.11900E-04
  629.00      4.09430E-04
  631.00      4.04990E-04
  633.00      4.04780E-04
  635.00      4.01840E-04
  637.00      4.00380E-04
  639.00      3.98060E-04
  641.00      3.94120E-04
  643.00      3.93660E-04
  645.00      3.90730E-04
  647.00      3.87820E-04
  649.00      3.85400E-04
  651.00      3.81590E-04
  653.00      3.78610E-04
  655.00      3.72150E-04
  657.00      3.40400E-04
  659.00      3.73560E-04
  661.00      3.73390E-04
  663.00      3.71940E-04
  665.00      3.69510E-04
  667.00      3.63050E-04
  669.00      3.59630E-04
  671.00      3.61990E-04
  673.00      3.59620E-04
  675.00      3.58720E-04
  677.00      3.57590E-04
  679.00      3.55520E-04
  681.00      3.54060E-04
  683.00      3.52000E-04
  685.00      3.49990E-04
  687.00      3.47710E-04
  689.00      3.42490E-04
  691.00      3.42800E-04
  693.00      3.42950E-04
  695.00      3.40990E-04
  697.00      3.39300E-04
  699.00      3.37280E-04
  701.00      3.34680E-04
  703.00      3.32550E-04
  705.00      3.30980E-04
  707.00      3.26050E-04
  709.00      3.28620E-04
  711.00      3.26400E-04
  713.00      3.24840E-04
  715.00      3.23610E-04
  717.00      3.19780E-04
  719.00      3.18990E-04
  721.00      3.18620E-04
  723.00      3.15580E-04
  725.00      3.14820E-04
  727.00      3.13730E-04
  729.00      3.10420E-04
  731.00      3.09910E-04
  733.00      3.08900E-04
  735.00      3.07310E-04
  737.00      3.05510E-04
  739.00      3.04270E-04
  741.00      3.02450E-04
  743.00      3.01250E-04
  745.00      2.99080E-04
  747.00      2.97340E-04
  749.00      2.94830E-04
  751.00      2.94830E-04
  753.00      2.93390E-04
  755.00      2.92130E-04
  757.00      2.90550E-04
  759.00      2.85720E-04
  761.00      2.86770E-04
  763.00      2.86020E-04
  765.00      2.84570E-04
  767.00      2.83570E-04
  769.00      2.80640E-04
  771.00      2.80130E-04
  773.00      2.77480E-04
  775.00      2.77720E-04
  777.00      2.76970E-04
  779.00      2.75420E-04
  781.00      2.74320E-04
  783.00      2.72960E-04
  785.00      2.70610E-04
  787.00      2.69300E-04
  789.00      2.68430E-04
  791.00      2.67760E-04
  793.00      2.66550E-04
  795.00      2.65520E-04
  797.00      2.63580E-04
  799.00      2.62790E-04
  801.00      2.61670E-04
  803.00      2.60080E-04
  805.00      2.59310E-04
  807.00      2.58130E-04
  809.00      2.56810E-04
  811.00      2.54550E-04
  813.00      2.54530E-04
  815.00      2.53170E-04
  817.00      2.51810E-04
  819.00      2.49520E-04
  821.00      2.43050E-04
  823.00      2.40570E-04
  825.00      2.40790E-04
  827.00      2.39030E-04
  829.00      2.38960E-04
  831.00      2.38310E-04
  833.00      2.36230E-04
  835.00      2.34820E-04
  837.00      2.34560E-04
  839.00      2.34290E-04
  841.00      2.33070E-04
  843.00      2.32400E-04
  845.00      2.30920E-04
  847.00      2.30570E-04
  849.00      2.29550E-04
  851.00      2.27550E-04
  853.00      2.27920E-04
  855.00      2.26610E-04
  857.00      2.26680E-04
  859.00      2.24020E-04
  861.00      2.23950E-04
  863.00      2.25320E-04
  865.00      2.22960E-04
  867.00      2.18210E-04
  869.00      2.23060E-04
  871.00      2.23240E-04
  873.00      2.20730E-04
  875.00      2.11890E-04
  877.00      2.17970E-04
  879.00      2.20920E-04
  881.00      2.20950E-04
  883.00      2.19120E-04
  885.00      2.12400E-04
  887.00      2.03880E-04
  889.00      2.15700E-04
  891.00      2.16670E-04
  893.00      2.15880E-04
  895.00      2.14980E-04
  897.00      2.14170E-04
  899.00      2.11090E-04
  901.00      1.96540E-04
  903.00      2.02500E-04
  905.00      2.09920E-04
  907.00      2.08820E-04
  909.00      2.08800E-04
  911.00      2.08640E-04
  913.00      2.07950E-04
  915.00      2.07400E-04
  917.00      2.05670E-04
  919.00      2.04390E-04
  921.00      1.99010E-04
  923.00      1.82840E-04
  925.00      1.96960E-04
  927.00      2.00880E-04
  929.00      2.00610E-04
  931.00      1.99770E-04
  933.00      1.99040E-04
  935.00      1.95590E-04
  937.00      1.97140E-04
  939.00      1.96940E-04
  941.00      1.95560E-04
  943.00      1.95120E-04
  945.00      1.94400E-04
  947.00      1.93270E-04
  949.00      1.92440E-04
  951.00      1.90200E-04
  953.00      1.85140E-04
  955.00      1.70160E-04
  957.00      1.85890E-04
  959.00      1.88620E-04
  961.00      1.87900E-04
  963.00      1.86660E-04
  965.00      1.87190E-04
  967.00      1.86680E-04
  969.00      1.85860E-04
  971.00      1.80250E-04
  973.00      1.83490E-04
  975.00      1.83660E-04
  977.00      1.82480E-04
  979.00      1.82220E-04
  981.00      1.81410E-04
  983.00      1.80630E-04
  985.00      1.79950E-04
  987.00      1.79430E-04
  989.00      1.78270E-04
  991.00      1.77320E-04
  993.00      1.77360E-04
  995.00      1.76740E-04
  997.00      1.75920E-04
  999.00      1.75150E-04
  1002.5      1.68480E-04
  1007.5      1.64830E-04
  1012.5      1.67750E-04
  1017.5      1.69330E-04
  1022.5      1.67560E-04
  1027.5      1.65950E-04
  1032.5      1.64000E-04
  1037.5      1.63090E-04
  1042.5      1.61300E-04
  1047.5      1.60160E-04
  1052.5      1.58610E-04
  1057.5      1.57250E-04
  1062.5      1.55800E-04
  1067.5      1.54310E-04
  1072.5      1.53050E-04
  1077.5      1.51660E-04
  1082.5      1.49020E-04
  1087.5      1.48580E-04
  1092.5      1.38530E-04
  1097.5      1.43780E-04
  1102.5      1.44610E-04
  1107.5      1.43810E-04
  1112.5      1.42560E-04
  1117.5      1.41440E-04
  1122.5      1.40150E-04
  1127.5      1.38940E-04
  1132.5      1.37600E-04
  1137.5      1.36510E-04
  1142.5      1.35430E-04
  1147.5      1.34310E-04
  1152.5      1.33270E-04
  1157.5      1.32000E-04
  1162.5      1.30010E-04
  1167.5      1.29200E-04
  1172.5      1.28910E-04
  1177.5      1.27850E-04
  1182.5      1.26540E-04
  1187.5      1.25680E-04
  1192.5      1.24660E-04
  1197.5      1.22530E-04
  1202.5      1.22770E-04
  1207.5      1.21680E-04
  1212.5      1.20600E-04
  1217.5      1.19830E-04
  1222.5      1.18880E-04
  1227.5      1.17970E-04
  1232.5      1.16960E-04
  1237.5      1.16090E-04
  1242.5      1.15230E-04
  1247.5      1.14300E-04
  1252.5      1.13180E-04
  1257.5      1.12460E-04
  1262.5      1.11650E-04
  1267.5      1.10850E-04
  1272.5      1.09970E-04
  1277.5      1.07690E-04
  1282.5      1.01410E-04
  1287.5      1.07050E-04
  1292.5      1.06720E-04
  1297.5      1.05470E-04
  1302.5      1.05000E-04
  1307.5      1.04370E-04
  1312.5      1.03600E-04
  1317.5      1.02830E-04
  1322.5      1.02080E-04
  1327.5      1.01330E-04
  1332.5      1.00560E-04
  1337.5      9.97890E-05
  1342.5      9.90450E-05
  1347.5      9.83710E-05
  1352.5      9.76110E-05
  1357.5      9.70060E-05
  1362.5      9.62020E-05
  1367.5      9.56300E-05
  1372.5      9.47880E-05
  1377.5      9.42860E-05
  1382.5      9.36320E-05
  1387.5      9.29660E-05
  1392.5      9.22260E-05
  1397.5      9.16740E-05
