 Castelli and Kurucz 2004-2012 Atmosphere
 T     33000.     G    4.50000 [0.5a] VTURB=2  L/H=1.25 NOVER NEW ODF          
 Wavelength  Eddington Hnu
   (nm)    (ergs/s/cm2/Hz/sr)
  9.0900      2.68460E-32
  9.3500      1.51580E-31
  9.6100      7.81820E-31
  9.7700      2.06990E-30
  9.9600      6.31480E-30
  10.200      2.44620E-29
  10.380      6.51250E-29
  10.560      1.68110E-28
  10.770      4.90050E-28
  11.040      1.83600E-27
  11.400      9.77810E-27
  11.780      5.17580E-26
  12.130      2.20930E-25
  12.480      8.75370E-25
  12.710      2.08420E-24
  12.840      3.36030E-24
  13.050      7.12950E-24
  13.240      1.38460E-23
  13.390      2.30860E-23
  13.660      5.64870E-23
  13.980      1.56720E-22
  14.330      4.55700E-22
  14.720      1.41400E-21
  15.100      4.05870E-21
  15.520      1.22820E-20
  15.880      3.03820E-20
  16.200      6.58670E-20
  16.600      1.66890E-19
  17.030      4.28930E-19
  17.340      8.34560E-19
  17.680      1.69930E-18
  18.020      3.32300E-18
  18.170      4.52250E-18
  18.610      1.02710E-17
  19.100      2.46370E-17
  19.390      4.04150E-17
  19.840      8.57810E-17
  20.180      1.46870E-16
  20.500      2.39790E-16
  21.050      5.39930E-16
  21.620      1.18570E-15
  21.980      1.94580E-15
  22.300      2.95750E-15
  22.680      5.44210E-15
  23.000      5.40290E-13
  23.400      1.14190E-12
  24.000      1.98540E-12
  24.650      3.62070E-12
  25.240      6.41290E-12
  25.680      9.50220E-12
  26.000      1.55240E-11
  26.400      2.36170E-11
  26.850      3.72950E-11
  27.350      5.46460E-11
  27.850      7.34360E-11
  28.400      1.80170E-10
  29.000      2.75940E-10
  29.600      3.89080E-10
  30.100      5.81950E-10
  30.800      1.86490E-09
  31.800      3.99330E-09
  32.800      6.22430E-09
  33.800      1.18160E-08
  34.800      1.93990E-08
  35.700      5.05060E-08
  36.600      1.22260E-07
  37.500      1.53740E-07
  38.500      2.49990E-07
  39.500      6.58440E-07
  40.500      8.60290E-07
  41.400      1.49550E-06
  42.200      1.78390E-06
  43.000      2.09110E-06
  44.100      2.67350E-06
  45.100      3.07520E-06
  46.000      3.14970E-06
  47.000      4.05230E-06
  48.000      4.97430E-06
  49.000      5.22570E-06
  50.000      6.90560E-06
  50.600      7.81780E-06
  51.200      6.73820E-05
  52.000      6.44060E-05
  53.000      6.23820E-05
  54.000      6.22900E-05
  55.000      7.24470E-05
  56.000      1.05730E-04
  57.000      1.23360E-04
  58.000      1.16540E-04
  59.000      1.27800E-04
  60.000      8.25940E-05
  61.000      1.23150E-04
  62.000      1.62910E-04
  63.000      1.61010E-04
  64.000      1.60590E-04
  65.000      1.53190E-04
  65.800      1.04310E-04
  66.500      1.54390E-04
  67.500      1.96520E-04
  68.500      1.42740E-04
  69.500      2.17210E-04
  70.500      1.46110E-04
  71.600      2.54070E-04
  72.600      2.50880E-04
  73.500      2.58180E-04
  74.500      2.30960E-04
  75.500      2.42000E-04
  76.500      2.64590E-04
  77.500      2.89010E-04
  78.500      2.96720E-04
  79.500      3.11440E-04
  80.500      2.91690E-04
  81.500      2.93590E-04
  82.500      3.34230E-04
  83.500      2.39320E-04
  84.500      3.27020E-04
  85.500      3.27290E-04
  86.500      3.49430E-04
  87.500      3.58720E-04
  88.500      3.75480E-04
  89.500      3.84520E-04
  90.500      3.75320E-04
  91.500      3.92890E-04
  92.500      1.05100E-03
  93.500      1.68970E-03
  94.500      2.21740E-03
  95.500      2.50380E-03
  96.500      2.87030E-03
  97.500      1.04640E-03
  98.500      2.26120E-03
  99.500      2.05730E-03
  100.50      2.18790E-03
  101.50      2.45200E-03
  102.50      1.99940E-03
  103.50      2.45600E-03
  104.50      3.00510E-03
  105.50      2.85100E-03
  106.50      2.32330E-03
  107.50      2.55580E-03
  108.50      2.39400E-03
  109.50      2.63310E-03
  110.50      2.52870E-03
  111.50      2.51370E-03
  112.50      1.78520E-03
  113.50      2.45740E-03
  114.50      2.42680E-03
  115.50      2.26550E-03
  116.50      2.29050E-03
  117.50      1.42100E-03
  118.50      2.14950E-03
  119.50      2.08770E-03
  120.50      1.97890E-03
  121.50      1.64880E-03
  122.50      2.06100E-03
  123.50      2.26280E-03
  124.50      2.18930E-03
  125.50      2.22250E-03
  126.50      2.33010E-03
  127.50      2.47900E-03
  128.50      2.52620E-03
  129.50      2.27940E-03
  130.50      2.34870E-03
  131.50      2.60430E-03
  132.50      2.53460E-03
  133.50      2.49100E-03
  134.50      2.47830E-03
  135.50      2.49400E-03
  136.50      2.39220E-03
  137.50      2.31960E-03
  138.50      2.22110E-03
  139.50      1.45010E-03
  140.50      1.63200E-03
  141.50      2.24770E-03
  142.50      2.04160E-03
  143.50      2.24730E-03
  144.20      2.23360E-03
  144.70      2.24050E-03
  145.50      2.13340E-03
  146.50      2.07560E-03
  147.50      2.15910E-03
  148.50      2.17580E-03
  149.50      2.12910E-03
  150.50      2.03590E-03
  151.20      2.01020E-03
  151.70      2.05300E-03
  152.50      1.99580E-03
  153.50      1.71370E-03
  154.50      1.42820E-03
  155.50      1.45760E-03
  156.50      1.70960E-03
  157.50      1.83720E-03
  158.50      1.85370E-03
  159.50      1.89820E-03
  160.50      1.84150E-03
  161.50      1.76010E-03
  162.50      1.82700E-03
  163.50      1.88420E-03
  164.50      1.93080E-03
  165.50      1.92030E-03
  166.50      1.90190E-03
  167.20      1.75680E-03
  167.70      2.14250E-03
  168.50      2.04000E-03
  169.50      1.97830E-03
  170.50      1.97730E-03
  171.50      1.88520E-03
  172.50      1.80730E-03
  173.50      1.91020E-03
  174.50      1.92530E-03
  175.50      1.92370E-03
  176.50      1.91150E-03
  177.50      1.83830E-03
  178.50      1.90400E-03
  179.50      1.88290E-03
  180.50      1.89740E-03
  181.50      1.84630E-03
  182.50      1.84260E-03
  183.50      1.85210E-03
  184.50      1.75580E-03
  185.50      1.82720E-03
  186.50      1.85530E-03
  187.50      1.82050E-03
  188.50      1.73120E-03
  189.50      1.70290E-03
  190.50      1.78390E-03
  191.50      1.73590E-03
  192.50      1.63220E-03
  193.50      1.77760E-03
  194.50      1.82420E-03
  195.50      1.63910E-03
  196.70      1.76170E-03
  197.60      1.84060E-03
  198.40      1.76900E-03
  199.50      1.75340E-03
  200.50      1.80560E-03
  201.50      1.81780E-03
  202.50      1.83570E-03
  203.50      1.75540E-03
  204.50      1.75440E-03
  205.50      1.44470E-03
  206.50      1.41010E-03
  207.40      1.47710E-03
  207.80      1.45280E-03
  208.50      1.54060E-03
  209.50      1.61800E-03
  210.50      1.71230E-03
  211.50      1.75240E-03
  212.50      1.72720E-03
  213.50      1.73060E-03
  214.50      1.70780E-03
  215.50      1.73450E-03
  216.50      1.66490E-03
  217.50      1.71710E-03
  218.50      1.67770E-03
  219.50      1.73320E-03
  220.50      1.72170E-03
  221.50      1.66420E-03
  222.50      1.69220E-03
  223.50      1.67900E-03
  224.50      1.67110E-03
  225.50      1.62610E-03
  226.50      1.65620E-03
  227.50      1.65530E-03
  228.50      1.59790E-03
  229.50      1.41330E-03
  230.50      1.56450E-03
  231.50      1.56200E-03
  232.50      1.58250E-03
  233.50      1.57020E-03
  234.50      1.56960E-03
  235.50      1.54250E-03
  236.50      1.52550E-03
  237.50      1.49570E-03
  238.50      1.44560E-03
  239.50      1.46660E-03
  240.50      1.48450E-03
  241.50      1.46790E-03
  242.50      1.47740E-03
  243.50      1.46200E-03
  244.50      1.45980E-03
  245.50      1.45040E-03
  246.50      1.44400E-03
  247.50      1.42960E-03
  248.50      1.35550E-03
  249.50      8.95840E-04
  250.50      1.27410E-03
  251.30      1.30160E-03
  251.80      1.32100E-03
  252.50      1.38860E-03
  253.50      1.39870E-03
  254.50      1.36430E-03
  255.50      1.37130E-03
  256.50      1.35430E-03
  257.50      1.36280E-03
  258.50      1.35880E-03
  259.50      1.33970E-03
  260.50      1.34860E-03
  261.50      1.32370E-03
  262.50      1.32960E-03
  263.50      1.32570E-03
  264.50      1.31180E-03
  265.50      1.30930E-03
  266.50      1.27690E-03
  267.50      1.25270E-03
  268.50      1.28010E-03
  269.50      1.25490E-03
  270.50      1.24970E-03
  271.50      1.24540E-03
  272.50      1.24380E-03
  273.50      1.22550E-03
  274.50      1.24000E-03
  275.50      1.23170E-03
  276.50      1.22160E-03
  277.50      1.23360E-03
  278.50      1.21210E-03
  279.50      1.16830E-03
  280.50      1.19710E-03
  281.50      1.20500E-03
  282.50      1.19810E-03
  283.50      1.17490E-03
  284.50      1.18840E-03
  285.50      1.17270E-03
  286.50      1.16320E-03
  287.50      1.15520E-03
  288.50      1.15170E-03
  289.50      1.14320E-03
  291.00      1.11790E-03
  293.00      1.13190E-03
  295.00      1.11450E-03
  297.00      1.10270E-03
  299.00      1.07820E-03
  301.00      1.04760E-03
  303.00      1.03670E-03
  305.00      1.04650E-03
  307.00      1.04620E-03
  309.00      1.01740E-03
  311.00      1.03180E-03
  313.00      1.00960E-03
  315.00      1.01020E-03
  317.00      9.94010E-04
  319.00      9.91880E-04
  321.00      9.74780E-04
  323.00      9.65340E-04
  325.00      9.66170E-04
  327.00      9.43520E-04
  329.00      9.42620E-04
  331.00      9.30250E-04
  333.00      9.17070E-04
  335.00      9.04450E-04
  337.00      8.97010E-04
  339.00      9.00720E-04
  341.00      8.90670E-04
  343.00      8.90850E-04
  345.00      8.71570E-04
  347.00      8.69310E-04
  349.00      8.61410E-04
  351.00      8.53660E-04
  353.00      8.52080E-04
  355.00      8.41540E-04
  357.00      8.34240E-04
  359.00      8.23160E-04
  361.00      8.17490E-04
  363.00      8.09860E-04
  364.00      8.04050E-04
  365.00      7.72750E-04
  367.00      7.69720E-04
  369.00      7.62480E-04
  371.00      7.37570E-04
  373.00      7.35350E-04
  375.00      7.41390E-04
  377.00      7.29780E-04
  379.00      7.65980E-04
  381.00      7.89100E-04
  383.00      7.20370E-04
  385.00      7.99710E-04
  387.00      7.72570E-04
  389.00      6.96160E-04
  391.00      8.07750E-04
  393.00      7.86510E-04
  395.00      7.66360E-04
  397.00      6.64780E-04
  399.00      7.74800E-04
  401.00      7.70060E-04
  403.00      7.45830E-04
  405.00      7.58610E-04
  407.00      7.23920E-04
  409.00      6.86300E-04
  411.00      6.39880E-04
  413.00      7.17650E-04
  415.00      7.16030E-04
  417.00      7.25400E-04
  419.00      7.18380E-04
  421.00      7.10850E-04
  423.00      7.08060E-04
  425.00      6.88950E-04
  427.00      6.81190E-04
  429.00      6.68810E-04
  431.00      6.53950E-04
  433.00      6.23550E-04
  435.00      5.88720E-04
  437.00      6.46170E-04
  439.00      6.45370E-04
  441.00      6.40260E-04
  443.00      6.44640E-04
  445.00      6.36500E-04
  447.00      6.24400E-04
  449.00      6.32780E-04
  451.00      6.22840E-04
  453.00      6.24980E-04
  455.00      6.17170E-04
  457.00      6.18380E-04
  459.00      6.10570E-04
  461.00      6.00480E-04
  463.00      5.91820E-04
  465.00      5.63880E-04
  467.00      5.85500E-04
  469.00      5.82110E-04
  471.00      5.73510E-04
  473.00      5.88630E-04
  475.00      5.82300E-04
  477.00      5.84710E-04
  479.00      5.79700E-04
  481.00      5.71680E-04
  483.00      5.63980E-04
  485.00      5.38540E-04
  487.00      4.92310E-04
  489.00      5.50930E-04
  491.00      5.48880E-04
  493.00      5.39260E-04
  495.00      5.38960E-04
  497.00      5.43590E-04
  499.00      5.39280E-04
  501.00      5.19620E-04
  503.00      5.24930E-04
  505.00      5.22550E-04
  507.00      5.24460E-04
  509.00      5.18910E-04
  511.00      5.14450E-04
  513.00      5.09750E-04
  515.00      5.07040E-04
  517.00      5.03130E-04
  519.00      5.01110E-04
  521.00      4.98200E-04
  523.00      4.95330E-04
  525.00      4.89840E-04
  527.00      4.85170E-04
  529.00      4.85500E-04
  531.00      4.81490E-04
  533.00      4.78840E-04
  535.00      4.75650E-04
  537.00      4.72450E-04
  539.00      4.68040E-04
  541.00      4.61140E-04
  543.00      4.63390E-04
  545.00      4.59830E-04
  547.00      4.56640E-04
  549.00      4.53730E-04
  551.00      4.50860E-04
  553.00      4.47740E-04
  555.00      4.45740E-04
  557.00      4.42440E-04
  559.00      4.38130E-04
  561.00      4.37120E-04
  563.00      4.34500E-04
  565.00      4.31100E-04
  567.00      4.26890E-04
  569.00      4.17840E-04
  571.00      4.12730E-04
  573.00      4.11330E-04
  575.00      4.07140E-04
  577.00      4.06980E-04
  579.00      4.04030E-04
  581.00      4.00610E-04
  583.00      3.97510E-04
  585.00      3.97340E-04
  587.00      3.86720E-04
  589.00      3.91430E-04
  591.00      3.90710E-04
  593.00      3.89140E-04
  595.00      3.87570E-04
  597.00      3.87770E-04
  599.00      3.84900E-04
  601.00      3.84250E-04
  603.00      3.81540E-04
  605.00      3.79920E-04
  607.00      3.78260E-04
  609.00      3.76260E-04
  611.00      3.73450E-04
  613.00      3.71560E-04
  615.00      3.67470E-04
  617.00      3.65730E-04
  619.00      3.65040E-04
  621.00      3.63370E-04
  623.00      3.60700E-04
  625.00      3.57740E-04
  627.00      3.56620E-04
  629.00      3.54610E-04
  631.00      3.51340E-04
  633.00      3.50790E-04
  635.00      3.47830E-04
  637.00      3.46970E-04
  639.00      3.44940E-04
  641.00      3.42630E-04
  643.00      3.41130E-04
  645.00      3.38820E-04
  647.00      3.35230E-04
  649.00      3.33250E-04
  651.00      3.30210E-04
  653.00      3.28130E-04
  655.00      3.20120E-04
  657.00      2.89180E-04
  659.00      3.22030E-04
  661.00      3.22930E-04
  663.00      3.22110E-04
  665.00      3.19860E-04
  667.00      3.14250E-04
  669.00      3.12300E-04
  671.00      3.13900E-04
  673.00      3.11350E-04
  675.00      3.11180E-04
  677.00      3.10080E-04
  679.00      3.06810E-04
  681.00      3.06650E-04
  683.00      3.04540E-04
  685.00      3.03330E-04
  687.00      3.01360E-04
  689.00      2.98390E-04
  691.00      2.96350E-04
  693.00      2.97280E-04
  695.00      2.95670E-04
  697.00      2.94150E-04
  699.00      2.92390E-04
  701.00      2.90250E-04
  703.00      2.88430E-04
  705.00      2.87100E-04
  707.00      2.81960E-04
  709.00      2.84860E-04
  711.00      2.81850E-04
  713.00      2.80630E-04
  715.00      2.80490E-04
  717.00      2.78500E-04
  719.00      2.77370E-04
  721.00      2.76300E-04
  723.00      2.71880E-04
  725.00      2.72580E-04
  727.00      2.72070E-04
  729.00      2.68740E-04
  731.00      2.69010E-04
  733.00      2.67820E-04
  735.00      2.66450E-04
  737.00      2.65160E-04
  739.00      2.63940E-04
  741.00      2.62500E-04
  743.00      2.61250E-04
  745.00      2.59640E-04
  747.00      2.56750E-04
  749.00      2.55940E-04
  751.00      2.55840E-04
  753.00      2.54290E-04
  755.00      2.53510E-04
  757.00      2.52180E-04
  759.00      2.49780E-04
  761.00      2.48730E-04
  763.00      2.48190E-04
  765.00      2.46870E-04
  767.00      2.46130E-04
  769.00      2.43850E-04
  771.00      2.43220E-04
  773.00      2.40970E-04
  775.00      2.41190E-04
  777.00      2.40190E-04
  779.00      2.39140E-04
  781.00      2.38020E-04
  783.00      2.36910E-04
  785.00      2.35460E-04
  787.00      2.33520E-04
  789.00      2.32460E-04
  791.00      2.32090E-04
  793.00      2.31030E-04
  795.00      2.30280E-04
  797.00      2.28810E-04
  799.00      2.27930E-04
  801.00      2.26910E-04
  803.00      2.25650E-04
  805.00      2.24950E-04
  807.00      2.23870E-04
  809.00      2.22700E-04
  811.00      2.19670E-04
  813.00      2.20750E-04
  815.00      2.19580E-04
  817.00      2.18700E-04
  819.00      2.15700E-04
  821.00      2.13880E-04
  823.00      2.12260E-04
  825.00      2.12550E-04
  827.00      2.09410E-04
  829.00      2.10460E-04
  831.00      2.10150E-04
  833.00      2.08660E-04
  835.00      2.06880E-04
  837.00      2.06600E-04
  839.00      2.06560E-04
  841.00      2.05240E-04
  843.00      2.04790E-04
  845.00      2.02980E-04
  847.00      2.03030E-04
  849.00      2.01810E-04
  851.00      2.00050E-04
  853.00      2.00110E-04
  855.00      1.98690E-04
  857.00      1.99190E-04
  859.00      1.95520E-04
  861.00      1.95780E-04
  863.00      1.97680E-04
  865.00      1.94610E-04
  867.00      1.89400E-04
  869.00      1.95090E-04
  871.00      1.95450E-04
  873.00      1.92250E-04
  875.00      1.82280E-04
  877.00      1.89060E-04
  879.00      1.92840E-04
  881.00      1.93140E-04
  883.00      1.90870E-04
  885.00      1.83270E-04
  887.00      1.74660E-04
  889.00      1.87550E-04
  891.00      1.89040E-04
  893.00      1.88590E-04
  895.00      1.87870E-04
  897.00      1.86880E-04
  899.00      1.83400E-04
  901.00      1.68390E-04
  903.00      1.74650E-04
  905.00      1.82890E-04
  907.00      1.81830E-04
  909.00      1.82100E-04
  911.00      1.82460E-04
  913.00      1.81740E-04
  915.00      1.81210E-04
  917.00      1.79480E-04
  919.00      1.78230E-04
  921.00      1.72260E-04
  923.00      1.56050E-04
  925.00      1.70330E-04
  927.00      1.75020E-04
  929.00      1.75050E-04
  931.00      1.74230E-04
  933.00      1.73540E-04
  935.00      1.72460E-04
  937.00      1.72630E-04
  939.00      1.72090E-04
  941.00      1.70890E-04
  943.00      1.70470E-04
  945.00      1.69680E-04
  947.00      1.68530E-04
  949.00      1.67840E-04
  951.00      1.65540E-04
  953.00      1.60030E-04
  955.00      1.45410E-04
  957.00      1.61220E-04
  959.00      1.64590E-04
  961.00      1.63750E-04
  963.00      1.62630E-04
  965.00      1.63640E-04
  967.00      1.63180E-04
  969.00      1.62420E-04
  971.00      1.57980E-04
  973.00      1.60510E-04
  975.00      1.60610E-04
  977.00      1.59910E-04
  979.00      1.59280E-04
  981.00      1.58380E-04
  983.00      1.58000E-04
  985.00      1.57200E-04
  987.00      1.56760E-04
  989.00      1.55480E-04
  991.00      1.54490E-04
  993.00      1.54990E-04
  995.00      1.54410E-04
  997.00      1.53650E-04
  999.00      1.52870E-04
  1002.5      1.46060E-04
  1007.5      1.42720E-04
  1012.5      1.47300E-04
  1017.5      1.48040E-04
  1022.5      1.46480E-04
  1027.5      1.45200E-04
  1032.5      1.43360E-04
  1037.5      1.42640E-04
  1042.5      1.41300E-04
  1047.5      1.40060E-04
  1052.5      1.38670E-04
  1057.5      1.37520E-04
  1062.5      1.36230E-04
  1067.5      1.34890E-04
  1072.5      1.33850E-04
  1077.5      1.32610E-04
  1082.5      1.30150E-04
  1087.5      1.29800E-04
  1092.5      1.19710E-04
  1097.5      1.25120E-04
  1102.5      1.26160E-04
  1107.5      1.25740E-04
  1112.5      1.24650E-04
  1117.5      1.23690E-04
  1122.5      1.22580E-04
  1127.5      1.21510E-04
  1132.5      1.20190E-04
  1137.5      1.19360E-04
  1142.5      1.18370E-04
  1147.5      1.17430E-04
  1152.5      1.16560E-04
  1157.5      1.15440E-04
  1162.5      1.14180E-04
  1167.5      1.13250E-04
  1172.5      1.12770E-04
  1177.5      1.11820E-04
  1182.5      1.10760E-04
  1187.5      1.09960E-04
  1192.5      1.09080E-04
  1197.5      1.07020E-04
  1202.5      1.07400E-04
  1207.5      1.06490E-04
  1212.5      1.05570E-04
  1217.5      1.04830E-04
  1222.5      1.04010E-04
  1227.5      1.03210E-04
  1232.5      1.02300E-04
  1237.5      1.01540E-04
  1242.5      1.00820E-04
  1247.5      9.99430E-05
  1252.5      9.88740E-05
  1257.5      9.83590E-05
  1262.5      9.76360E-05
  1267.5      9.69910E-05
  1272.5      9.62000E-05
  1277.5      9.39070E-05
  1282.5      8.77860E-05
  1287.5      9.34980E-05
  1292.5      9.33830E-05
  1297.5      9.20790E-05
  1302.5      9.18380E-05
  1307.5      9.13350E-05
  1312.5      9.06700E-05
  1317.5      8.99970E-05
  1322.5      8.93430E-05
  1327.5      8.86910E-05
  1332.5      8.79900E-05
  1337.5      8.72300E-05
  1342.5      8.66300E-05
  1347.5      8.60860E-05
  1352.5      8.53360E-05
  1357.5      8.48760E-05
  1362.5      8.40670E-05
  1367.5      8.36840E-05
  1372.5      8.29190E-05
  1377.5      8.25380E-05
  1382.5      8.19660E-05
  1387.5      8.13770E-05
  1392.5      8.06650E-05
  1397.5      8.02360E-05
