 Castelli and Kurucz 2004-2012 Atmosphere
 T     47000.     G    4.50000 [-2.0] N(He)/Ntot=0.0784 VTURB=2.0  L/H=1.25 ODF
 Wavelength  Eddington Hnu
   (nm)    (ergs/s/cm2/Hz/sr)
  9.0900      2.52480E-19
  9.3500      7.12820E-19
  9.6100      1.90460E-18
  9.7700      3.41080E-18
  9.9600      6.64280E-18
  10.200      1.49220E-17
  10.380      2.67820E-17
  10.560      4.71920E-17
  10.770      8.94170E-17
  11.040      1.96830E-16
  11.400      5.34600E-16
  11.780      1.44790E-15
  12.130      3.45000E-15
  12.480      7.86480E-15
  12.710      1.32230E-14
  12.840      1.76140E-14
  13.050      2.76610E-14
  13.240      4.11700E-14
  13.390      5.59450E-14
  13.660      9.57350E-14
  13.980      1.76750E-13
  14.330      3.35800E-13
  14.720      6.62880E-13
  15.100      1.25310E-12
  15.520      2.44370E-12
  15.880      4.22160E-12
  16.200      6.74890E-12
  16.600      1.18310E-11
  17.030      2.09900E-11
  17.340      3.12390E-11
  17.680      4.76880E-11
  18.020      7.16040E-11
  18.170      8.48700E-11
  18.610      1.40110E-10
  19.100      2.37230E-10
  19.390      3.20610E-10
  19.840      5.01840E-10
  20.180      6.94930E-10
  20.500      9.35680E-10
  21.050      1.52690E-09
  21.620      2.47150E-09
  21.980      3.30810E-09
  22.300      4.24980E-09
  22.680      5.66710E-09
  23.000      1.97640E-07
  23.400      1.78400E-06
  24.000      2.16850E-05
  24.650      1.09410E-04
  25.240      2.12400E-04
  25.680      1.55880E-04
  26.000      3.40310E-04
  26.400      4.44720E-04
  26.850      4.88630E-04
  27.350      5.73220E-04
  27.850      5.94320E-04
  28.400      6.78230E-04
  29.000      7.58340E-04
  29.600      6.84810E-04
  30.100      3.18080E-04
  30.800      4.52780E-04
  31.800      7.16020E-04
  32.800      7.99870E-04
  33.800      8.00400E-04
  34.800      8.35620E-04
  35.700      9.96810E-04
  36.600      1.11820E-03
  37.500      1.17400E-03
  38.500      1.08900E-03
  39.500      1.27730E-03
  40.500      1.40740E-03
  41.400      1.46510E-03
  42.200      1.46520E-03
  43.000      1.50140E-03
  44.100      1.63830E-03
  45.100      1.69910E-03
  46.000      1.69140E-03
  47.000      1.73320E-03
  48.000      1.82040E-03
  49.000      1.79920E-03
  50.000      1.91490E-03
  50.600      1.86250E-03
  51.200      2.03880E-03
  52.000      2.04930E-03
  53.000      2.08960E-03
  54.000      2.01780E-03
  55.000      1.99540E-03
  56.000      2.18560E-03
  57.000      2.24470E-03
  58.000      2.25600E-03
  59.000      2.31500E-03
  60.000      2.30180E-03
  61.000      2.25540E-03
  62.000      2.37150E-03
  63.000      2.36170E-03
  64.000      2.43980E-03
  65.000      2.43610E-03
  65.800      2.40170E-03
  66.500      2.49120E-03
  67.500      2.52480E-03
  68.500      2.47570E-03
  69.500      2.57280E-03
  70.500      2.50770E-03
  71.600      2.60890E-03
  72.600      2.64440E-03
  73.500      2.66050E-03
  74.500      2.66000E-03
  75.500      2.66260E-03
  76.500      2.63050E-03
  77.500      2.69830E-03
  78.500      2.68710E-03
  79.500      2.71360E-03
  80.500      2.74700E-03
  81.500      2.76200E-03
  82.500      2.78300E-03
  83.500      2.71710E-03
  84.500      2.79820E-03
  85.500      2.78600E-03
  86.500      2.82490E-03
  87.500      2.84260E-03
  88.500      2.84320E-03
  89.500      2.84810E-03
  90.500      2.82930E-03
  91.500      2.24110E-03
  92.500      3.67480E-03
  93.500      4.55040E-03
  94.500      5.29430E-03
  95.500      5.65630E-03
  96.500      6.13040E-03
  97.500      5.25770E-03
  98.500      6.02440E-03
  99.500      5.72820E-03
  100.50      5.99550E-03
  101.50      5.95570E-03
  102.50      5.19540E-03
  103.50      5.91890E-03
  104.50      5.92860E-03
  105.50      5.89640E-03
  106.50      5.80840E-03
  107.50      5.80490E-03
  108.50      5.57750E-03
  109.50      5.74480E-03
  110.50      5.68460E-03
  111.50      5.63760E-03
  112.50      5.56600E-03
  113.50      5.59790E-03
  114.50      5.56130E-03
  115.50      5.49890E-03
  116.50      5.43950E-03
  117.50      5.25130E-03
  118.50      5.39360E-03
  119.50      5.33330E-03
  120.50      5.30810E-03
  121.50      4.60790E-03
  122.50      5.23010E-03
  123.50      5.14770E-03
  124.50      5.11140E-03
  125.50      5.13490E-03
  126.50      5.09880E-03
  127.50      5.06210E-03
  128.50      5.02430E-03
  129.50      4.99080E-03
  130.50      4.94510E-03
  131.50      4.91160E-03
  132.50      4.86630E-03
  133.50      4.84120E-03
  134.50      4.81220E-03
  135.50      4.75900E-03
  136.50      4.70290E-03
  137.50      4.63410E-03
  138.50      4.64210E-03
  139.50      4.58720E-03
  140.50      4.51790E-03
  141.50      4.55510E-03
  142.50      4.51690E-03
  143.50      4.49530E-03
  144.20      4.44330E-03
  144.70      4.43510E-03
  145.50      4.40460E-03
  146.50      4.37630E-03
  147.50      4.36000E-03
  148.50      4.34580E-03
  149.50      4.30970E-03
  150.50      4.28340E-03
  151.20      4.26560E-03
  151.70      4.24190E-03
  152.50      4.22430E-03
  153.50      4.18290E-03
  154.50      4.06030E-03
  155.50      4.04150E-03
  156.50      4.09080E-03
  157.50      4.06980E-03
  158.50      4.03460E-03
  159.50      4.00930E-03
  160.50      3.97210E-03
  161.50      3.94600E-03
  162.50      3.90800E-03
  163.50      3.82880E-03
  164.50      3.66890E-03
  165.50      3.84120E-03
  166.50      3.81800E-03
  167.20      3.78580E-03
  167.70      3.78730E-03
  168.50      3.76650E-03
  169.50      3.74150E-03
  170.50      3.71280E-03
  171.50      3.65230E-03
  172.50      3.65060E-03
  173.50      3.63920E-03
  174.50      3.61240E-03
  175.50      3.58610E-03
  176.50      3.56340E-03
  177.50      3.53900E-03
  178.50      3.51520E-03
  179.50      3.48990E-03
  180.50      3.46620E-03
  181.50      3.44250E-03
  182.50      3.41890E-03
  183.50      3.39580E-03
  184.50      3.37260E-03
  185.50      3.34900E-03
  186.50      3.32640E-03
  187.50      3.30380E-03
  188.50      3.28130E-03
  189.50      3.26030E-03
  190.50      3.23840E-03
  191.50      3.21650E-03
  192.50      3.19210E-03
  193.50      3.17380E-03
  194.50      3.15250E-03
  195.50      3.13140E-03
  196.70      3.10660E-03
  197.60      3.08770E-03
  198.40      3.07180E-03
  199.50      3.04930E-03
  200.50      3.02960E-03
  201.50      3.00970E-03
  202.50      2.99000E-03
  203.50      2.97050E-03
  204.50      2.94950E-03
  205.50      2.31980E-03
  206.50      2.25660E-03
  207.40      2.31000E-03
  207.80      2.36560E-03
  208.50      2.52830E-03
  209.50      2.78330E-03
  210.50      2.83730E-03
  211.50      2.82800E-03
  212.50      2.81130E-03
  213.50      2.78830E-03
  214.50      2.77550E-03
  215.50      2.80080E-03
  216.50      2.72310E-03
  217.50      2.78290E-03
  218.50      2.68970E-03
  219.50      2.74700E-03
  220.50      2.73280E-03
  221.50      2.63790E-03
  222.50      2.69850E-03
  223.50      2.68220E-03
  224.50      2.66370E-03
  225.50      2.57560E-03
  226.50      2.63230E-03
  227.50      2.61620E-03
  228.50      2.59960E-03
  229.50      2.57300E-03
  230.50      2.49960E-03
  231.50      2.55040E-03
  232.50      2.53660E-03
  233.50      2.52110E-03
  234.50      2.50570E-03
  235.50      2.49050E-03
  236.50      2.47540E-03
  237.50      2.46030E-03
  238.50      2.38180E-03
  239.50      2.42940E-03
  240.50      2.41550E-03
  241.50      2.40130E-03
  242.50      2.38760E-03
  243.50      2.37330E-03
  244.50      2.35920E-03
  245.50      2.34450E-03
  246.50      2.33140E-03
  247.50      2.31780E-03
  248.50      2.30400E-03
  249.50      2.26220E-03
  250.50      2.27060E-03
  251.30      2.13870E-03
  251.80      2.25610E-03
  252.50      2.24820E-03
  253.50      2.23780E-03
  254.50      2.22490E-03
  255.50      2.21200E-03
  256.50      2.19930E-03
  257.50      2.18670E-03
  258.50      2.17410E-03
  259.50      2.16070E-03
  260.50      2.14960E-03
  261.50      2.13700E-03
  262.50      2.12530E-03
  263.50      2.11330E-03
  264.50      2.10140E-03
  265.50      2.08950E-03
  266.50      2.07780E-03
  267.50      2.06560E-03
  268.50      2.05460E-03
  269.50      2.04280E-03
  270.50      2.03180E-03
  271.50      2.02060E-03
  272.50      2.00890E-03
  273.50      1.94780E-03
  274.50      1.98730E-03
  275.50      1.97640E-03
  276.50      1.96530E-03
  277.50      1.95480E-03
  278.50      1.94420E-03
  279.50      1.93350E-03
  280.50      1.92320E-03
  281.50      1.91280E-03
  282.50      1.90200E-03
  283.50      1.89210E-03
  284.50      1.88210E-03
  285.50      1.87200E-03
  286.50      1.86200E-03
  287.50      1.85210E-03
  288.50      1.84220E-03
  289.50      1.83250E-03
  291.00      1.81800E-03
  293.00      1.79890E-03
  295.00      1.77980E-03
  297.00      1.76150E-03
  299.00      1.74300E-03
  301.00      1.72530E-03
  303.00      1.70730E-03
  305.00      1.68990E-03
  307.00      1.67260E-03
  309.00      1.65620E-03
  311.00      1.63950E-03
  313.00      1.62310E-03
  315.00      1.60700E-03
  317.00      1.59100E-03
  319.00      1.57450E-03
  321.00      1.53820E-03
  323.00      1.54470E-03
  325.00      1.52970E-03
  327.00      1.51420E-03
  329.00      1.50020E-03
  331.00      1.48580E-03
  333.00      1.47160E-03
  335.00      1.45740E-03
  337.00      1.44380E-03
  339.00      1.43010E-03
  341.00      1.41660E-03
  343.00      1.40360E-03
  345.00      1.39030E-03
  347.00      1.37770E-03
  349.00      1.36490E-03
  351.00      1.35250E-03
  353.00      1.34000E-03
  355.00      1.32770E-03
  357.00      1.31590E-03
  359.00      1.30370E-03
  361.00      1.29210E-03
  363.00      1.28030E-03
  364.00      1.25090E-03
  365.00      1.15080E-03
  367.00      1.14210E-03
  369.00      1.13610E-03
  371.00      1.13780E-03
  373.00      1.14460E-03
  375.00      1.16170E-03
  377.00      1.17420E-03
  379.00      1.18640E-03
  381.00      1.19670E-03
  383.00      1.15480E-03
  385.00      1.18890E-03
  387.00      1.19100E-03
  389.00      1.11700E-03
  391.00      1.17400E-03
  393.00      1.15700E-03
  395.00      1.15620E-03
  397.00      1.07860E-03
  399.00      1.13600E-03
  401.00      1.13030E-03
  403.00      1.10390E-03
  405.00      1.11230E-03
  407.00      1.10310E-03
  409.00      1.07670E-03
  411.00      1.02860E-03
  413.00      1.07490E-03
  415.00      1.06690E-03
  417.00      1.05870E-03
  419.00      1.04640E-03
  421.00      1.02880E-03
  423.00      1.03320E-03
  425.00      1.02490E-03
  427.00      1.01680E-03
  429.00      1.00870E-03
  431.00      1.00030E-03
  433.00      9.71040E-04
  435.00      9.40850E-04
  437.00      9.76530E-04
  439.00      9.68810E-04
  441.00      9.62040E-04
  443.00      9.54550E-04
  445.00      9.47230E-04
  447.00      9.36690E-04
  449.00      9.32750E-04
  451.00      9.25620E-04
  453.00      9.17540E-04
  455.00      8.98350E-04
  457.00      9.04740E-04
  459.00      8.97940E-04
  461.00      8.91200E-04
  463.00      8.84480E-04
  465.00      8.77630E-04
  467.00      8.70760E-04
  469.00      8.39590E-04
  471.00      8.58120E-04
  473.00      8.52360E-04
  475.00      8.46130E-04
  477.00      8.39970E-04
  479.00      8.33870E-04
  481.00      8.27840E-04
  483.00      8.21710E-04
  485.00      8.03120E-04
  487.00      7.69740E-04
  489.00      8.03540E-04
  491.00      7.98650E-04
  493.00      7.91800E-04
  495.00      7.87410E-04
  497.00      7.81870E-04
  499.00      7.76400E-04
  501.00      7.70400E-04
  503.00      7.65610E-04
  505.00      7.60200E-04
  507.00      7.55040E-04
  509.00      7.49840E-04
  511.00      7.44700E-04
  513.00      7.39600E-04
  515.00      7.34550E-04
  517.00      7.29560E-04
  519.00      7.24620E-04
  521.00      7.19720E-04
  523.00      7.14880E-04
  525.00      7.10080E-04
  527.00      7.05330E-04
  529.00      7.00630E-04
  531.00      6.95980E-04
  533.00      6.91370E-04
  535.00      6.86810E-04
  537.00      6.82290E-04
  539.00      6.77810E-04
  541.00      6.62780E-04
  543.00      6.68970E-04
  545.00      6.64640E-04
  547.00      6.60340E-04
  549.00      6.56080E-04
  551.00      6.51850E-04
  553.00      6.47670E-04
  555.00      6.43530E-04
  557.00      6.39420E-04
  559.00      6.35320E-04
  561.00      6.31340E-04
  563.00      6.27350E-04
  565.00      6.23400E-04
  567.00      6.19490E-04
  569.00      6.08840E-04
  571.00      5.75670E-04
  573.00      5.72330E-04
  575.00      5.69030E-04
  577.00      5.65860E-04
  579.00      5.62990E-04
  581.00      5.60420E-04
  583.00      5.58760E-04
  585.00      5.57500E-04
  587.00      5.54760E-04
  589.00      5.55830E-04
  591.00      5.55520E-04
  593.00      5.55640E-04
  595.00      5.56260E-04
  597.00      5.56870E-04
  599.00      5.58040E-04
  601.00      5.56260E-04
  603.00      5.54130E-04
  605.00      5.52420E-04
  607.00      5.48560E-04
  609.00      5.46070E-04
  611.00      5.42360E-04
  613.00      5.39210E-04
  615.00      5.36840E-04
  617.00      5.31830E-04
  619.00      5.30520E-04
  621.00      5.27540E-04
  623.00      5.22330E-04
  625.00      5.21060E-04
  627.00      5.18480E-04
  629.00      5.15500E-04
  631.00      5.09480E-04
  633.00      5.09430E-04
  635.00      5.06740E-04
  637.00      5.03870E-04
  639.00      5.00830E-04
  641.00      4.94370E-04
  643.00      4.95390E-04
  645.00      4.92630E-04
  647.00      4.89880E-04
  649.00      4.87140E-04
  651.00      4.84240E-04
  653.00      4.76810E-04
  655.00      4.74570E-04
  657.00      4.51030E-04
  659.00      4.73320E-04
  661.00      4.71230E-04
  663.00      4.68660E-04
  665.00      4.66110E-04
  667.00      4.62510E-04
  669.00      4.55450E-04
  671.00      4.58550E-04
  673.00      4.56090E-04
  675.00      4.53630E-04
  677.00      4.51200E-04
  679.00      4.48780E-04
  681.00      4.46390E-04
  683.00      4.44010E-04
  685.00      4.41650E-04
  687.00      4.39300E-04
  689.00      4.31500E-04
  691.00      4.34510E-04
  693.00      4.32400E-04
  695.00      4.30140E-04
  697.00      4.27890E-04
  699.00      4.25660E-04
  701.00      4.23440E-04
  703.00      4.21240E-04
  705.00      4.19060E-04
  707.00      4.16210E-04
  709.00      4.14760E-04
  711.00      4.12630E-04
  713.00      4.10510E-04
  715.00      4.08410E-04
  717.00      4.02750E-04
  719.00      4.02280E-04
  721.00      4.02220E-04
  723.00      4.00180E-04
  725.00      3.98170E-04
  727.00      3.96160E-04
  729.00      3.93990E-04
  731.00      3.92200E-04
  733.00      3.90240E-04
  735.00      3.88300E-04
  737.00      3.86370E-04
  739.00      3.84450E-04
  741.00      3.82550E-04
  743.00      3.80660E-04
  745.00      3.78790E-04
  747.00      3.76930E-04
  749.00      3.75080E-04
  751.00      3.73250E-04
  753.00      3.71430E-04
  755.00      3.69630E-04
  757.00      3.67830E-04
  759.00      3.61040E-04
  761.00      3.64010E-04
  763.00      3.62530E-04
  765.00      3.60790E-04
  767.00      3.59060E-04
  769.00      3.57340E-04
  771.00      3.55640E-04
  773.00      3.53940E-04
  775.00      3.52260E-04
  777.00      3.50600E-04
  779.00      3.48940E-04
  781.00      3.47290E-04
  783.00      3.45660E-04
  785.00      3.44040E-04
  787.00      3.42430E-04
  789.00      3.40830E-04
  791.00      3.39250E-04
  793.00      3.37670E-04
  795.00      3.36100E-04
  797.00      3.34550E-04
  799.00      3.33000E-04
  801.00      3.31470E-04
  803.00      3.29950E-04
  805.00      3.28430E-04
  807.00      3.26930E-04
  809.00      3.25440E-04
  811.00      3.23960E-04
  813.00      3.22480E-04
  815.00      3.21020E-04
  817.00      3.19570E-04
  819.00      3.16890E-04
  821.00      3.04920E-04
  823.00      3.02030E-04
  825.00      3.02000E-04
  827.00      3.01000E-04
  829.00      2.99730E-04
  831.00      2.98460E-04
  833.00      2.97200E-04
  835.00      2.95960E-04
  837.00      2.94770E-04
  839.00      2.93610E-04
  841.00      2.92540E-04
  843.00      2.91480E-04
  845.00      2.90420E-04
  847.00      2.89460E-04
  849.00      2.88600E-04
  851.00      2.87640E-04
  853.00      2.86890E-04
  855.00      2.85780E-04
  857.00      2.85350E-04
  859.00      2.84130E-04
  861.00      2.83320E-04
  863.00      2.83220E-04
  865.00      2.82160E-04
  867.00      2.80030E-04
  869.00      2.81160E-04
  871.00      2.80860E-04
  873.00      2.79810E-04
  875.00      2.75530E-04
  877.00      2.77870E-04
  879.00      2.78520E-04
  881.00      2.78060E-04
  883.00      2.77220E-04
  885.00      2.73360E-04
  887.00      2.68080E-04
  889.00      2.73260E-04
  891.00      2.73210E-04
  893.00      2.72200E-04
  895.00      2.71650E-04
  897.00      2.70250E-04
  899.00      2.67880E-04
  901.00      2.59510E-04
  903.00      2.62010E-04
  905.00      2.65130E-04
  907.00      2.64810E-04
  909.00      2.63880E-04
  911.00      2.62190E-04
  913.00      2.61740E-04
  915.00      2.60670E-04
  917.00      2.59580E-04
  919.00      2.58150E-04
  921.00      2.55030E-04
  923.00      2.45040E-04
  925.00      2.52420E-04
  927.00      2.53890E-04
  929.00      2.53360E-04
  931.00      2.52320E-04
  933.00      2.51130E-04
  935.00      2.45650E-04
  937.00      2.48180E-04
  939.00      2.48280E-04
  941.00      2.47330E-04
  943.00      2.46350E-04
  945.00      2.45370E-04
  947.00      2.44360E-04
  949.00      2.43430E-04
  951.00      2.41880E-04
  953.00      2.38420E-04
  955.00      2.28830E-04
  957.00      2.37480E-04
  959.00      2.38390E-04
  961.00      2.37750E-04
  963.00      2.36810E-04
  965.00      2.35910E-04
  967.00      2.34990E-04
  969.00      2.34080E-04
  971.00      2.33170E-04
  973.00      2.32270E-04
  975.00      2.31090E-04
  977.00      2.29040E-04
  979.00      2.29600E-04
  981.00      2.28730E-04
  983.00      2.27850E-04
  985.00      2.26980E-04
  987.00      2.26120E-04
  989.00      2.25260E-04
  991.00      2.24400E-04
  993.00      2.23550E-04
  995.00      2.22700E-04
  997.00      2.21860E-04
  999.00      2.21030E-04
  1002.5      2.16890E-04
  1007.5      2.13440E-04
  1012.5      2.12540E-04
  1017.5      2.13510E-04
  1022.5      2.11550E-04
  1027.5      2.09610E-04
  1032.5      2.07650E-04
  1037.5      2.05810E-04
  1042.5      2.02970E-04
  1047.5      2.02120E-04
  1052.5      2.00310E-04
  1057.5      1.98520E-04
  1062.5      1.96760E-04
  1067.5      1.95020E-04
  1072.5      1.93300E-04
  1077.5      1.91610E-04
  1082.5      1.89700E-04
  1087.5      1.88250E-04
  1092.5      1.81620E-04
  1097.5      1.83970E-04
  1102.5      1.83460E-04
  1107.5      1.81900E-04
  1112.5      1.80350E-04
  1117.5      1.78920E-04
  1122.5      1.77410E-04
  1127.5      1.75920E-04
  1132.5      1.74450E-04
  1137.5      1.72990E-04
  1142.5      1.71560E-04
  1147.5      1.70140E-04
  1152.5      1.68740E-04
  1157.5      1.67360E-04
  1162.5      1.64510E-04
  1167.5      1.63580E-04
  1172.5      1.63300E-04
  1177.5      1.61990E-04
  1182.5      1.60690E-04
  1187.5      1.59400E-04
  1192.5      1.58130E-04
  1197.5      1.56800E-04
  1202.5      1.55630E-04
  1207.5      1.54410E-04
  1212.5      1.53190E-04
  1217.5      1.52000E-04
  1222.5      1.50810E-04
  1227.5      1.49640E-04
  1232.5      1.48480E-04
  1237.5      1.47340E-04
  1242.5      1.46210E-04
  1247.5      1.45090E-04
  1252.5      1.43980E-04
  1257.5      1.42900E-04
  1262.5      1.41820E-04
  1267.5      1.40750E-04
  1272.5      1.39690E-04
  1277.5      1.38250E-04
  1282.5      1.33450E-04
  1287.5      1.36450E-04
  1292.5      1.35590E-04
  1297.5      1.34570E-04
  1302.5      1.33600E-04
  1307.5      1.32630E-04
  1312.5      1.31660E-04
  1317.5      1.30700E-04
  1322.5      1.29760E-04
  1327.5      1.28820E-04
  1332.5      1.27900E-04
  1337.5      1.26980E-04
  1342.5      1.26080E-04
  1347.5      1.25180E-04
  1352.5      1.24300E-04
  1357.5      1.23420E-04
  1362.5      1.22550E-04
  1367.5      1.21690E-04
  1372.5      1.20840E-04
  1377.5      1.20000E-04
  1382.5      1.19170E-04
  1387.5      1.18350E-04
  1392.5      1.17530E-04
  1397.5      1.16730E-04
