 Castelli and Kurucz 2004-2012 Atmosphere
 T     44000.     G    5.00000 [-2.0] N(He)/Ntot=0.0784 VTURB=2.0  L/H=1.25 ODF
 Wavelength  Eddington Hnu
   (nm)    (ergs/s/cm2/Hz/sr)
  9.0900      8.01140E-21
  9.3500      2.55090E-20
  9.6100      7.67730E-20
  9.7700      1.47470E-19
  9.9600      3.12380E-19
  10.200      7.78320E-19
  10.380      1.50710E-18
  10.560      2.86050E-18
  10.770      5.89760E-18
  11.040      1.44230E-17
  11.400      4.47950E-17
  11.780      1.38610E-16
  12.130      3.70630E-16
  12.480      9.41870E-16
  12.710      1.69430E-15
  12.840      2.34090E-15
  13.050      3.89620E-15
  13.240      6.09840E-15
  13.390      8.61290E-15
  13.660      1.57540E-14
  13.980      3.13220E-14
  14.330      6.42250E-14
  14.720      1.37490E-13
  15.100      2.78610E-13
  15.520      5.84500E-13
  15.880      1.07010E-12
  16.200      1.79330E-12
  16.600      3.32490E-12
  17.030      6.25030E-12
  17.340      9.66540E-12
  17.680      1.53280E-11
  18.020      2.38810E-11
  18.170      2.88540E-11
  18.610      4.96050E-11
  19.100      8.79420E-11
  19.390      1.21760E-10
  19.840      1.97810E-10
  20.180      2.81340E-10
  20.500      3.87660E-10
  21.050      6.57130E-10
  21.620      1.10300E-09
  21.980      1.50820E-09
  22.300      1.97420E-09
  22.680      2.68950E-09
  23.000      5.77820E-08
  23.400      2.28620E-07
  24.000      9.92290E-07
  24.650      1.38410E-05
  25.240      4.27610E-05
  25.680      2.98940E-05
  26.000      9.98610E-05
  26.400      1.57210E-04
  26.850      2.02680E-04
  27.350      2.54530E-04
  27.850      2.72300E-04
  28.400      3.32610E-04
  29.000      3.75520E-04
  29.600      3.16530E-04
  30.100      9.67760E-05
  30.800      1.94680E-04
  31.800      3.72090E-04
  32.800      4.31640E-04
  33.800      4.34720E-04
  34.800      4.63130E-04
  35.700      5.46010E-04
  36.600      6.06700E-04
  37.500      6.35010E-04
  38.500      6.01380E-04
  39.500      6.91300E-04
  40.500      7.47540E-04
  41.400      7.73060E-04
  42.200      7.69970E-04
  43.000      7.80840E-04
  44.100      8.42700E-04
  45.100      8.67880E-04
  46.000      8.63620E-04
  47.000      8.87300E-04
  48.000      9.27880E-04
  49.000      9.16710E-04
  50.000      9.74180E-04
  50.600      1.04490E-03
  51.200      1.35590E-03
  52.000      1.36690E-03
  53.000      1.39810E-03
  54.000      1.34810E-03
  55.000      1.37370E-03
  56.000      1.49460E-03
  57.000      1.53530E-03
  58.000      1.53320E-03
  59.000      1.58640E-03
  60.000      1.58150E-03
  61.000      1.57110E-03
  62.000      1.65780E-03
  63.000      1.66860E-03
  64.000      1.71770E-03
  65.000      1.72100E-03
  65.800      1.70120E-03
  66.500      1.76100E-03
  67.500      1.80320E-03
  68.500      1.77470E-03
  69.500      1.84500E-03
  70.500      1.80860E-03
  71.600      1.89300E-03
  72.600      1.92030E-03
  73.500      1.93950E-03
  74.500      1.94330E-03
  75.500      1.95730E-03
  76.500      1.95370E-03
  77.500      1.99410E-03
  78.500      2.00120E-03
  79.500      2.02330E-03
  80.500      2.04870E-03
  81.500      2.06880E-03
  82.500      2.09440E-03
  83.500      2.04500E-03
  84.500      2.11670E-03
  85.500      2.11960E-03
  86.500      2.15230E-03
  87.500      2.16890E-03
  88.500      2.17870E-03
  89.500      2.18810E-03
  90.500      2.18090E-03
  91.500      1.73830E-03
  92.500      2.80600E-03
  93.500      3.61940E-03
  94.500      4.64400E-03
  95.500      5.09990E-03
  96.500      5.96040E-03
  97.500      4.66400E-03
  98.500      5.97080E-03
  99.500      5.55140E-03
  100.50      5.96330E-03
  101.50      5.89810E-03
  102.50      4.59040E-03
  103.50      5.81040E-03
  104.50      5.86660E-03
  105.50      5.83210E-03
  106.50      5.72180E-03
  107.50      5.69870E-03
  108.50      5.35250E-03
  109.50      5.64630E-03
  110.50      5.57810E-03
  111.50      5.52530E-03
  112.50      5.42830E-03
  113.50      5.46920E-03
  114.50      5.42710E-03
  115.50      5.34930E-03
  116.50      5.29810E-03
  117.50      5.03170E-03
  118.50      5.22270E-03
  119.50      5.17230E-03
  120.50      5.10760E-03
  121.50      4.07370E-03
  122.50      5.01250E-03
  123.50      4.98720E-03
  124.50      4.94310E-03
  125.50      4.96060E-03
  126.50      4.92470E-03
  127.50      4.88600E-03
  128.50      4.84880E-03
  129.50      4.80660E-03
  130.50      4.76550E-03
  131.50      4.73060E-03
  132.50      4.68640E-03
  133.50      4.65550E-03
  134.50      4.62310E-03
  135.50      4.57640E-03
  136.50      4.52830E-03
  137.50      4.47170E-03
  138.50      4.45900E-03
  139.50      4.39180E-03
  140.50      4.33550E-03
  141.50      4.36180E-03
  142.50      4.31750E-03
  143.50      4.29570E-03
  144.20      4.25590E-03
  144.70      4.24360E-03
  145.50      4.21300E-03
  146.50      4.18430E-03
  147.50      4.15920E-03
  148.50      4.13900E-03
  149.50      4.10320E-03
  150.50      4.07660E-03
  151.20      4.05800E-03
  151.70      4.03630E-03
  152.50      4.01280E-03
  153.50      3.96560E-03
  154.50      3.84030E-03
  155.50      3.83030E-03
  156.50      3.87060E-03
  157.50      3.85290E-03
  158.50      3.82480E-03
  159.50      3.79660E-03
  160.50      3.75180E-03
  161.50      3.72440E-03
  162.50      3.68810E-03
  163.50      3.58530E-03
  164.50      3.42860E-03
  165.50      3.62760E-03
  166.50      3.60510E-03
  167.20      3.57170E-03
  167.70      3.57920E-03
  168.50      3.55700E-03
  169.50      3.53240E-03
  170.50      3.50400E-03
  171.50      3.44440E-03
  172.50      3.44270E-03
  173.50      3.43380E-03
  174.50      3.40690E-03
  175.50      3.37910E-03
  176.50      3.35940E-03
  177.50      3.33630E-03
  178.50      3.31350E-03
  179.50      3.28790E-03
  180.50      3.26570E-03
  181.50      3.24270E-03
  182.50      3.21940E-03
  183.50      3.19810E-03
  184.50      3.17520E-03
  185.50      3.15220E-03
  186.50      3.13000E-03
  187.50      3.10820E-03
  188.50      3.08620E-03
  189.50      3.06710E-03
  190.50      3.04630E-03
  191.50      3.02530E-03
  192.50      2.99890E-03
  193.50      2.98420E-03
  194.50      2.96390E-03
  195.50      2.94310E-03
  196.70      2.91970E-03
  197.60      2.90190E-03
  198.40      2.88640E-03
  199.50      2.86490E-03
  200.50      2.84590E-03
  201.50      2.82690E-03
  202.50      2.80800E-03
  203.50      2.78940E-03
  204.50      2.77040E-03
  205.50      2.13330E-03
  206.50      2.05900E-03
  207.40      2.09110E-03
  207.80      2.13270E-03
  208.50      2.24470E-03
  209.50      2.49000E-03
  210.50      2.64570E-03
  211.50      2.65510E-03
  212.50      2.63950E-03
  213.50      2.61630E-03
  214.50      2.60440E-03
  215.50      2.62730E-03
  216.50      2.54500E-03
  217.50      2.61690E-03
  218.50      2.50950E-03
  219.50      2.58360E-03
  220.50      2.57430E-03
  221.50      2.45550E-03
  222.50      2.54110E-03
  223.50      2.52860E-03
  224.50      2.50750E-03
  225.50      2.39590E-03
  226.50      2.47980E-03
  227.50      2.46510E-03
  228.50      2.44890E-03
  229.50      2.41950E-03
  230.50      2.32540E-03
  231.50      2.39920E-03
  232.50      2.38880E-03
  233.50      2.37400E-03
  234.50      2.35920E-03
  235.50      2.34460E-03
  236.50      2.33020E-03
  237.50      2.31540E-03
  238.50      2.21560E-03
  239.50      2.28380E-03
  240.50      2.27310E-03
  241.50      2.25940E-03
  242.50      2.24610E-03
  243.50      2.23250E-03
  244.50      2.21910E-03
  245.50      2.20520E-03
  246.50      2.19250E-03
  247.50      2.17950E-03
  248.50      2.16640E-03
  249.50      2.12050E-03
  250.50      2.12810E-03
  251.30      1.97570E-03
  251.80      2.11600E-03
  252.50      2.11410E-03
  253.50      2.10320E-03
  254.50      2.09090E-03
  255.50      2.07860E-03
  256.50      2.06660E-03
  257.50      2.05460E-03
  258.50      2.04270E-03
  259.50      2.03010E-03
  260.50      2.01980E-03
  261.50      2.00800E-03
  262.50      1.99670E-03
  263.50      1.98530E-03
  264.50      1.97400E-03
  265.50      1.96280E-03
  266.50      1.95130E-03
  267.50      1.93950E-03
  268.50      1.92960E-03
  269.50      1.91780E-03
  270.50      1.90810E-03
  271.50      1.89740E-03
  272.50      1.88450E-03
  273.50      1.81410E-03
  274.50      1.86590E-03
  275.50      1.85560E-03
  276.50      1.84380E-03
  277.50      1.83520E-03
  278.50      1.82510E-03
  279.50      1.81490E-03
  280.50      1.80520E-03
  281.50      1.79540E-03
  282.50      1.78390E-03
  283.50      1.77520E-03
  284.50      1.76640E-03
  285.50      1.75690E-03
  286.50      1.74740E-03
  287.50      1.73800E-03
  288.50      1.72870E-03
  289.50      1.71950E-03
  291.00      1.70580E-03
  293.00      1.68780E-03
  295.00      1.66850E-03
  297.00      1.65250E-03
  299.00      1.63490E-03
  301.00      1.61830E-03
  303.00      1.60120E-03
  305.00      1.58480E-03
  307.00      1.56890E-03
  309.00      1.55310E-03
  311.00      1.53740E-03
  313.00      1.52200E-03
  315.00      1.50700E-03
  317.00      1.49190E-03
  319.00      1.47390E-03
  321.00      1.43810E-03
  323.00      1.44830E-03
  325.00      1.43410E-03
  327.00      1.41950E-03
  329.00      1.40640E-03
  331.00      1.39300E-03
  333.00      1.37970E-03
  335.00      1.36600E-03
  337.00      1.35360E-03
  339.00      1.34080E-03
  341.00      1.32810E-03
  343.00      1.31630E-03
  345.00      1.30340E-03
  347.00      1.29190E-03
  349.00      1.28000E-03
  351.00      1.26800E-03
  353.00      1.25600E-03
  355.00      1.24430E-03
  357.00      1.23390E-03
  359.00      1.22140E-03
  361.00      1.21110E-03
  363.00      1.19920E-03
  364.00      1.17300E-03
  365.00      1.07870E-03
  367.00      1.07060E-03
  369.00      1.06360E-03
  371.00      1.06090E-03
  373.00      1.06510E-03
  375.00      1.07570E-03
  377.00      1.08400E-03
  379.00      1.10060E-03
  381.00      1.11860E-03
  383.00      1.06930E-03
  385.00      1.11660E-03
  387.00      1.12440E-03
  389.00      1.03000E-03
  391.00      1.10970E-03
  393.00      1.09850E-03
  395.00      1.09390E-03
  397.00      9.92990E-04
  399.00      1.07340E-03
  401.00      1.07150E-03
  403.00      1.04120E-03
  405.00      1.05770E-03
  407.00      1.04680E-03
  409.00      1.00870E-03
  411.00      9.54220E-04
  413.00      1.01850E-03
  415.00      1.01320E-03
  417.00      1.00650E-03
  419.00      9.92170E-04
  421.00      9.74850E-04
  423.00      9.82270E-04
  425.00      9.74330E-04
  427.00      9.66470E-04
  429.00      9.58710E-04
  431.00      9.48620E-04
  433.00      9.08110E-04
  435.00      8.74840E-04
  437.00      9.25380E-04
  439.00      9.17630E-04
  441.00      9.14070E-04
  443.00      9.06700E-04
  445.00      8.99890E-04
  447.00      8.84150E-04
  449.00      8.86010E-04
  451.00      8.79190E-04
  453.00      8.70310E-04
  455.00      8.48880E-04
  457.00      8.59220E-04
  459.00      8.52710E-04
  461.00      8.46280E-04
  463.00      8.39810E-04
  465.00      8.32920E-04
  467.00      8.26270E-04
  469.00      7.93200E-04
  471.00      8.13210E-04
  473.00      8.09130E-04
  475.00      8.03180E-04
  477.00      7.97290E-04
  479.00      7.91460E-04
  481.00      7.85690E-04
  483.00      7.78060E-04
  485.00      7.51800E-04
  487.00      7.15760E-04
  489.00      7.60050E-04
  491.00      7.57760E-04
  493.00      7.48370E-04
  495.00      7.47080E-04
  497.00      7.41800E-04
  499.00      7.36570E-04
  501.00      7.29550E-04
  503.00      7.26280E-04
  505.00      7.20790E-04
  507.00      7.16200E-04
  509.00      7.11240E-04
  511.00      7.06330E-04
  513.00      7.01470E-04
  515.00      6.96660E-04
  517.00      6.91900E-04
  519.00      6.87190E-04
  521.00      6.82530E-04
  523.00      6.77910E-04
  525.00      6.73340E-04
  527.00      6.68810E-04
  529.00      6.64340E-04
  531.00      6.59910E-04
  533.00      6.55520E-04
  535.00      6.51170E-04
  537.00      6.46870E-04
  539.00      6.42590E-04
  541.00      6.25500E-04
  543.00      6.33920E-04
  545.00      6.30060E-04
  547.00      6.25970E-04
  549.00      6.21910E-04
  551.00      6.17880E-04
  553.00      6.13910E-04
  555.00      6.09970E-04
  557.00      6.06060E-04
  559.00      6.02150E-04
  561.00      5.98370E-04
  563.00      5.94570E-04
  565.00      5.90820E-04
  567.00      5.87090E-04
  569.00      5.77000E-04
  571.00      5.45320E-04
  573.00      5.42170E-04
  575.00      5.39050E-04
  577.00      5.35990E-04
  579.00      5.33050E-04
  581.00      5.30280E-04
  583.00      5.28110E-04
  585.00      5.26380E-04
  587.00      5.21740E-04
  589.00      5.23910E-04
  591.00      5.23330E-04
  593.00      5.22950E-04
  595.00      5.22920E-04
  597.00      5.23080E-04
  599.00      5.23760E-04
  601.00      5.23250E-04
  603.00      5.22590E-04
  605.00      5.22060E-04
  607.00      5.19040E-04
  609.00      5.16490E-04
  611.00      5.13720E-04
  613.00      5.11010E-04
  615.00      5.08480E-04
  617.00      5.04230E-04
  619.00      5.02530E-04
  621.00      4.99640E-04
  623.00      4.95290E-04
  625.00      4.93520E-04
  627.00      4.91030E-04
  629.00      4.88200E-04
  631.00      4.83210E-04
  633.00      4.82340E-04
  635.00      4.79890E-04
  637.00      4.77160E-04
  639.00      4.74150E-04
  641.00      4.68870E-04
  643.00      4.69110E-04
  645.00      4.66480E-04
  647.00      4.63870E-04
  649.00      4.61270E-04
  651.00      4.58130E-04
  653.00      4.51530E-04
  655.00      4.45880E-04
  657.00      4.21160E-04
  659.00      4.46810E-04
  661.00      4.46160E-04
  663.00      4.43720E-04
  665.00      4.41320E-04
  667.00      4.36910E-04
  669.00      4.30750E-04
  671.00      4.34120E-04
  673.00      4.31810E-04
  675.00      4.29480E-04
  677.00      4.27170E-04
  679.00      4.24880E-04
  681.00      4.22610E-04
  683.00      4.20350E-04
  685.00      4.18110E-04
  687.00      4.15880E-04
  689.00      4.08340E-04
  691.00      4.11170E-04
  693.00      4.09340E-04
  695.00      4.07190E-04
  697.00      4.05050E-04
  699.00      4.02940E-04
  701.00      4.00840E-04
  703.00      3.98750E-04
  705.00      3.96680E-04
  707.00      3.93040E-04
  709.00      3.92600E-04
  711.00      3.90580E-04
  713.00      3.88570E-04
  715.00      3.86580E-04
  717.00      3.80920E-04
  719.00      3.80270E-04
  721.00      3.80710E-04
  723.00      3.78780E-04
  725.00      3.76870E-04
  727.00      3.74970E-04
  729.00      3.72490E-04
  731.00      3.71210E-04
  733.00      3.69350E-04
  735.00      3.67510E-04
  737.00      3.65680E-04
  739.00      3.63860E-04
  741.00      3.62060E-04
  743.00      3.60270E-04
  745.00      3.58500E-04
  747.00      3.56740E-04
  749.00      3.54980E-04
  751.00      3.53250E-04
  753.00      3.51530E-04
  755.00      3.49810E-04
  757.00      3.48110E-04
  759.00      3.40930E-04
  761.00      3.44290E-04
  763.00      3.43090E-04
  765.00      3.41440E-04
  767.00      3.39800E-04
  769.00      3.38170E-04
  771.00      3.36560E-04
  773.00      3.34950E-04
  775.00      3.33360E-04
  777.00      3.31780E-04
  779.00      3.30210E-04
  781.00      3.28650E-04
  783.00      3.27110E-04
  785.00      3.25600E-04
  787.00      3.24070E-04
  789.00      3.22550E-04
  791.00      3.21050E-04
  793.00      3.19560E-04
  795.00      3.18070E-04
  797.00      3.16600E-04
  799.00      3.15130E-04
  801.00      3.13680E-04
  803.00      3.12240E-04
  805.00      3.10800E-04
  807.00      3.09380E-04
  809.00      3.07960E-04
  811.00      3.06560E-04
  813.00      3.05160E-04
  815.00      3.03780E-04
  817.00      3.02400E-04
  819.00      2.99870E-04
  821.00      2.89050E-04
  823.00      2.86040E-04
  825.00      2.86110E-04
  827.00      2.85330E-04
  829.00      2.84170E-04
  831.00      2.82980E-04
  833.00      2.81770E-04
  835.00      2.80530E-04
  837.00      2.79400E-04
  839.00      2.78260E-04
  841.00      2.77170E-04
  843.00      2.76080E-04
  845.00      2.74920E-04
  847.00      2.73990E-04
  849.00      2.73080E-04
  851.00      2.72160E-04
  853.00      2.71270E-04
  855.00      2.70290E-04
  857.00      2.69650E-04
  859.00      2.68410E-04
  861.00      2.67770E-04
  863.00      2.67450E-04
  865.00      2.66300E-04
  867.00      2.64710E-04
  869.00      2.65260E-04
  871.00      2.64900E-04
  873.00      2.63580E-04
  875.00      2.60390E-04
  877.00      2.61680E-04
  879.00      2.62450E-04
  881.00      2.62100E-04
  883.00      2.61180E-04
  885.00      2.57300E-04
  887.00      2.53330E-04
  889.00      2.57620E-04
  891.00      2.58120E-04
  893.00      2.57530E-04
  895.00      2.56820E-04
  897.00      2.55450E-04
  899.00      2.52610E-04
  901.00      2.44630E-04
  903.00      2.46660E-04
  905.00      2.50410E-04
  907.00      2.50110E-04
  909.00      2.49700E-04
  911.00      2.48570E-04
  913.00      2.48140E-04
  915.00      2.47130E-04
  917.00      2.45670E-04
  919.00      2.43940E-04
  921.00      2.39860E-04
  923.00      2.30350E-04
  925.00      2.37420E-04
  927.00      2.39860E-04
  929.00      2.39780E-04
  931.00      2.39030E-04
  933.00      2.37810E-04
  935.00      2.32080E-04
  937.00      2.35460E-04
  939.00      2.35320E-04
  941.00      2.34470E-04
  943.00      2.33530E-04
  945.00      2.32600E-04
  947.00      2.31510E-04
  949.00      2.30430E-04
  951.00      2.28270E-04
  953.00      2.23820E-04
  955.00      2.14480E-04
  957.00      2.23390E-04
  959.00      2.25230E-04
  961.00      2.25100E-04
  963.00      2.24350E-04
  965.00      2.23620E-04
  967.00      2.22750E-04
  969.00      2.21880E-04
  971.00      2.20960E-04
  973.00      2.20170E-04
  975.00      2.19030E-04
  977.00      2.17470E-04
  979.00      2.17630E-04
  981.00      2.16800E-04
  983.00      2.15970E-04
  985.00      2.15150E-04
  987.00      2.14330E-04
  989.00      2.13510E-04
  991.00      2.12700E-04
  993.00      2.11890E-04
  995.00      2.11090E-04
  997.00      2.10290E-04
  999.00      2.09270E-04
  1002.5      2.04100E-04
  1007.5      2.00770E-04
  1012.5      2.01040E-04
  1017.5      2.02360E-04
  1022.5      2.00500E-04
  1027.5      1.98670E-04
  1032.5      1.96690E-04
  1037.5      1.95060E-04
  1042.5      1.92460E-04
  1047.5      1.91560E-04
  1052.5      1.89840E-04
  1057.5      1.88140E-04
  1062.5      1.86470E-04
  1067.5      1.84800E-04
  1072.5      1.83190E-04
  1077.5      1.81590E-04
  1082.5      1.79530E-04
  1087.5      1.78160E-04
  1092.5      1.70450E-04
  1097.5      1.73380E-04
  1102.5      1.73730E-04
  1107.5      1.72370E-04
  1112.5      1.70910E-04
  1117.5      1.69540E-04
  1122.5      1.68100E-04
  1127.5      1.66690E-04
  1132.5      1.65300E-04
  1137.5      1.63920E-04
  1142.5      1.62560E-04
  1147.5      1.61210E-04
  1152.5      1.59890E-04
  1157.5      1.58570E-04
  1162.5      1.55650E-04
  1167.5      1.54900E-04
  1172.5      1.54730E-04
  1177.5      1.53490E-04
  1182.5      1.52250E-04
  1187.5      1.51040E-04
  1192.5      1.49830E-04
  1197.5      1.48370E-04
  1202.5      1.47470E-04
  1207.5      1.46300E-04
  1212.5      1.45160E-04
  1217.5      1.44020E-04
  1222.5      1.42900E-04
  1227.5      1.41790E-04
  1232.5      1.40690E-04
  1237.5      1.39610E-04
  1242.5      1.38540E-04
  1247.5      1.37480E-04
  1252.5      1.36400E-04
  1257.5      1.35400E-04
  1262.5      1.34380E-04
  1267.5      1.33360E-04
  1272.5      1.32360E-04
  1277.5      1.30450E-04
  1282.5      1.25240E-04
  1287.5      1.29000E-04
  1292.5      1.28470E-04
  1297.5      1.27440E-04
  1302.5      1.26590E-04
  1307.5      1.25670E-04
  1312.5      1.24750E-04
  1317.5      1.23850E-04
  1322.5      1.22950E-04
  1327.5      1.22060E-04
  1332.5      1.21190E-04
  1337.5      1.20320E-04
  1342.5      1.19450E-04
  1347.5      1.18610E-04
  1352.5      1.17770E-04
  1357.5      1.16940E-04
  1362.5      1.16120E-04
  1367.5      1.15310E-04
  1372.5      1.14500E-04
  1377.5      1.13710E-04
  1382.5      1.12920E-04
  1387.5      1.12140E-04
  1392.5      1.11370E-04
  1397.5      1.10600E-04
