 Castelli and Kurucz 2004-2012 Atmosphere
 T     38000.     G    4.00000 [-2.0] N(He)/Ntot=0.0784 VTURB=2.0  L/H=1.25 ODF
 Wavelength  Eddington Hnu
   (nm)    (ergs/s/cm2/Hz/sr)
  9.0900      4.20870E-25
  9.3500      1.76630E-24
  9.6100      6.89680E-24
  9.7700      1.54590E-23
  9.9600      3.91020E-23
  10.200      1.20970E-22
  10.380      2.73760E-22
  10.560      6.02560E-22
  10.770      1.46880E-21
  11.040      4.43310E-21
  11.400      1.78750E-20
  11.780      7.17160E-20
  12.130      2.40650E-19
  12.480      7.56490E-19
  12.710      1.55540E-18
  12.840      2.31250E-18
  13.050      4.32780E-18
  13.240      7.50780E-18
  13.390      1.14770E-17
  13.660      2.40720E-17
  13.980      5.59600E-17
  14.330      1.35180E-16
  14.720      3.44880E-16
  15.100      8.20610E-16
  15.520      2.03960E-15
  15.880      4.28380E-15
  16.200      8.08010E-15
  16.600      1.72720E-14
  17.030      3.75270E-14
  17.340      6.41490E-14
  17.680      1.12950E-13
  18.020      1.94730E-13
  18.170      2.46160E-13
  18.610      4.78990E-13
  19.100      9.68410E-13
  19.390      1.44410E-12
  19.840      2.62140E-12
  20.180      4.04000E-12
  20.500      5.99530E-12
  21.050      1.14710E-11
  21.620      2.16760E-11
  21.980      3.18330E-11
  22.300      4.43140E-11
  22.680      6.48060E-11
  23.000      4.93320E-09
  23.400      2.11870E-08
  24.000      5.62990E-08
  24.650      5.34870E-07
  25.240      1.78070E-06
  25.680      1.05180E-06
  26.000      6.12190E-06
  26.400      1.32090E-05
  26.850      2.00800E-05
  27.350      2.71650E-05
  27.850      2.89790E-05
  28.400      4.14640E-05
  29.000      4.69250E-05
  29.600      2.98150E-05
  30.100      3.14310E-06
  30.800      1.59020E-05
  31.800      5.40500E-05
  32.800      7.10700E-05
  33.800      7.73930E-05
  34.800      8.70730E-05
  35.700      1.09360E-04
  36.600      1.29450E-04
  37.500      1.39460E-04
  38.500      1.34880E-04
  39.500      1.61440E-04
  40.500      1.80420E-04
  41.400      1.91310E-04
  42.200      1.93590E-04
  43.000      1.96520E-04
  44.100      2.19880E-04
  45.100      2.31710E-04
  46.000      2.33690E-04
  47.000      2.43870E-04
  48.000      2.60990E-04
  49.000      2.60510E-04
  50.000      2.85210E-04
  50.600      3.84540E-04
  51.200      5.73610E-04
  52.000      5.78470E-04
  53.000      5.85850E-04
  54.000      5.64310E-04
  55.000      5.78210E-04
  56.000      6.62870E-04
  57.000      6.90140E-04
  58.000      6.91070E-04
  59.000      7.26110E-04
  60.000      7.22540E-04
  61.000      7.27310E-04
  62.000      7.93210E-04
  63.000      8.02910E-04
  64.000      8.36040E-04
  65.000      8.42270E-04
  65.800      8.34560E-04
  66.500      8.71810E-04
  67.500      9.06620E-04
  68.500      8.91230E-04
  69.500      9.38560E-04
  70.500      9.20960E-04
  71.600      9.82670E-04
  72.600      1.00430E-03
  73.500      1.02170E-03
  74.500      1.02640E-03
  75.500      1.04030E-03
  76.500      1.04180E-03
  77.500      1.07270E-03
  78.500      1.08320E-03
  79.500      1.10510E-03
  80.500      1.12220E-03
  81.500      1.14180E-03
  82.500      1.16340E-03
  83.500      1.12940E-03
  84.500      1.18710E-03
  85.500      1.19560E-03
  86.500      1.22210E-03
  87.500      1.23810E-03
  88.500      1.24970E-03
  89.500      1.26070E-03
  90.500      1.26250E-03
  91.500      1.11760E-03
  92.500      2.08150E-03
  93.500      2.64500E-03
  94.500      3.06950E-03
  95.500      3.26260E-03
  96.500      3.52000E-03
  97.500      2.99460E-03
  98.500      3.46060E-03
  99.500      3.33150E-03
  100.50      3.46440E-03
  101.50      3.48010E-03
  102.50      3.06900E-03
  103.50      3.46980E-03
  104.50      3.48600E-03
  105.50      3.47700E-03
  106.50      3.42600E-03
  107.50      3.42100E-03
  108.50      3.33490E-03
  109.50      3.43200E-03
  110.50      3.40620E-03
  111.50      3.37960E-03
  112.50      3.33170E-03
  113.50      3.38050E-03
  114.50      3.36760E-03
  115.50      3.33120E-03
  116.50      3.32080E-03
  117.50      3.12750E-03
  118.50      3.28490E-03
  119.50      3.27310E-03
  120.50      3.26320E-03
  121.50      2.85590E-03
  122.50      3.23660E-03
  123.50      3.21150E-03
  124.50      3.18610E-03
  125.50      3.20660E-03
  126.50      3.19480E-03
  127.50      3.18050E-03
  128.50      3.16660E-03
  129.50      3.14830E-03
  130.50      3.13050E-03
  131.50      3.11880E-03
  132.50      3.09840E-03
  133.50      3.08750E-03
  134.50      3.07620E-03
  135.50      3.05160E-03
  136.50      3.02700E-03
  137.50      3.00000E-03
  138.50      2.99880E-03
  139.50      2.95710E-03
  140.50      2.92530E-03
  141.50      2.95620E-03
  142.50      2.92940E-03
  143.50      2.92550E-03
  144.20      2.90430E-03
  144.70      2.89910E-03
  145.50      2.88250E-03
  146.50      2.87090E-03
  147.50      2.86010E-03
  148.50      2.85440E-03
  149.50      2.83310E-03
  150.50      2.82330E-03
  151.20      2.81640E-03
  151.70      2.80200E-03
  152.50      2.78980E-03
  153.50      2.75550E-03
  154.50      2.66750E-03
  155.50      2.66760E-03
  156.50      2.70410E-03
  157.50      2.70480E-03
  158.50      2.69060E-03
  159.50      2.67700E-03
  160.50      2.64170E-03
  161.50      2.62910E-03
  162.50      2.60580E-03
  163.50      2.56350E-03
  164.50      2.46350E-03
  165.50      2.58410E-03
  166.50      2.57260E-03
  167.20      2.54670E-03
  167.70      2.56500E-03
  168.50      2.55100E-03
  169.50      2.53830E-03
  170.50      2.52090E-03
  171.50      2.47920E-03
  172.50      2.48340E-03
  173.50      2.48620E-03
  174.50      2.46970E-03
  175.50      2.45200E-03
  176.50      2.44390E-03
  177.50      2.43130E-03
  178.50      2.41790E-03
  179.50      2.40200E-03
  180.50      2.39000E-03
  181.50      2.37650E-03
  182.50      2.36240E-03
  183.50      2.35090E-03
  184.50      2.33700E-03
  185.50      2.32310E-03
  186.50      2.30940E-03
  187.50      2.29630E-03
  188.50      2.28390E-03
  189.50      2.27310E-03
  190.50      2.26060E-03
  191.50      2.24790E-03
  192.50      2.23070E-03
  193.50      2.22290E-03
  194.50      2.21050E-03
  195.50      2.19720E-03
  196.70      2.18320E-03
  197.60      2.17220E-03
  198.40      2.16270E-03
  199.50      2.14930E-03
  200.50      2.13760E-03
  201.50      2.12570E-03
  202.50      2.11380E-03
  203.50      2.10200E-03
  204.50      2.08970E-03
  205.50      1.66690E-03
  206.50      1.63560E-03
  207.40      1.69150E-03
  207.80      1.74390E-03
  208.50      1.88880E-03
  209.50      2.02410E-03
  210.50      2.02370E-03
  211.50      2.02080E-03
  212.50      2.01050E-03
  213.50      1.99770E-03
  214.50      1.99000E-03
  215.50      2.00700E-03
  216.50      1.95970E-03
  217.50      1.99150E-03
  218.50      1.94070E-03
  219.50      1.96920E-03
  220.50      1.95920E-03
  221.50      1.90910E-03
  222.50      1.93770E-03
  223.50      1.92730E-03
  224.50      1.91660E-03
  225.50      1.86880E-03
  226.50      1.89600E-03
  227.50      1.88570E-03
  228.50      1.87520E-03
  229.50      1.85280E-03
  230.50      1.81980E-03
  231.50      1.84490E-03
  232.50      1.83540E-03
  233.50      1.82550E-03
  234.50      1.81570E-03
  235.50      1.80590E-03
  236.50      1.79630E-03
  237.50      1.78660E-03
  238.50      1.74250E-03
  239.50      1.76630E-03
  240.50      1.75790E-03
  241.50      1.74860E-03
  242.50      1.73960E-03
  243.50      1.73030E-03
  244.50      1.72120E-03
  245.50      1.71180E-03
  246.50      1.70310E-03
  247.50      1.69430E-03
  248.50      1.68530E-03
  249.50      1.64220E-03
  250.50      1.66530E-03
  251.30      1.58590E-03
  251.80      1.65370E-03
  252.50      1.64960E-03
  253.50      1.64200E-03
  254.50      1.63350E-03
  255.50      1.62500E-03
  256.50      1.61660E-03
  257.50      1.60830E-03
  258.50      1.60000E-03
  259.50      1.59120E-03
  260.50      1.58410E-03
  261.50      1.57580E-03
  262.50      1.56800E-03
  263.50      1.56000E-03
  264.50      1.55190E-03
  265.50      1.54400E-03
  266.50      1.53600E-03
  267.50      1.52770E-03
  268.50      1.52080E-03
  269.50      1.51250E-03
  270.50      1.50560E-03
  271.50      1.49800E-03
  272.50      1.48960E-03
  273.50      1.45380E-03
  274.50      1.47570E-03
  275.50      1.46840E-03
  276.50      1.45980E-03
  277.50      1.45380E-03
  278.50      1.44660E-03
  279.50      1.43930E-03
  280.50      1.43230E-03
  281.50      1.42530E-03
  282.50      1.41680E-03
  283.50      1.41110E-03
  284.50      1.40450E-03
  285.50      1.39770E-03
  286.50      1.39090E-03
  287.50      1.38410E-03
  288.50      1.37740E-03
  289.50      1.37070E-03
  291.00      1.36080E-03
  293.00      1.34770E-03
  295.00      1.33360E-03
  297.00      1.32200E-03
  299.00      1.30910E-03
  301.00      1.29690E-03
  303.00      1.28440E-03
  305.00      1.27230E-03
  307.00      1.26070E-03
  309.00      1.24910E-03
  311.00      1.23740E-03
  313.00      1.22600E-03
  315.00      1.21490E-03
  317.00      1.20370E-03
  319.00      1.19060E-03
  321.00      1.16850E-03
  323.00      1.17120E-03
  325.00      1.16060E-03
  327.00      1.14950E-03
  329.00      1.13970E-03
  331.00      1.12970E-03
  333.00      1.11970E-03
  335.00      1.10930E-03
  337.00      1.10000E-03
  339.00      1.09040E-03
  341.00      1.08080E-03
  343.00      1.07190E-03
  345.00      1.06210E-03
  347.00      1.05340E-03
  349.00      1.04390E-03
  351.00      1.03490E-03
  353.00      1.02590E-03
  355.00      1.01700E-03
  357.00      1.00910E-03
  359.00      9.99490E-04
  361.00      9.91580E-04
  363.00      9.82500E-04
  364.00      9.64450E-04
  365.00      8.98870E-04
  367.00      8.92660E-04
  369.00      8.89390E-04
  371.00      8.91020E-04
  373.00      8.94860E-04
  375.00      9.10910E-04
  377.00      9.16960E-04
  379.00      9.23110E-04
  381.00      9.32400E-04
  383.00      8.96930E-04
  385.00      9.27670E-04
  387.00      9.27020E-04
  389.00      8.73870E-04
  391.00      9.15330E-04
  393.00      9.01970E-04
  395.00      9.01650E-04
  397.00      8.44990E-04
  399.00      8.86910E-04
  401.00      8.80790E-04
  403.00      8.61820E-04
  405.00      8.67870E-04
  407.00      8.61010E-04
  409.00      8.44850E-04
  411.00      8.07090E-04
  413.00      8.40060E-04
  415.00      8.33430E-04
  417.00      8.28090E-04
  419.00      8.20380E-04
  421.00      8.08220E-04
  423.00      8.09370E-04
  425.00      8.03220E-04
  427.00      7.97140E-04
  429.00      7.91120E-04
  431.00      7.85160E-04
  433.00      7.66200E-04
  435.00      7.41340E-04
  437.00      7.67640E-04
  439.00      7.59830E-04
  441.00      7.56380E-04
  443.00      7.50650E-04
  445.00      7.45320E-04
  447.00      7.34660E-04
  449.00      7.34470E-04
  451.00      7.29130E-04
  453.00      7.23520E-04
  455.00      7.11130E-04
  457.00      7.13470E-04
  459.00      7.08360E-04
  461.00      7.03300E-04
  463.00      6.98210E-04
  465.00      6.92650E-04
  467.00      6.88110E-04
  469.00      6.66210E-04
  471.00      6.77360E-04
  473.00      6.74030E-04
  475.00      6.69330E-04
  477.00      6.64670E-04
  479.00      6.60060E-04
  481.00      6.55500E-04
  483.00      6.50970E-04
  485.00      6.38940E-04
  487.00      6.11640E-04
  489.00      6.37460E-04
  491.00      6.33370E-04
  493.00      6.26560E-04
  495.00      6.24830E-04
  497.00      6.20620E-04
  499.00      6.16460E-04
  501.00      6.10870E-04
  503.00      6.08240E-04
  505.00      6.03830E-04
  507.00      6.00190E-04
  509.00      5.96230E-04
  511.00      5.92300E-04
  513.00      5.88410E-04
  515.00      5.84560E-04
  517.00      5.80740E-04
  519.00      5.76960E-04
  521.00      5.73220E-04
  523.00      5.69510E-04
  525.00      5.65830E-04
  527.00      5.62180E-04
  529.00      5.58590E-04
  531.00      5.55020E-04
  533.00      5.51480E-04
  535.00      5.47980E-04
  537.00      5.44500E-04
  539.00      5.41060E-04
  541.00      5.31450E-04
  543.00      5.34280E-04
  545.00      5.30940E-04
  547.00      5.27630E-04
  549.00      5.24340E-04
  551.00      5.21090E-04
  553.00      5.17870E-04
  555.00      5.14680E-04
  557.00      5.11510E-04
  559.00      5.08320E-04
  561.00      5.05270E-04
  563.00      5.02190E-04
  565.00      4.99140E-04
  567.00      4.96110E-04
  569.00      4.88710E-04
  571.00      4.66670E-04
  573.00      4.64040E-04
  575.00      4.61440E-04
  577.00      4.58970E-04
  579.00      4.56810E-04
  581.00      4.55160E-04
  583.00      4.53930E-04
  585.00      4.53010E-04
  587.00      4.49060E-04
  589.00      4.51640E-04
  591.00      4.51320E-04
  593.00      4.51280E-04
  595.00      4.51590E-04
  597.00      4.51390E-04
  599.00      4.50870E-04
  601.00      4.48920E-04
  603.00      4.46380E-04
  605.00      4.44080E-04
  607.00      4.41110E-04
  609.00      4.39170E-04
  611.00      4.36180E-04
  613.00      4.33720E-04
  615.00      4.31740E-04
  617.00      4.28130E-04
  619.00      4.26870E-04
  621.00      4.24480E-04
  623.00      4.20740E-04
  625.00      4.19580E-04
  627.00      4.17410E-04
  629.00      4.15080E-04
  631.00      4.10960E-04
  633.00      4.10490E-04
  635.00      4.08240E-04
  637.00      4.05990E-04
  639.00      4.03760E-04
  641.00      3.99350E-04
  643.00      3.99360E-04
  645.00      3.97190E-04
  647.00      3.95030E-04
  649.00      3.92890E-04
  651.00      3.90770E-04
  653.00      3.85820E-04
  655.00      3.83890E-04
  657.00      3.64610E-04
  659.00      3.82210E-04
  661.00      3.80410E-04
  663.00      3.78390E-04
  665.00      3.76410E-04
  667.00      3.73290E-04
  669.00      3.68510E-04
  671.00      3.70470E-04
  673.00      3.68530E-04
  675.00      3.66600E-04
  677.00      3.64690E-04
  679.00      3.62790E-04
  681.00      3.60900E-04
  683.00      3.59030E-04
  685.00      3.57170E-04
  687.00      3.55330E-04
  689.00      3.50520E-04
  691.00      3.51680E-04
  693.00      3.49890E-04
  695.00      3.48100E-04
  697.00      3.46320E-04
  699.00      3.44560E-04
  701.00      3.42820E-04
  703.00      3.41080E-04
  705.00      3.39360E-04
  707.00      3.36140E-04
  709.00      3.35960E-04
  711.00      3.34280E-04
  713.00      3.32610E-04
  715.00      3.30950E-04
  717.00      3.27270E-04
  719.00      3.26750E-04
  721.00      3.26050E-04
  723.00      3.24440E-04
  725.00      3.22840E-04
  727.00      3.21260E-04
  729.00      3.19080E-04
  731.00      3.18120E-04
  733.00      3.16570E-04
  735.00      3.15030E-04
  737.00      3.13500E-04
  739.00      3.11980E-04
  741.00      3.10470E-04
  743.00      3.08980E-04
  745.00      3.07490E-04
  747.00      3.06020E-04
  749.00      3.04550E-04
  751.00      3.03100E-04
  753.00      3.01660E-04
  755.00      3.00230E-04
  757.00      2.98800E-04
  759.00      2.94640E-04
  761.00      2.95960E-04
  763.00      2.94590E-04
  765.00      2.93210E-04
  767.00      2.91830E-04
  769.00      2.90470E-04
  771.00      2.89110E-04
  773.00      2.87760E-04
  775.00      2.86430E-04
  777.00      2.85110E-04
  779.00      2.83790E-04
  781.00      2.82470E-04
  783.00      2.81180E-04
  785.00      2.79920E-04
  787.00      2.78640E-04
  789.00      2.77360E-04
  791.00      2.76100E-04
  793.00      2.74840E-04
  795.00      2.73590E-04
  797.00      2.72350E-04
  799.00      2.71120E-04
  801.00      2.69900E-04
  803.00      2.68680E-04
  805.00      2.67480E-04
  807.00      2.66280E-04
  809.00      2.65090E-04
  811.00      2.63900E-04
  813.00      2.62730E-04
  815.00      2.61560E-04
  817.00      2.60410E-04
  819.00      2.58460E-04
  821.00      2.50630E-04
  823.00      2.48470E-04
  825.00      2.48410E-04
  827.00      2.47430E-04
  829.00      2.46480E-04
  831.00      2.45450E-04
  833.00      2.44420E-04
  835.00      2.43330E-04
  837.00      2.42440E-04
  839.00      2.41530E-04
  841.00      2.40700E-04
  843.00      2.39850E-04
  845.00      2.38910E-04
  847.00      2.38210E-04
  849.00      2.37490E-04
  851.00      2.36610E-04
  853.00      2.36060E-04
  855.00      2.34800E-04
  857.00      2.34970E-04
  859.00      2.33190E-04
  861.00      2.32590E-04
  863.00      2.33270E-04
  865.00      2.31960E-04
  867.00      2.28690E-04
  869.00      2.31490E-04
  871.00      2.31390E-04
  873.00      2.30050E-04
  875.00      2.23930E-04
  877.00      2.28000E-04
  879.00      2.29020E-04
  881.00      2.28330E-04
  883.00      2.27440E-04
  885.00      2.23550E-04
  887.00      2.17550E-04
  889.00      2.24150E-04
  891.00      2.24200E-04
  893.00      2.23130E-04
  895.00      2.22520E-04
  897.00      2.21610E-04
  899.00      2.19540E-04
  901.00      2.11190E-04
  903.00      2.14470E-04
  905.00      2.17580E-04
  907.00      2.16750E-04
  909.00      2.16160E-04
  911.00      2.15050E-04
  913.00      2.14530E-04
  915.00      2.13670E-04
  917.00      2.12750E-04
  919.00      2.11840E-04
  921.00      2.09070E-04
  923.00      1.99750E-04
  925.00      2.07340E-04
  927.00      2.08420E-04
  929.00      2.07780E-04
  931.00      2.06850E-04
  933.00      2.06140E-04
  935.00      2.02570E-04
  937.00      2.03840E-04
  939.00      2.03720E-04
  941.00      2.02930E-04
  943.00      2.02140E-04
  945.00      2.01350E-04
  947.00      2.00400E-04
  949.00      1.99780E-04
  951.00      1.98440E-04
  953.00      1.95730E-04
  955.00      1.87150E-04
  957.00      1.95300E-04
  959.00      1.95870E-04
  961.00      1.95150E-04
  963.00      1.94310E-04
  965.00      1.93710E-04
  967.00      1.92970E-04
  969.00      1.92220E-04
  971.00      1.91400E-04
  973.00      1.90770E-04
  975.00      1.89960E-04
  977.00      1.88450E-04
  979.00      1.88610E-04
  981.00      1.87900E-04
  983.00      1.87190E-04
  985.00      1.86490E-04
  987.00      1.85790E-04
  989.00      1.85100E-04
  991.00      1.84400E-04
  993.00      1.83720E-04
  995.00      1.83030E-04
  997.00      1.82350E-04
  999.00      1.81670E-04
  1002.5      1.78320E-04
  1007.5      1.75550E-04
  1012.5      1.75250E-04
  1017.5      1.75590E-04
  1022.5      1.73990E-04
  1027.5      1.72430E-04
  1032.5      1.70720E-04
  1037.5      1.69350E-04
  1042.5      1.67320E-04
  1047.5      1.66350E-04
  1052.5      1.64890E-04
  1057.5      1.63440E-04
  1062.5      1.62010E-04
  1067.5      1.60560E-04
  1072.5      1.59200E-04
  1077.5      1.57820E-04
  1082.5      1.55960E-04
  1087.5      1.55120E-04
  1092.5      1.49540E-04
  1097.5      1.51760E-04
  1102.5      1.51100E-04
  1107.5      1.49930E-04
  1112.5      1.48670E-04
  1117.5      1.47490E-04
  1122.5      1.46250E-04
  1127.5      1.45050E-04
  1132.5      1.43850E-04
  1137.5      1.42670E-04
  1142.5      1.41500E-04
  1147.5      1.40340E-04
  1152.5      1.39210E-04
  1157.5      1.38080E-04
  1162.5      1.36120E-04
  1167.5      1.35320E-04
  1172.5      1.34780E-04
  1177.5      1.33710E-04
  1182.5      1.32650E-04
  1187.5      1.31600E-04
  1192.5      1.30560E-04
  1197.5      1.29290E-04
  1202.5      1.28530E-04
  1207.5      1.27530E-04
  1212.5      1.26540E-04
  1217.5      1.25560E-04
  1222.5      1.24600E-04
  1227.5      1.23640E-04
  1232.5      1.22700E-04
  1237.5      1.21770E-04
  1242.5      1.20840E-04
  1247.5      1.19930E-04
  1252.5      1.18990E-04
  1257.5      1.18140E-04
  1262.5      1.17260E-04
  1267.5      1.16380E-04
  1272.5      1.15520E-04
  1277.5      1.14170E-04
  1282.5      1.10500E-04
  1287.5      1.12900E-04
  1292.5      1.12170E-04
  1297.5      1.11230E-04
  1302.5      1.10540E-04
  1307.5      1.09740E-04
  1312.5      1.08950E-04
  1317.5      1.08170E-04
  1322.5      1.07400E-04
  1327.5      1.06630E-04
  1332.5      1.05880E-04
  1337.5      1.05130E-04
  1342.5      1.04370E-04
  1347.5      1.03650E-04
  1352.5      1.02930E-04
  1357.5      1.02210E-04
  1362.5      1.01500E-04
  1367.5      1.00800E-04
  1372.5      1.00100E-04
  1377.5      9.94130E-05
  1382.5      9.87310E-05
  1387.5      9.80560E-05
  1392.5      9.73890E-05
  1397.5      9.67270E-05
