 Castelli and Kurucz 2004-2012 Atmosphere
 T     35000.     G    4.50000 [-2.0] N(He)/Ntot=0.0784 VTURB=2.0  L/H=1.25 ODF
 Wavelength  Eddington Hnu
   (nm)    (ergs/s/cm2/Hz/sr)
  9.0900      1.33330E-28
  9.3500      6.76840E-28
  9.6100      3.17070E-27
  9.7700      7.91130E-27
  9.9600      2.25970E-26
  10.200      8.08560E-26
  10.380      2.03290E-25
  10.560      4.96880E-25
  10.770      1.36250E-24
  11.040      4.73690E-24
  11.400      2.29760E-23
  11.780      1.10850E-22
  12.130      4.36600E-22
  12.480      1.60430E-21
  12.710      3.64060E-21
  12.840      5.71800E-21
  13.050      1.16500E-20
  13.240      2.17960E-20
  13.390      3.53270E-20
  13.660      8.22340E-20
  13.980      2.15260E-19
  14.330      5.88930E-19
  14.720      1.71410E-18
  15.100      4.61600E-18
  15.520      1.30740E-17
  15.880      3.05960E-17
  16.200      6.31930E-17
  16.600      1.50640E-16
  17.030      3.66560E-16
  17.340      6.77320E-16
  17.680      1.29630E-15
  18.020      2.42280E-15
  18.170      3.16830E-15
  18.610      6.79050E-15
  19.100      1.52300E-14
  19.390      2.41030E-14
  19.840      4.78220E-14
  20.180      7.85920E-14
  20.500      1.23610E-13
  21.050      2.60680E-13
  21.620      5.41900E-13
  21.980      8.43100E-13
  22.300      1.23440E-12
  22.680      1.91340E-12
  23.000      1.37050E-10
  23.400      7.81590E-10
  24.000      2.72600E-09
  24.650      9.99930E-09
  25.240      2.18210E-08
  25.680      1.46820E-08
  26.000      6.17240E-08
  26.400      1.41430E-07
  26.850      2.51350E-07
  27.350      3.54700E-07
  27.850      3.92550E-07
  28.400      6.12120E-07
  29.000      6.73580E-07
  29.600      4.40000E-07
  30.100      1.20320E-07
  30.800      3.22590E-07
  31.800      1.05940E-06
  32.800      1.31610E-06
  33.800      1.54500E-06
  34.800      1.87340E-06
  35.700      2.10080E-06
  36.600      2.52340E-06
  37.500      2.83950E-06
  38.500      3.35100E-06
  39.500      4.02190E-06
  40.500      4.75550E-06
  41.400      5.56040E-06
  42.200      6.24330E-06
  43.000      7.03750E-06
  44.100      8.49450E-06
  45.100      9.88030E-06
  46.000      1.11700E-05
  47.000      1.30870E-05
  48.000      1.50760E-05
  49.000      1.69690E-05
  50.000      1.97110E-05
  50.600      7.12680E-05
  51.200      1.89650E-04
  52.000      1.89220E-04
  53.000      1.94800E-04
  54.000      1.83970E-04
  55.000      2.00500E-04
  56.000      2.22840E-04
  57.000      2.30980E-04
  58.000      2.26010E-04
  59.000      2.41680E-04
  60.000      2.42200E-04
  61.000      2.49320E-04
  62.000      2.69890E-04
  63.000      2.76060E-04
  64.000      2.82770E-04
  65.000      2.89470E-04
  65.800      2.89970E-04
  66.500      2.99310E-04
  67.500      3.12390E-04
  68.500      3.07970E-04
  69.500      3.27950E-04
  70.500      3.25990E-04
  71.600      3.47250E-04
  72.600      3.55230E-04
  73.500      3.66040E-04
  74.500      3.69970E-04
  75.500      3.77810E-04
  76.500      3.83720E-04
  77.500      3.94200E-04
  78.500      4.06050E-04
  79.500      4.14410E-04
  80.500      4.21800E-04
  81.500      4.31680E-04
  82.500      4.43820E-04
  83.500      4.33250E-04
  84.500      4.59860E-04
  85.500      4.68360E-04
  86.500      4.79740E-04
  87.500      4.88500E-04
  88.500      4.97280E-04
  89.500      5.06200E-04
  90.500      5.11760E-04
  91.500      5.14870E-04
  92.500      1.25040E-03
  93.500      1.83370E-03
  94.500      2.60630E-03
  95.500      2.88420E-03
  96.500      3.42770E-03
  97.500      2.43170E-03
  98.500      3.42170E-03
  99.500      3.22350E-03
  100.50      3.41950E-03
  101.50      3.41450E-03
  102.50      2.50350E-03
  103.50      3.35060E-03
  104.50      3.43990E-03
  105.50      3.42670E-03
  106.50      3.34500E-03
  107.50      3.33920E-03
  108.50      3.17560E-03
  109.50      3.35180E-03
  110.50      3.30630E-03
  111.50      3.27750E-03
  112.50      3.19180E-03
  113.50      3.27110E-03
  114.50      3.24680E-03
  115.50      3.20730E-03
  116.50      3.19550E-03
  117.50      2.90210E-03
  118.50      3.12360E-03
  119.50      3.11840E-03
  120.50      3.04690E-03
  121.50      2.28860E-03
  122.50      3.03030E-03
  123.50      3.05650E-03
  124.50      3.01640E-03
  125.50      3.03830E-03
  126.50      3.02690E-03
  127.50      3.01010E-03
  128.50      2.99360E-03
  129.50      2.93870E-03
  130.50      2.93740E-03
  131.50      2.93760E-03
  132.50      2.91240E-03
  133.50      2.87830E-03
  134.50      2.88270E-03
  135.50      2.86020E-03
  136.50      2.83780E-03
  137.50      2.81460E-03
  138.50      2.80050E-03
  139.50      2.73090E-03
  140.50      2.71190E-03
  141.50      2.74560E-03
  142.50      2.70740E-03
  143.50      2.70920E-03
  144.20      2.69710E-03
  144.70      2.68770E-03
  145.50      2.66900E-03
  146.50      2.65550E-03
  147.50      2.63690E-03
  148.50      2.62720E-03
  149.50      2.60420E-03
  150.50      2.59150E-03
  151.20      2.58320E-03
  151.70      2.57010E-03
  152.50      2.55050E-03
  153.50      2.50150E-03
  154.50      2.42760E-03
  155.50      2.42490E-03
  156.50      2.44800E-03
  157.50      2.45310E-03
  158.50      2.44790E-03
  159.50      2.43060E-03
  160.50      2.38290E-03
  161.50      2.36440E-03
  162.50      2.34800E-03
  163.50      2.30680E-03
  164.50      2.21110E-03
  165.50      2.33080E-03
  166.50      2.31780E-03
  167.20      2.29050E-03
  167.70      2.31810E-03
  168.50      2.30100E-03
  169.50      2.28740E-03
  170.50      2.26830E-03
  171.50      2.23150E-03
  172.50      2.22390E-03
  173.50      2.23690E-03
  174.50      2.21920E-03
  175.50      2.19890E-03
  176.50      2.19330E-03
  177.50      2.18180E-03
  178.50      2.16880E-03
  179.50      2.15180E-03
  180.50      2.14100E-03
  181.50      2.12700E-03
  182.50      2.11210E-03
  183.50      2.10280E-03
  184.50      2.08670E-03
  185.50      2.07000E-03
  186.50      2.05710E-03
  187.50      2.04640E-03
  188.50      2.03300E-03
  189.50      2.02140E-03
  190.50      2.01280E-03
  191.50      1.99770E-03
  192.50      1.97570E-03
  193.50      1.97480E-03
  194.50      1.96450E-03
  195.50      1.94800E-03
  196.70      1.93770E-03
  197.60      1.92820E-03
  198.40      1.91770E-03
  199.50      1.90290E-03
  200.50      1.89450E-03
  201.50      1.88340E-03
  202.50      1.87200E-03
  203.50      1.86020E-03
  204.50      1.84890E-03
  205.50      1.52300E-03
  206.50      1.48360E-03
  207.40      1.50390E-03
  207.80      1.52800E-03
  208.50      1.59990E-03
  209.50      1.73830E-03
  210.50      1.78340E-03
  211.50      1.77860E-03
  212.50      1.76750E-03
  213.50      1.75540E-03
  214.50      1.74710E-03
  215.50      1.75340E-03
  216.50      1.71470E-03
  217.50      1.74220E-03
  218.50      1.69490E-03
  219.50      1.72100E-03
  220.50      1.71270E-03
  221.50      1.66290E-03
  222.50      1.69210E-03
  223.50      1.68230E-03
  224.50      1.67130E-03
  225.50      1.62460E-03
  226.50      1.65260E-03
  227.50      1.64300E-03
  228.50      1.63250E-03
  229.50      1.60440E-03
  230.50      1.57870E-03
  231.50      1.60390E-03
  232.50      1.59530E-03
  233.50      1.58600E-03
  234.50      1.57680E-03
  235.50      1.56770E-03
  236.50      1.55860E-03
  237.50      1.54950E-03
  238.50      1.50710E-03
  239.50      1.53030E-03
  240.50      1.52300E-03
  241.50      1.51430E-03
  242.50      1.50580E-03
  243.50      1.49710E-03
  244.50      1.48870E-03
  245.50      1.48010E-03
  246.50      1.47190E-03
  247.50      1.46360E-03
  248.50      1.45540E-03
  249.50      1.40870E-03
  250.50      1.43590E-03
  251.30      1.36740E-03
  251.80      1.42400E-03
  252.50      1.42300E-03
  253.50      1.41540E-03
  254.50      1.40740E-03
  255.50      1.39960E-03
  256.50      1.39210E-03
  257.50      1.38440E-03
  258.50      1.37690E-03
  259.50      1.36920E-03
  260.50      1.36460E-03
  261.50      1.35710E-03
  262.50      1.34980E-03
  263.50      1.34220E-03
  264.50      1.33460E-03
  265.50      1.32690E-03
  266.50      1.31880E-03
  267.50      1.31060E-03
  268.50      1.30670E-03
  269.50      1.29600E-03
  270.50      1.29290E-03
  271.50      1.28590E-03
  272.50      1.27440E-03
  273.50      1.24820E-03
  274.50      1.26570E-03
  275.50      1.25900E-03
  276.50      1.24680E-03
  277.50      1.24580E-03
  278.50      1.23930E-03
  279.50      1.23200E-03
  280.50      1.22620E-03
  281.50      1.22000E-03
  282.50      1.20750E-03
  283.50      1.20470E-03
  284.50      1.20120E-03
  285.50      1.19500E-03
  286.50      1.18880E-03
  287.50      1.18280E-03
  288.50      1.17680E-03
  289.50      1.17070E-03
  291.00      1.16180E-03
  293.00      1.15010E-03
  295.00      1.13380E-03
  297.00      1.12710E-03
  299.00      1.11560E-03
  301.00      1.10480E-03
  303.00      1.09360E-03
  305.00      1.08300E-03
  307.00      1.07260E-03
  309.00      1.06190E-03
  311.00      1.05180E-03
  313.00      1.04210E-03
  315.00      1.03200E-03
  317.00      1.02210E-03
  319.00      1.00680E-03
  321.00      9.93470E-04
  323.00      9.93160E-04
  325.00      9.83720E-04
  327.00      9.74680E-04
  329.00      9.65220E-04
  331.00      9.56960E-04
  333.00      9.48110E-04
  335.00      9.38360E-04
  337.00      9.30820E-04
  339.00      9.22410E-04
  341.00      9.14060E-04
  343.00      9.03890E-04
  345.00      8.93870E-04
  347.00      8.87470E-04
  349.00      8.79530E-04
  351.00      8.72640E-04
  353.00      8.65410E-04
  355.00      8.57420E-04
  357.00      8.53040E-04
  359.00      8.41670E-04
  361.00      8.36200E-04
  363.00      8.27070E-04
  364.00      8.21780E-04
  365.00      7.87600E-04
  367.00      7.82680E-04
  369.00      7.76740E-04
  371.00      7.67310E-04
  373.00      7.59200E-04
  375.00      7.64190E-04
  377.00      7.60000E-04
  379.00      7.80330E-04
  381.00      8.02050E-04
  383.00      7.40600E-04
  385.00      8.12970E-04
  387.00      8.19840E-04
  389.00      7.19350E-04
  391.00      8.12960E-04
  393.00      8.05470E-04
  395.00      8.00930E-04
  397.00      6.93560E-04
  399.00      7.85460E-04
  401.00      7.82870E-04
  403.00      7.56520E-04
  405.00      7.75430E-04
  407.00      7.66980E-04
  409.00      7.33040E-04
  411.00      6.74720E-04
  413.00      7.43710E-04
  415.00      7.40220E-04
  417.00      7.37630E-04
  419.00      7.30700E-04
  421.00      7.21340E-04
  423.00      7.20800E-04
  425.00      7.14990E-04
  427.00      7.09180E-04
  429.00      7.03650E-04
  431.00      6.96170E-04
  433.00      6.58820E-04
  435.00      6.22570E-04
  437.00      6.79100E-04
  439.00      6.66750E-04
  441.00      6.71320E-04
  443.00      6.65210E-04
  445.00      6.61240E-04
  447.00      6.40150E-04
  449.00      6.51080E-04
  451.00      6.46220E-04
  453.00      6.41020E-04
  455.00      6.30660E-04
  457.00      6.31770E-04
  459.00      6.26990E-04
  461.00      6.22360E-04
  463.00      6.17610E-04
  465.00      6.11500E-04
  467.00      6.08410E-04
  469.00      5.91750E-04
  471.00      5.95430E-04
  473.00      5.95450E-04
  475.00      5.91110E-04
  477.00      5.86840E-04
  479.00      5.82600E-04
  481.00      5.78370E-04
  483.00      5.72460E-04
  485.00      5.47540E-04
  487.00      5.09790E-04
  489.00      5.59200E-04
  491.00      5.57730E-04
  493.00      5.46180E-04
  495.00      5.50240E-04
  497.00      5.46440E-04
  499.00      5.42630E-04
  501.00      5.34960E-04
  503.00      5.35110E-04
  505.00      5.29860E-04
  507.00      5.27760E-04
  509.00      5.24140E-04
  511.00      5.20560E-04
  513.00      5.17010E-04
  515.00      5.13490E-04
  517.00      5.10010E-04
  519.00      5.06580E-04
  521.00      5.03170E-04
  523.00      4.99800E-04
  525.00      4.96450E-04
  527.00      4.93150E-04
  529.00      4.89880E-04
  531.00      4.86640E-04
  533.00      4.83430E-04
  535.00      4.80250E-04
  537.00      4.77110E-04
  539.00      4.73990E-04
  541.00      4.66690E-04
  543.00      4.67840E-04
  545.00      4.64820E-04
  547.00      4.61820E-04
  549.00      4.58850E-04
  551.00      4.55910E-04
  553.00      4.53000E-04
  555.00      4.50110E-04
  557.00      4.47250E-04
  559.00      4.44400E-04
  561.00      4.41620E-04
  563.00      4.38840E-04
  565.00      4.36090E-04
  567.00      4.33360E-04
  569.00      4.28890E-04
  571.00      4.19310E-04
  573.00      4.16820E-04
  575.00      4.14350E-04
  577.00      4.11920E-04
  579.00      4.09510E-04
  581.00      4.07150E-04
  583.00      4.04920E-04
  585.00      4.02970E-04
  587.00      3.93680E-04
  589.00      3.98990E-04
  591.00      3.97700E-04
  593.00      3.96110E-04
  595.00      3.94570E-04
  597.00      3.93080E-04
  599.00      3.91680E-04
  601.00      3.90210E-04
  603.00      3.88450E-04
  605.00      3.86180E-04
  607.00      3.83910E-04
  609.00      3.81650E-04
  611.00      3.79410E-04
  613.00      3.77200E-04
  615.00      3.75000E-04
  617.00      3.72820E-04
  619.00      3.70660E-04
  621.00      3.68520E-04
  623.00      3.66390E-04
  625.00      3.64290E-04
  627.00      3.62200E-04
  629.00      3.60130E-04
  631.00      3.58050E-04
  633.00      3.56040E-04
  635.00      3.54030E-04
  637.00      3.52030E-04
  639.00      3.50040E-04
  641.00      3.47830E-04
  643.00      3.46130E-04
  645.00      3.44190E-04
  647.00      3.42270E-04
  649.00      3.40370E-04
  651.00      3.38480E-04
  653.00      3.35030E-04
  655.00      3.27380E-04
  657.00      3.02690E-04
  659.00      3.29380E-04
  661.00      3.29260E-04
  663.00      3.27490E-04
  665.00      3.25800E-04
  667.00      3.21810E-04
  669.00      3.19350E-04
  671.00      3.20530E-04
  673.00      3.18820E-04
  675.00      3.17100E-04
  677.00      3.15410E-04
  679.00      3.13730E-04
  681.00      3.12060E-04
  683.00      3.10400E-04
  685.00      3.08760E-04
  687.00      3.07120E-04
  689.00      3.04770E-04
  691.00      3.03900E-04
  693.00      3.02310E-04
  695.00      3.00730E-04
  697.00      2.99160E-04
  699.00      2.97600E-04
  701.00      2.96060E-04
  703.00      2.94520E-04
  705.00      2.93000E-04
  707.00      2.88490E-04
  709.00      2.90000E-04
  711.00      2.88520E-04
  713.00      2.87040E-04
  715.00      2.85580E-04
  717.00      2.83550E-04
  719.00      2.82390E-04
  721.00      2.81260E-04
  723.00      2.79820E-04
  725.00      2.78430E-04
  727.00      2.77030E-04
  729.00      2.74180E-04
  731.00      2.74250E-04
  733.00      2.72900E-04
  735.00      2.71540E-04
  737.00      2.70200E-04
  739.00      2.68860E-04
  741.00      2.67530E-04
  743.00      2.66220E-04
  745.00      2.64930E-04
  747.00      2.63630E-04
  749.00      2.62340E-04
  751.00      2.61020E-04
  753.00      2.59790E-04
  755.00      2.58530E-04
  757.00      2.57280E-04
  759.00      2.55150E-04
  761.00      2.54800E-04
  763.00      2.53580E-04
  765.00      2.52370E-04
  767.00      2.51160E-04
  769.00      2.49960E-04
  771.00      2.48770E-04
  773.00      2.47590E-04
  775.00      2.46420E-04
  777.00      2.45260E-04
  779.00      2.44100E-04
  781.00      2.42890E-04
  783.00      2.41810E-04
  785.00      2.40800E-04
  787.00      2.39670E-04
  789.00      2.38550E-04
  791.00      2.37450E-04
  793.00      2.36350E-04
  795.00      2.35250E-04
  797.00      2.34120E-04
  799.00      2.33090E-04
  801.00      2.32010E-04
  803.00      2.30950E-04
  805.00      2.29890E-04
  807.00      2.28840E-04
  809.00      2.27630E-04
  811.00      2.26620E-04
  813.00      2.25700E-04
  815.00      2.24510E-04
  817.00      2.23670E-04
  819.00      2.22330E-04
  821.00      2.19300E-04
  823.00      2.17950E-04
  825.00      2.17540E-04
  827.00      2.16280E-04
  829.00      2.15740E-04
  831.00      2.14840E-04
  833.00      2.13840E-04
  835.00      2.12430E-04
  837.00      2.11860E-04
  839.00      2.11080E-04
  841.00      2.10190E-04
  843.00      2.09220E-04
  845.00      2.07650E-04
  847.00      2.07460E-04
  849.00      2.06400E-04
  851.00      2.05650E-04
  853.00      2.04630E-04
  855.00      2.03460E-04
  857.00      2.03720E-04
  859.00      2.00500E-04
  861.00      2.00640E-04
  863.00      2.01900E-04
  865.00      1.99240E-04
  867.00      1.95250E-04
  869.00      1.99510E-04
  871.00      1.99900E-04
  873.00      1.96750E-04
  875.00      1.88740E-04
  877.00      1.93830E-04
  879.00      1.97280E-04
  881.00      1.97040E-04
  883.00      1.95670E-04
  885.00      1.88420E-04
  887.00      1.81530E-04
  889.00      1.91860E-04
  891.00      1.93250E-04
  893.00      1.92750E-04
  895.00      1.92240E-04
  897.00      1.91110E-04
  899.00      1.87590E-04
  901.00      1.75320E-04
  903.00      1.80050E-04
  905.00      1.86910E-04
  907.00      1.86240E-04
  909.00      1.86680E-04
  911.00      1.86410E-04
  913.00      1.85730E-04
  915.00      1.84970E-04
  917.00      1.83630E-04
  919.00      1.82380E-04
  921.00      1.76940E-04
  923.00      1.64160E-04
  925.00      1.75500E-04
  927.00      1.79260E-04
  929.00      1.79400E-04
  931.00      1.78540E-04
  933.00      1.78310E-04
  935.00      1.76340E-04
  937.00      1.76900E-04
  939.00      1.76190E-04
  941.00      1.75490E-04
  943.00      1.74790E-04
  945.00      1.74090E-04
  947.00      1.72740E-04
  949.00      1.72340E-04
  951.00      1.69920E-04
  953.00      1.64690E-04
  955.00      1.53350E-04
  957.00      1.65800E-04
  959.00      1.68350E-04
  961.00      1.68150E-04
  963.00      1.67470E-04
  965.00      1.67360E-04
  967.00      1.66710E-04
  969.00      1.65990E-04
  971.00      1.65090E-04
  973.00      1.64770E-04
  975.00      1.64140E-04
  977.00      1.63500E-04
  979.00      1.62880E-04
  981.00      1.62250E-04
  983.00      1.61630E-04
  985.00      1.61010E-04
  987.00      1.60400E-04
  989.00      1.59780E-04
  991.00      1.59170E-04
  993.00      1.58570E-04
  995.00      1.57970E-04
  997.00      1.57370E-04
  999.00      1.56500E-04
  1002.5      1.50860E-04
  1007.5      1.48070E-04
  1012.5      1.51540E-04
  1017.5      1.51430E-04
  1022.5      1.50010E-04
  1027.5      1.48660E-04
  1032.5      1.46910E-04
  1037.5      1.45960E-04
  1042.5      1.44600E-04
  1047.5      1.43330E-04
  1052.5      1.42050E-04
  1057.5      1.40780E-04
  1062.5      1.39520E-04
  1067.5      1.38140E-04
  1072.5      1.37070E-04
  1077.5      1.35860E-04
  1082.5      1.33800E-04
  1087.5      1.33190E-04
  1092.5      1.24830E-04
  1097.5      1.28980E-04
  1102.5      1.29570E-04
  1107.5      1.28890E-04
  1112.5      1.27860E-04
  1117.5      1.26790E-04
  1122.5      1.25680E-04
  1127.5      1.24660E-04
  1132.5      1.23610E-04
  1137.5      1.22580E-04
  1142.5      1.21560E-04
  1147.5      1.20560E-04
  1152.5      1.19560E-04
  1157.5      1.18580E-04
  1162.5      1.17310E-04
  1167.5      1.16570E-04
  1172.5      1.15710E-04
  1177.5      1.14770E-04
  1182.5      1.13850E-04
  1187.5      1.12940E-04
  1192.5      1.12040E-04
  1197.5      1.10380E-04
  1202.5      1.10270E-04
  1207.5      1.09400E-04
  1212.5      1.08540E-04
  1217.5      1.07690E-04
  1222.5      1.06850E-04
  1227.5      1.06020E-04
  1232.5      1.05200E-04
  1237.5      1.04390E-04
  1242.5      1.03590E-04
  1247.5      1.02790E-04
  1252.5      1.01890E-04
  1257.5      1.01240E-04
  1262.5      1.00470E-04
  1267.5      9.97140E-05
  1272.5      9.89570E-05
  1277.5      9.69550E-05
  1282.5      9.19820E-05
  1287.5      9.62600E-05
  1292.5      9.60540E-05
  1297.5      9.49400E-05
  1302.5      9.46480E-05
  1307.5      9.39570E-05
  1312.5      9.32720E-05
  1317.5      9.25950E-05
  1322.5      9.19260E-05
  1327.5      9.12630E-05
  1332.5      9.06080E-05
  1337.5      8.99600E-05
  1342.5      8.92750E-05
  1347.5      8.86840E-05
  1352.5      8.80560E-05
  1357.5      8.74350E-05
  1362.5      8.68200E-05
  1367.5      8.62120E-05
  1372.5      8.56100E-05
  1377.5      8.50150E-05
  1382.5      8.44250E-05
  1387.5      8.38420E-05
  1392.5      8.32650E-05
  1397.5      8.26930E-05
