 Castelli and Kurucz 2004-2012 Atmosphere
 T     33000.     G    4.50000 [-2.0] N(He)/Ntot=0.0784 VTURB=2.0  L/H=1.25 ODF
 Wavelength  Eddington Hnu
   (nm)    (ergs/s/cm2/Hz/sr)
  9.0900      1.42630E-31
  9.3500      8.70230E-31
  9.6100      4.84360E-30
  9.7700      1.33510E-29
  9.9600      4.27920E-29
  10.200      1.75970E-28
  10.380      4.88600E-28
  10.560      1.31260E-27
  10.770      3.99950E-27
  11.040      1.58170E-26
  11.400      9.00450E-26
  11.780      5.08460E-25
  12.130      2.29180E-24
  12.480      9.55690E-24
  12.710      2.34780E-23
  12.840      3.85130E-23
  13.050      8.40360E-23
  13.240      1.66940E-22
  13.390      2.83390E-22
  13.660      7.15270E-22
  13.980      2.05290E-21
  14.330      6.18690E-21
  14.720      1.99650E-20
  15.100      5.91840E-20
  15.520      1.85560E-19
  15.880      4.72190E-19
  16.200      1.04810E-18
  16.600      2.72520E-18
  17.030      7.25200E-18
  17.340      1.42690E-17
  17.680      2.91900E-17
  18.020      5.81690E-17
  18.170      7.82130E-17
  18.610      1.81500E-16
  19.100      4.43390E-16
  19.390      7.36320E-16
  19.840      1.57160E-15
  20.180      2.72610E-15
  20.500      4.50310E-15
  21.050      1.02890E-14
  21.620      2.31860E-14
  21.980      3.78960E-14
  22.300      5.78570E-14
  22.680      9.40980E-14
  23.000      9.48320E-12
  23.400      6.33530E-11
  24.000      1.93360E-10
  24.650      5.02200E-10
  25.240      8.64190E-10
  25.680      6.54910E-10
  26.000      1.59630E-09
  26.400      2.27200E-09
  26.850      3.14020E-09
  27.350      4.01690E-09
  27.850      4.74940E-09
  28.400      6.86410E-09
  29.000      8.59540E-09
  29.600      9.75430E-09
  30.100      8.17750E-09
  30.800      1.20130E-08
  31.800      2.73930E-08
  32.800      3.96590E-08
  33.800      5.89550E-08
  34.800      8.48280E-08
  35.700      1.12090E-07
  36.600      1.53820E-07
  37.500      1.99380E-07
  38.500      2.74320E-07
  39.500      3.64950E-07
  40.500      4.76770E-07
  41.400      6.06060E-07
  42.200      7.32870E-07
  43.000      8.82460E-07
  44.100      1.13890E-06
  45.100      1.41530E-06
  46.000      1.69150E-06
  47.000      2.08810E-06
  48.000      2.52520E-06
  49.000      3.00350E-06
  50.000      3.62460E-06
  50.600      1.82250E-05
  51.200      5.95280E-05
  52.000      5.96950E-05
  53.000      6.27480E-05
  54.000      5.89540E-05
  55.000      6.62260E-05
  56.000      7.25980E-05
  57.000      7.60070E-05
  58.000      7.38950E-05
  59.000      8.07480E-05
  60.000      8.21200E-05
  61.000      8.57040E-05
  62.000      9.21770E-05
  63.000      9.57450E-05
  64.000      9.78840E-05
  65.000      1.02430E-04
  65.800      1.04230E-04
  66.500      1.07510E-04
  67.500      1.12100E-04
  68.500      1.12150E-04
  69.500      1.21450E-04
  70.500      1.22240E-04
  71.600      1.31070E-04
  72.600      1.35300E-04
  73.500      1.41040E-04
  74.500      1.44760E-04
  75.500      1.49380E-04
  76.500      1.53890E-04
  77.500      1.59570E-04
  78.500      1.66540E-04
  79.500      1.71110E-04
  80.500      1.75960E-04
  81.500      1.81530E-04
  82.500      1.88420E-04
  83.500      1.85990E-04
  84.500      1.99120E-04
  85.500      2.04730E-04
  86.500      2.11240E-04
  87.500      2.17070E-04
  88.500      2.23060E-04
  89.500      2.29110E-04
  90.500      2.33550E-04
  91.500      2.55050E-04
  92.500      8.20010E-04
  93.500      1.33330E-03
  94.500      2.10850E-03
  95.500      2.38150E-03
  96.500      2.91580E-03
  97.500      1.87720E-03
  98.500      2.93700E-03
  99.500      2.76910E-03
  100.50      2.94220E-03
  101.50      2.90770E-03
  102.50      1.94210E-03
  103.50      2.84940E-03
  104.50      2.97620E-03
  105.50      2.96560E-03
  106.50      2.87340E-03
  107.50      2.88270E-03
  108.50      2.72470E-03
  109.50      2.89680E-03
  110.50      2.84180E-03
  111.50      2.82780E-03
  112.50      2.73670E-03
  113.50      2.82460E-03
  114.50      2.79380E-03
  115.50      2.76990E-03
  116.50      2.76000E-03
  117.50      2.47600E-03
  118.50      2.69080E-03
  119.50      2.67680E-03
  120.50      2.59410E-03
  121.50      1.77550E-03
  122.50      2.58510E-03
  123.50      2.63470E-03
  124.50      2.59750E-03
  125.50      2.61820E-03
  126.50      2.60920E-03
  127.50      2.59470E-03
  128.50      2.58020E-03
  129.50      2.51320E-03
  130.50      2.51570E-03
  131.50      2.53030E-03
  132.50      2.50360E-03
  133.50      2.46200E-03
  134.50      2.47900E-03
  135.50      2.46180E-03
  136.50      2.44150E-03
  137.50      2.42390E-03
  138.50      2.40930E-03
  139.50      2.33380E-03
  140.50      2.32400E-03
  141.50      2.35740E-03
  142.50      2.32380E-03
  143.50      2.32660E-03
  144.20      2.31900E-03
  144.70      2.30980E-03
  145.50      2.29310E-03
  146.50      2.28030E-03
  147.50      2.26330E-03
  148.50      2.25420E-03
  149.50      2.23400E-03
  150.50      2.21970E-03
  151.20      2.21260E-03
  151.70      2.20220E-03
  152.50      2.18390E-03
  153.50      2.13650E-03
  154.50      2.08110E-03
  155.50      2.07470E-03
  156.50      2.09330E-03
  157.50      2.09820E-03
  158.50      2.09470E-03
  159.50      2.07990E-03
  160.50      2.03630E-03
  161.50      2.01890E-03
  162.50      2.00880E-03
  163.50      1.97910E-03
  164.50      1.90040E-03
  165.50      1.99310E-03
  166.50      1.98130E-03
  167.20      1.95900E-03
  167.70      1.98310E-03
  168.50      1.96760E-03
  169.50      1.95460E-03
  170.50      1.93770E-03
  171.50      1.90850E-03
  172.50      1.89860E-03
  173.50      1.91060E-03
  174.50      1.89490E-03
  175.50      1.87790E-03
  176.50      1.87050E-03
  177.50      1.86120E-03
  178.50      1.85090E-03
  179.50      1.83680E-03
  180.50      1.82780E-03
  181.50      1.81490E-03
  182.50      1.80200E-03
  183.50      1.79410E-03
  184.50      1.77700E-03
  185.50      1.75870E-03
  186.50      1.75000E-03
  187.50      1.74420E-03
  188.50      1.72900E-03
  189.50      1.71410E-03
  190.50      1.71330E-03
  191.50      1.69470E-03
  192.50      1.67650E-03
  193.50      1.67780E-03
  194.50      1.67230E-03
  195.50      1.65220E-03
  196.70      1.64860E-03
  197.60      1.64250E-03
  198.40      1.63060E-03
  199.50      1.61410E-03
  200.50      1.61250E-03
  201.50      1.60370E-03
  202.50      1.59440E-03
  203.50      1.58330E-03
  204.50      1.57350E-03
  205.50      1.35970E-03
  206.50      1.33030E-03
  207.40      1.34130E-03
  207.80      1.35030E-03
  208.50      1.39560E-03
  209.50      1.48120E-03
  210.50      1.51650E-03
  211.50      1.51270E-03
  212.50      1.50310E-03
  213.50      1.49320E-03
  214.50      1.48500E-03
  215.50      1.48550E-03
  216.50      1.46010E-03
  217.50      1.47300E-03
  218.50      1.44310E-03
  219.50      1.45530E-03
  220.50      1.44750E-03
  221.50      1.41550E-03
  222.50      1.43000E-03
  223.50      1.42150E-03
  224.50      1.41260E-03
  225.50      1.38230E-03
  226.50      1.39630E-03
  227.50      1.38810E-03
  228.50      1.37930E-03
  229.50      1.35350E-03
  230.50      1.34240E-03
  231.50      1.35510E-03
  232.50      1.34770E-03
  233.50      1.33980E-03
  234.50      1.33210E-03
  235.50      1.32440E-03
  236.50      1.31670E-03
  237.50      1.30890E-03
  238.50      1.28160E-03
  239.50      1.29300E-03
  240.50      1.28650E-03
  241.50      1.27910E-03
  242.50      1.27190E-03
  243.50      1.26450E-03
  244.50      1.25740E-03
  245.50      1.25020E-03
  246.50      1.24330E-03
  247.50      1.23630E-03
  248.50      1.22930E-03
  249.50      1.18900E-03
  250.50      1.21390E-03
  251.30      1.17130E-03
  251.80      1.20370E-03
  252.50      1.20220E-03
  253.50      1.19560E-03
  254.50      1.18860E-03
  255.50      1.18220E-03
  256.50      1.17590E-03
  257.50      1.16950E-03
  258.50      1.16310E-03
  259.50      1.15670E-03
  260.50      1.15410E-03
  261.50      1.14770E-03
  262.50      1.14160E-03
  263.50      1.13490E-03
  264.50      1.12840E-03
  265.50      1.12170E-03
  266.50      1.11430E-03
  267.50      1.10730E-03
  268.50      1.10530E-03
  269.50      1.09440E-03
  270.50      1.09350E-03
  271.50      1.08760E-03
  272.50      1.07620E-03
  273.50      1.06300E-03
  274.50      1.07060E-03
  275.50      1.06500E-03
  276.50      1.05300E-03
  277.50      1.05390E-03
  278.50      1.04840E-03
  279.50      1.04180E-03
  280.50      1.03730E-03
  281.50      1.03220E-03
  282.50      1.01950E-03
  283.50      1.01790E-03
  284.50      1.01640E-03
  285.50      1.01120E-03
  286.50      1.00600E-03
  287.50      1.00090E-03
  288.50      9.95910E-04
  289.50      9.90840E-04
  291.00      9.83310E-04
  293.00      9.73490E-04
  295.00      9.58490E-04
  297.00      9.54170E-04
  299.00      9.44610E-04
  301.00      9.35360E-04
  303.00      9.26170E-04
  305.00      9.17230E-04
  307.00      9.08480E-04
  309.00      8.99330E-04
  311.00      8.91020E-04
  313.00      8.82940E-04
  315.00      8.74490E-04
  317.00      8.66240E-04
  319.00      8.52260E-04
  321.00      8.45240E-04
  323.00      8.41850E-04
  325.00      8.33930E-04
  327.00      8.26690E-04
  329.00      8.18410E-04
  331.00      8.11760E-04
  333.00      8.04320E-04
  335.00      7.95950E-04
  337.00      7.89870E-04
  339.00      7.82850E-04
  341.00      7.75860E-04
  343.00      7.66560E-04
  345.00      7.57690E-04
  347.00      7.52700E-04
  349.00      7.46060E-04
  351.00      7.40330E-04
  353.00      7.34850E-04
  355.00      7.28270E-04
  357.00      7.25440E-04
  359.00      7.15000E-04
  361.00      7.10890E-04
  363.00      7.02810E-04
  364.00      7.02320E-04
  365.00      6.84950E-04
  367.00      6.81210E-04
  369.00      6.75660E-04
  371.00      6.63620E-04
  373.00      6.51040E-04
  375.00      6.55070E-04
  377.00      6.48880E-04
  379.00      6.70990E-04
  381.00      6.94500E-04
  383.00      6.31450E-04
  385.00      7.10430E-04
  387.00      7.18970E-04
  389.00      6.13390E-04
  391.00      7.14660E-04
  393.00      7.10260E-04
  395.00      7.04180E-04
  397.00      5.91410E-04
  399.00      6.89700E-04
  401.00      6.89060E-04
  403.00      6.62670E-04
  405.00      6.83760E-04
  407.00      6.75400E-04
  409.00      6.39120E-04
  411.00      5.80060E-04
  413.00      6.53730E-04
  415.00      6.51570E-04
  417.00      6.50340E-04
  419.00      6.45120E-04
  421.00      6.38440E-04
  423.00      6.35730E-04
  425.00      6.30540E-04
  427.00      6.25210E-04
  429.00      6.20400E-04
  431.00      6.12950E-04
  433.00      5.73270E-04
  435.00      5.36930E-04
  437.00      5.97800E-04
  439.00      5.84700E-04
  441.00      5.91920E-04
  443.00      5.86200E-04
  445.00      5.83130E-04
  447.00      5.60170E-04
  449.00      5.74040E-04
  451.00      5.69920E-04
  453.00      5.65530E-04
  455.00      5.58520E-04
  457.00      5.57130E-04
  459.00      5.52880E-04
  461.00      5.48820E-04
  463.00      5.44660E-04
  465.00      5.39240E-04
  467.00      5.36620E-04
  469.00      5.25900E-04
  471.00      5.24030E-04
  473.00      5.25080E-04
  475.00      5.21240E-04
  477.00      5.17520E-04
  479.00      5.13780E-04
  481.00      5.09890E-04
  483.00      5.04070E-04
  485.00      4.77510E-04
  487.00      4.39880E-04
  489.00      4.92160E-04
  491.00      4.91170E-04
  493.00      4.79650E-04
  495.00      4.85240E-04
  497.00      4.81930E-04
  499.00      4.78570E-04
  501.00      4.70930E-04
  503.00      4.71960E-04
  505.00      4.66880E-04
  507.00      4.65490E-04
  509.00      4.62300E-04
  511.00      4.59150E-04
  513.00      4.56030E-04
  515.00      4.52930E-04
  517.00      4.49870E-04
  519.00      4.46850E-04
  521.00      4.43850E-04
  523.00      4.40890E-04
  525.00      4.37950E-04
  527.00      4.35040E-04
  529.00      4.32160E-04
  531.00      4.29310E-04
  533.00      4.26480E-04
  535.00      4.23690E-04
  537.00      4.20920E-04
  539.00      4.18170E-04
  541.00      4.13580E-04
  543.00      4.12770E-04
  545.00      4.10100E-04
  547.00      4.07470E-04
  549.00      4.04850E-04
  551.00      4.02260E-04
  553.00      3.99700E-04
  555.00      3.97160E-04
  557.00      3.94640E-04
  559.00      3.92140E-04
  561.00      3.89680E-04
  563.00      3.87240E-04
  565.00      3.84820E-04
  567.00      3.82410E-04
  569.00      3.79390E-04
  571.00      3.74900E-04
  573.00      3.72630E-04
  575.00      3.70370E-04
  577.00      3.68160E-04
  579.00      3.65960E-04
  581.00      3.63770E-04
  583.00      3.61620E-04
  585.00      3.59570E-04
  587.00      3.49250E-04
  589.00      3.55150E-04
  591.00      3.53740E-04
  593.00      3.51880E-04
  595.00      3.50030E-04
  597.00      3.48210E-04
  599.00      3.46870E-04
  601.00      3.44870E-04
  603.00      3.42840E-04
  605.00      3.40820E-04
  607.00      3.38820E-04
  609.00      3.36840E-04
  611.00      3.34880E-04
  613.00      3.32930E-04
  615.00      3.30990E-04
  617.00      3.29080E-04
  619.00      3.27190E-04
  621.00      3.25300E-04
  623.00      3.23440E-04
  625.00      3.21590E-04
  627.00      3.19760E-04
  629.00      3.17940E-04
  631.00      3.16130E-04
  633.00      3.14350E-04
  635.00      3.12580E-04
  637.00      3.10820E-04
  639.00      3.09080E-04
  641.00      3.07340E-04
  643.00      3.05630E-04
  645.00      3.03930E-04
  647.00      3.02240E-04
  649.00      3.00570E-04
  651.00      2.98910E-04
  653.00      2.96090E-04
  655.00      2.87520E-04
  657.00      2.63050E-04
  659.00      2.90390E-04
  661.00      2.90630E-04
  663.00      2.89250E-04
  665.00      2.87790E-04
  667.00      2.83890E-04
  669.00      2.82210E-04
  671.00      2.83160E-04
  673.00      2.81640E-04
  675.00      2.80140E-04
  677.00      2.78650E-04
  679.00      2.77170E-04
  681.00      2.75700E-04
  683.00      2.74250E-04
  685.00      2.72800E-04
  687.00      2.71370E-04
  689.00      2.69820E-04
  691.00      2.68530E-04
  693.00      2.67130E-04
  695.00      2.65740E-04
  697.00      2.64370E-04
  699.00      2.63000E-04
  701.00      2.61640E-04
  703.00      2.60290E-04
  705.00      2.58960E-04
  707.00      2.54430E-04
  709.00      2.56310E-04
  711.00      2.55010E-04
  713.00      2.53710E-04
  715.00      2.52430E-04
  717.00      2.51010E-04
  719.00      2.49840E-04
  721.00      2.48630E-04
  723.00      2.47330E-04
  725.00      2.46140E-04
  727.00      2.44910E-04
  729.00      2.42120E-04
  731.00      2.42460E-04
  733.00      2.41280E-04
  735.00      2.40090E-04
  737.00      2.38900E-04
  739.00      2.37730E-04
  741.00      2.36560E-04
  743.00      2.35400E-04
  745.00      2.34270E-04
  747.00      2.33130E-04
  749.00      2.32000E-04
  751.00      2.30820E-04
  753.00      2.29760E-04
  755.00      2.28650E-04
  757.00      2.27550E-04
  759.00      2.26290E-04
  761.00      2.25370E-04
  763.00      2.24290E-04
  765.00      2.23230E-04
  767.00      2.22160E-04
  769.00      2.21110E-04
  771.00      2.20060E-04
  773.00      2.19020E-04
  775.00      2.17990E-04
  777.00      2.16960E-04
  779.00      2.15950E-04
  781.00      2.14860E-04
  783.00      2.13930E-04
  785.00      2.13080E-04
  787.00      2.12080E-04
  789.00      2.11060E-04
  791.00      2.10130E-04
  793.00      2.09150E-04
  795.00      2.08190E-04
  797.00      2.07140E-04
  799.00      2.06280E-04
  801.00      2.05340E-04
  803.00      2.04370E-04
  805.00      2.03390E-04
  807.00      2.02470E-04
  809.00      2.01340E-04
  811.00      2.00500E-04
  813.00      1.99730E-04
  815.00      1.98630E-04
  817.00      1.97940E-04
  819.00      1.96830E-04
  821.00      1.95170E-04
  823.00      1.94420E-04
  825.00      1.93780E-04
  827.00      1.92400E-04
  829.00      1.92060E-04
  831.00      1.91270E-04
  833.00      1.90360E-04
  835.00      1.88920E-04
  837.00      1.88520E-04
  839.00      1.87880E-04
  841.00      1.87070E-04
  843.00      1.86160E-04
  845.00      1.84510E-04
  847.00      1.84550E-04
  849.00      1.83470E-04
  851.00      1.82810E-04
  853.00      1.81800E-04
  855.00      1.80560E-04
  857.00      1.81180E-04
  859.00      1.77450E-04
  861.00      1.77820E-04
  863.00      1.79610E-04
  865.00      1.76600E-04
  867.00      1.72010E-04
  869.00      1.77310E-04
  871.00      1.77960E-04
  873.00      1.74430E-04
  875.00      1.65440E-04
  877.00      1.71420E-04
  879.00      1.75520E-04
  881.00      1.75380E-04
  883.00      1.73940E-04
  885.00      1.66140E-04
  887.00      1.58790E-04
  889.00      1.70220E-04
  891.00      1.71920E-04
  893.00      1.71570E-04
  895.00      1.71170E-04
  897.00      1.70080E-04
  899.00      1.66370E-04
  901.00      1.53370E-04
  903.00      1.58600E-04
  905.00      1.66120E-04
  907.00      1.65550E-04
  909.00      1.66130E-04
  911.00      1.66090E-04
  913.00      1.65500E-04
  915.00      1.64790E-04
  917.00      1.63400E-04
  919.00      1.62270E-04
  921.00      1.56530E-04
  923.00      1.43140E-04
  925.00      1.55290E-04
  927.00      1.59470E-04
  929.00      1.59700E-04
  931.00      1.58900E-04
  933.00      1.58900E-04
  935.00      1.57820E-04
  937.00      1.57650E-04
  939.00      1.57020E-04
  941.00      1.56390E-04
  943.00      1.55770E-04
  945.00      1.55150E-04
  947.00      1.53710E-04
  949.00      1.53430E-04
  951.00      1.50990E-04
  953.00      1.45510E-04
  955.00      1.33720E-04
  957.00      1.46950E-04
  959.00      1.49820E-04
  961.00      1.49670E-04
  963.00      1.49090E-04
  965.00      1.49160E-04
  967.00      1.48590E-04
  969.00      1.47920E-04
  971.00      1.47090E-04
  973.00      1.46870E-04
  975.00      1.46300E-04
  977.00      1.45740E-04
  979.00      1.45180E-04
  981.00      1.44620E-04
  983.00      1.44070E-04
  985.00      1.43520E-04
  987.00      1.42970E-04
  989.00      1.42430E-04
  991.00      1.41870E-04
  993.00      1.41350E-04
  995.00      1.40820E-04
  997.00      1.40280E-04
  999.00      1.39360E-04
  1002.5      1.33590E-04
  1007.5      1.30910E-04
  1012.5      1.35410E-04
  1017.5      1.35010E-04
  1022.5      1.33730E-04
  1027.5      1.32540E-04
  1032.5      1.30900E-04
  1037.5      1.30140E-04
  1042.5      1.28960E-04
  1047.5      1.27800E-04
  1052.5      1.26660E-04
  1057.5      1.25530E-04
  1062.5      1.24410E-04
  1067.5      1.23140E-04
  1072.5      1.22230E-04
  1077.5      1.21160E-04
  1082.5      1.19150E-04
  1087.5      1.18680E-04
  1092.5      1.10030E-04
  1097.5      1.14580E-04
  1102.5      1.15390E-04
  1107.5      1.14940E-04
  1112.5      1.14040E-04
  1117.5      1.13070E-04
  1122.5      1.12080E-04
  1127.5      1.11180E-04
  1132.5      1.10250E-04
  1137.5      1.09330E-04
  1142.5      1.08420E-04
  1147.5      1.07530E-04
  1152.5      1.06640E-04
  1157.5      1.05770E-04
  1162.5      1.04830E-04
  1167.5      1.04050E-04
  1172.5      1.03210E-04
  1177.5      1.02380E-04
  1182.5      1.01560E-04
  1187.5      1.00750E-04
  1192.5      9.99430E-05
  1197.5      9.83000E-05
  1202.5      9.83670E-05
  1207.5      9.75930E-05
  1212.5      9.68280E-05
  1217.5      9.60710E-05
  1222.5      9.53240E-05
  1227.5      9.45850E-05
  1232.5      9.38550E-05
  1237.5      9.31330E-05
  1242.5      9.24190E-05
  1247.5      9.17140E-05
  1252.5      9.08730E-05
  1257.5      9.03270E-05
  1262.5      8.96450E-05
  1267.5      8.89710E-05
  1272.5      8.82500E-05
  1277.5      8.62560E-05
  1282.5      8.11150E-05
  1287.5      8.57750E-05
  1292.5      8.57050E-05
  1297.5      8.45990E-05
  1302.5      8.44590E-05
  1307.5      8.38430E-05
  1312.5      8.32330E-05
  1317.5      8.26300E-05
  1322.5      8.20330E-05
  1327.5      8.14430E-05
  1332.5      8.08590E-05
  1337.5      8.02810E-05
  1342.5      7.96590E-05
  1347.5      7.91440E-05
  1352.5      7.85850E-05
  1357.5      7.80310E-05
  1362.5      7.74830E-05
  1367.5      7.69410E-05
  1372.5      7.64050E-05
  1377.5      7.58740E-05
  1382.5      7.53490E-05
  1387.5      7.48290E-05
  1392.5      7.43140E-05
  1397.5      7.38050E-05
