 Castelli and Kurucz 2004-2012 Atmosphere
 T     33000.     G    5.00000 [-2.0] N(He)/Ntot=0.0784 VTURB=2.0  L/H=1.25 ODF
 Wavelength  Eddington Hnu
   (nm)    (ergs/s/cm2/Hz/sr)
  9.0900      1.00380E-31
  9.3500      6.31330E-31
  9.6100      3.61520E-30
  9.7700      1.01260E-29
  9.9600      3.30210E-29
  10.200      1.38450E-28
  10.380      3.89620E-28
  10.560      1.06040E-27
  10.770      3.27610E-27
  11.040      1.31590E-26
  11.400      7.62600E-26
  11.780      4.36880E-25
  12.130      1.98950E-24
  12.480      8.35700E-24
  12.710      2.06020E-23
  12.840      3.38510E-23
  13.050      7.40210E-23
  13.240      1.47230E-22
  13.390      2.50050E-22
  13.660      6.31390E-22
  13.980      1.81180E-21
  14.330      5.45050E-21
  14.720      1.75390E-20
  15.100      5.18460E-20
  15.520      1.61820E-19
  15.880      4.10110E-19
  16.200      9.07220E-19
  16.600      2.34680E-18
  17.030      6.21780E-18
  17.340      1.21890E-17
  17.680      2.48420E-17
  18.020      4.93170E-17
  18.170      6.62140E-17
  18.610      1.53040E-16
  19.100      3.72030E-16
  19.390      6.16730E-16
  19.840      1.31200E-15
  20.180      2.27010E-15
  20.500      3.74070E-15
  21.050      8.52550E-15
  21.620      1.91530E-14
  21.980      3.12530E-14
  22.300      4.76570E-14
  22.680      7.74500E-14
  23.000      5.58960E-12
  23.400      3.77010E-11
  24.000      1.02120E-10
  24.650      2.25530E-10
  25.240      3.67520E-10
  25.680      3.24550E-10
  26.000      6.22380E-10
  26.400      7.91180E-10
  26.850      1.04780E-09
  27.350      1.36520E-09
  27.850      1.72050E-09
  28.400      2.41820E-09
  29.000      3.22390E-09
  29.600      4.14270E-09
  30.100      4.39440E-09
  30.800      5.84240E-09
  31.800      1.19480E-08
  32.800      1.80970E-08
  33.800      2.77590E-08
  34.800      4.10880E-08
  35.700      5.64510E-08
  36.600      7.89590E-08
  37.500      1.04830E-07
  38.500      1.47050E-07
  39.500      1.99490E-07
  40.500      2.65760E-07
  41.400      3.43060E-07
  42.200      4.21080E-07
  43.000      5.14280E-07
  44.100      6.73790E-07
  45.100      8.50860E-07
  46.000      1.03030E-06
  47.000      1.28590E-06
  48.000      1.57340E-06
  49.000      1.90030E-06
  50.000      2.30790E-06
  50.600      1.03000E-05
  51.200      3.99570E-05
  52.000      4.07690E-05
  53.000      4.45230E-05
  54.000      4.17200E-05
  55.000      4.77600E-05
  56.000      5.13910E-05
  57.000      5.41420E-05
  58.000      5.26810E-05
  59.000      5.81220E-05
  60.000      5.97760E-05
  61.000      6.26310E-05
  62.000      6.66040E-05
  63.000      6.97610E-05
  64.000      7.14300E-05
  65.000      7.53970E-05
  65.800      7.72860E-05
  66.500      7.97400E-05
  67.500      8.29190E-05
  68.500      8.38140E-05
  69.500      9.10740E-05
  70.500      9.22730E-05
  71.600      9.87710E-05
  72.600      1.02380E-04
  73.500      1.07090E-04
  74.500      1.10700E-04
  75.500      1.14680E-04
  76.500      1.18760E-04
  77.500      1.23560E-04
  78.500      1.29260E-04
  79.500      1.33180E-04
  80.500      1.37690E-04
  81.500      1.42310E-04
  82.500      1.47990E-04
  83.500      1.47120E-04
  84.500      1.57430E-04
  85.500      1.62220E-04
  86.500      1.67760E-04
  87.500      1.72990E-04
  88.500      1.78250E-04
  89.500      1.83530E-04
  90.500      1.87600E-04
  91.500      1.96960E-04
  92.500      5.84530E-04
  93.500      1.04090E-03
  94.500      1.91690E-03
  95.500      2.29380E-03
  96.500      3.00920E-03
  97.500      1.70800E-03
  98.500      3.19300E-03
  99.500      2.97410E-03
  100.50      3.22640E-03
  101.50      3.10760E-03
  102.50      1.68290E-03
  103.50      3.00410E-03
  104.50      3.23300E-03
  105.50      3.22170E-03
  106.50      3.10870E-03
  107.50      3.11990E-03
  108.50      2.89080E-03
  109.50      3.12410E-03
  110.50      3.05730E-03
  111.50      3.03940E-03
  112.50      2.93500E-03
  113.50      3.02450E-03
  114.50      2.97900E-03
  115.50      2.95790E-03
  116.50      2.94150E-03
  117.50      2.63340E-03
  118.50      2.85920E-03
  119.50      2.82690E-03
  120.50      2.68120E-03
  121.50      1.53580E-03
  122.50      2.64430E-03
  123.50      2.76650E-03
  124.50      2.72980E-03
  125.50      2.75000E-03
  126.50      2.73640E-03
  127.50      2.71770E-03
  128.50      2.69810E-03
  129.50      2.61820E-03
  130.50      2.61920E-03
  131.50      2.63510E-03
  132.50      2.60130E-03
  133.50      2.55410E-03
  134.50      2.57040E-03
  135.50      2.55220E-03
  136.50      2.52780E-03
  137.50      2.50820E-03
  138.50      2.48850E-03
  139.50      2.40510E-03
  140.50      2.39630E-03
  141.50      2.42600E-03
  142.50      2.39320E-03
  143.50      2.39000E-03
  144.20      2.38110E-03
  144.70      2.37030E-03
  145.50      2.35280E-03
  146.50      2.33600E-03
  147.50      2.31620E-03
  148.50      2.30330E-03
  149.50      2.28230E-03
  150.50      2.26210E-03
  151.20      2.25290E-03
  151.70      2.24260E-03
  152.50      2.22360E-03
  153.50      2.17710E-03
  154.50      2.12300E-03
  155.50      2.11350E-03
  156.50      2.13070E-03
  157.50      2.12940E-03
  158.50      2.12270E-03
  159.50      2.10620E-03
  160.50      2.06540E-03
  161.50      2.04570E-03
  162.50      2.03630E-03
  163.50      2.00140E-03
  164.50      1.92130E-03
  165.50      2.01100E-03
  166.50      1.99840E-03
  167.20      1.97820E-03
  167.70      1.99420E-03
  168.50      1.97840E-03
  169.50      1.96350E-03
  170.50      1.94560E-03
  171.50      1.91810E-03
  172.50      1.90550E-03
  173.50      1.91220E-03
  174.50      1.89580E-03
  175.50      1.87920E-03
  176.50      1.86740E-03
  177.50      1.85710E-03
  178.50      1.84630E-03
  179.50      1.83240E-03
  180.50      1.82190E-03
  181.50      1.80760E-03
  182.50      1.79440E-03
  183.50      1.78430E-03
  184.50      1.76510E-03
  185.50      1.74410E-03
  186.50      1.73640E-03
  187.50      1.73160E-03
  188.50      1.71330E-03
  189.50      1.69470E-03
  190.50      1.69590E-03
  191.50      1.67420E-03
  192.50      1.65700E-03
  193.50      1.65720E-03
  194.50      1.65260E-03
  195.50      1.62960E-03
  196.70      1.62750E-03
  197.60      1.62180E-03
  198.40      1.60820E-03
  199.50      1.58940E-03
  200.50      1.58970E-03
  201.50      1.58100E-03
  202.50      1.57160E-03
  203.50      1.55930E-03
  204.50      1.54910E-03
  205.50      1.38040E-03
  206.50      1.35400E-03
  207.40      1.35760E-03
  207.80      1.35400E-03
  208.50      1.37760E-03
  209.50      1.42500E-03
  210.50      1.47930E-03
  211.50      1.48390E-03
  212.50      1.47580E-03
  213.50      1.46560E-03
  214.50      1.45620E-03
  215.50      1.45130E-03
  216.50      1.43300E-03
  217.50      1.43800E-03
  218.50      1.41450E-03
  219.50      1.41980E-03
  220.50      1.41210E-03
  221.50      1.38570E-03
  222.50      1.39430E-03
  223.50      1.38590E-03
  224.50      1.37690E-03
  225.50      1.35060E-03
  226.50      1.36050E-03
  227.50      1.35220E-03
  228.50      1.34340E-03
  229.50      1.31880E-03
  230.50      1.30950E-03
  231.50      1.31880E-03
  232.50      1.31130E-03
  233.50      1.30330E-03
  234.50      1.29560E-03
  235.50      1.28790E-03
  236.50      1.28020E-03
  237.50      1.27240E-03
  238.50      1.24820E-03
  239.50      1.25680E-03
  240.50      1.25000E-03
  241.50      1.24260E-03
  242.50      1.23540E-03
  243.50      1.22800E-03
  244.50      1.22090E-03
  245.50      1.21380E-03
  246.50      1.20680E-03
  247.50      1.19980E-03
  248.50      1.19290E-03
  249.50      1.15870E-03
  250.50      1.17750E-03
  251.30      1.14170E-03
  251.80      1.16820E-03
  252.50      1.16590E-03
  253.50      1.15930E-03
  254.50      1.15220E-03
  255.50      1.14600E-03
  256.50      1.13980E-03
  257.50      1.13340E-03
  258.50      1.12720E-03
  259.50      1.12090E-03
  260.50      1.11880E-03
  261.50      1.11260E-03
  262.50      1.10640E-03
  263.50      1.10010E-03
  264.50      1.09370E-03
  265.50      1.08700E-03
  266.50      1.07960E-03
  267.50      1.07210E-03
  268.50      1.07060E-03
  269.50      1.05890E-03
  270.50      1.05890E-03
  271.50      1.05310E-03
  272.50      1.04070E-03
  273.50      1.03140E-03
  274.50      1.03630E-03
  275.50      1.03080E-03
  276.50      1.01770E-03
  277.50      1.02000E-03
  278.50      1.01450E-03
  279.50      1.00780E-03
  280.50      1.00360E-03
  281.50      9.98660E-04
  282.50      9.84620E-04
  283.50      9.82780E-04
  284.50      9.83130E-04
  285.50      9.77970E-04
  286.50      9.72900E-04
  287.50      9.67910E-04
  288.50      9.62980E-04
  289.50      9.58030E-04
  291.00      9.50650E-04
  293.00      9.41040E-04
  295.00      9.24920E-04
  297.00      9.22180E-04
  299.00      9.12900E-04
  301.00      9.03820E-04
  303.00      8.94940E-04
  305.00      8.86180E-04
  307.00      8.77590E-04
  309.00      8.68660E-04
  311.00      8.60600E-04
  313.00      8.52780E-04
  315.00      8.44580E-04
  317.00      8.36560E-04
  319.00      8.21590E-04
  321.00      8.17270E-04
  323.00      8.12690E-04
  325.00      8.05000E-04
  327.00      7.98150E-04
  329.00      7.89880E-04
  331.00      7.83580E-04
  333.00      7.76360E-04
  335.00      7.68120E-04
  337.00      7.62350E-04
  339.00      7.55530E-04
  341.00      7.48760E-04
  343.00      7.39460E-04
  345.00      7.30630E-04
  347.00      7.25960E-04
  349.00      7.19620E-04
  351.00      7.13830E-04
  353.00      7.08050E-04
  355.00      7.02130E-04
  357.00      7.00170E-04
  359.00      6.88900E-04
  361.00      6.85960E-04
  363.00      6.77250E-04
  364.00      6.78870E-04
  365.00      6.66580E-04
  367.00      6.63190E-04
  369.00      6.58200E-04
  371.00      6.45450E-04
  373.00      6.35660E-04
  375.00      6.30440E-04
  377.00      6.16760E-04
  379.00      6.34150E-04
  381.00      6.58290E-04
  383.00      5.92690E-04
  385.00      6.79200E-04
  387.00      6.94880E-04
  389.00      5.71730E-04
  391.00      6.92340E-04
  393.00      6.94710E-04
  395.00      6.83130E-04
  397.00      5.51000E-04
  399.00      6.66760E-04
  401.00      6.72870E-04
  403.00      6.40270E-04
  405.00      6.69150E-04
  407.00      6.60070E-04
  409.00      6.09500E-04
  411.00      5.46210E-04
  413.00      6.36520E-04
  415.00      6.36890E-04
  417.00      6.37780E-04
  419.00      6.32890E-04
  421.00      6.27280E-04
  423.00      6.23520E-04
  425.00      6.18330E-04
  427.00      6.12850E-04
  429.00      6.06960E-04
  431.00      5.98040E-04
  433.00      5.44910E-04
  435.00      5.07330E-04
  437.00      5.82090E-04
  439.00      5.67880E-04
  441.00      5.79490E-04
  443.00      5.73910E-04
  445.00      5.71050E-04
  447.00      5.41150E-04
  449.00      5.61720E-04
  451.00      5.58180E-04
  453.00      5.53840E-04
  455.00      5.47910E-04
  457.00      5.45500E-04
  459.00      5.41300E-04
  461.00      5.37270E-04
  463.00      5.33220E-04
  465.00      5.28120E-04
  467.00      5.25240E-04
  469.00      5.16300E-04
  471.00      5.11710E-04
  473.00      5.13820E-04
  475.00      5.10020E-04
  477.00      5.06360E-04
  479.00      5.02670E-04
  481.00      4.97680E-04
  483.00      4.90760E-04
  485.00      4.54830E-04
  487.00      4.15530E-04
  489.00      4.77960E-04
  491.00      4.78860E-04
  493.00      4.65460E-04
  495.00      4.74440E-04
  497.00      4.71230E-04
  499.00      4.67920E-04
  501.00      4.59400E-04
  503.00      4.61400E-04
  505.00      4.56010E-04
  507.00      4.55030E-04
  509.00      4.51890E-04
  511.00      4.48780E-04
  513.00      4.45700E-04
  515.00      4.42650E-04
  517.00      4.39640E-04
  519.00      4.36670E-04
  521.00      4.33720E-04
  523.00      4.30800E-04
  525.00      4.27900E-04
  527.00      4.25040E-04
  529.00      4.22210E-04
  531.00      4.19410E-04
  533.00      4.16630E-04
  535.00      4.13880E-04
  537.00      4.11160E-04
  539.00      4.08460E-04
  541.00      4.04610E-04
  543.00      4.03150E-04
  545.00      4.00530E-04
  547.00      3.97940E-04
  549.00      3.95370E-04
  551.00      3.92830E-04
  553.00      3.90310E-04
  555.00      3.87820E-04
  557.00      3.85350E-04
  559.00      3.82900E-04
  561.00      3.80480E-04
  563.00      3.78080E-04
  565.00      3.75700E-04
  567.00      3.73330E-04
  569.00      3.70690E-04
  571.00      3.67480E-04
  573.00      3.65230E-04
  575.00      3.62970E-04
  577.00      3.60780E-04
  579.00      3.58580E-04
  581.00      3.56400E-04
  583.00      3.54230E-04
  585.00      3.52050E-04
  587.00      3.39750E-04
  589.00      3.47060E-04
  591.00      3.45920E-04
  593.00      3.44080E-04
  595.00      3.42510E-04
  597.00      3.40530E-04
  599.00      3.38500E-04
  601.00      3.36490E-04
  603.00      3.34490E-04
  605.00      3.32520E-04
  607.00      3.30560E-04
  609.00      3.28620E-04
  611.00      3.26690E-04
  613.00      3.24790E-04
  615.00      3.22890E-04
  617.00      3.21020E-04
  619.00      3.19160E-04
  621.00      3.17320E-04
  623.00      3.15490E-04
  625.00      3.13680E-04
  627.00      3.11890E-04
  629.00      3.10110E-04
  631.00      3.08340E-04
  633.00      3.06590E-04
  635.00      3.04860E-04
  637.00      3.03140E-04
  639.00      3.01430E-04
  641.00      2.99740E-04
  643.00      2.98060E-04
  645.00      2.96400E-04
  647.00      2.94740E-04
  649.00      2.93100E-04
  651.00      2.91060E-04
  653.00      2.88030E-04
  655.00      2.76050E-04
  657.00      2.50110E-04
  659.00      2.81520E-04
  661.00      2.82690E-04
  663.00      2.82020E-04
  665.00      2.80610E-04
  667.00      2.76150E-04
  669.00      2.74660E-04
  671.00      2.76090E-04
  673.00      2.74600E-04
  675.00      2.73140E-04
  677.00      2.71680E-04
  679.00      2.70230E-04
  681.00      2.68790E-04
  683.00      2.67370E-04
  685.00      2.65960E-04
  687.00      2.64550E-04
  689.00      2.63160E-04
  691.00      2.61780E-04
  693.00      2.60410E-04
  695.00      2.59060E-04
  697.00      2.57710E-04
  699.00      2.56370E-04
  701.00      2.55050E-04
  703.00      2.53730E-04
  705.00      2.52420E-04
  707.00      2.47570E-04
  709.00      2.49840E-04
  711.00      2.48570E-04
  713.00      2.47300E-04
  715.00      2.46040E-04
  717.00      2.44770E-04
  719.00      2.43560E-04
  721.00      2.42330E-04
  723.00      2.41050E-04
  725.00      2.39900E-04
  727.00      2.38700E-04
  729.00      2.35770E-04
  731.00      2.36310E-04
  733.00      2.35150E-04
  735.00      2.33990E-04
  737.00      2.32830E-04
  739.00      2.31680E-04
  741.00      2.30540E-04
  743.00      2.29410E-04
  745.00      2.28310E-04
  747.00      2.27190E-04
  749.00      2.26090E-04
  751.00      2.24940E-04
  753.00      2.23900E-04
  755.00      2.22820E-04
  757.00      2.21740E-04
  759.00      2.20670E-04
  761.00      2.19610E-04
  763.00      2.18560E-04
  765.00      2.17520E-04
  767.00      2.16480E-04
  769.00      2.15450E-04
  771.00      2.14430E-04
  773.00      2.13410E-04
  775.00      2.12410E-04
  777.00      2.11410E-04
  779.00      2.10410E-04
  781.00      2.09350E-04
  783.00      2.08450E-04
  785.00      2.07620E-04
  787.00      2.06650E-04
  789.00      2.05660E-04
  791.00      2.04740E-04
  793.00      2.03790E-04
  795.00      2.02850E-04
  797.00      2.01830E-04
  799.00      2.00990E-04
  801.00      2.00070E-04
  803.00      1.99150E-04
  805.00      1.98170E-04
  807.00      1.97270E-04
  809.00      1.96130E-04
  811.00      1.95350E-04
  813.00      1.94550E-04
  815.00      1.93520E-04
  817.00      1.92800E-04
  819.00      1.91700E-04
  821.00      1.90370E-04
  823.00      1.89740E-04
  825.00      1.89010E-04
  827.00      1.87650E-04
  829.00      1.87340E-04
  831.00      1.86580E-04
  833.00      1.85660E-04
  835.00      1.84260E-04
  837.00      1.83890E-04
  839.00      1.83280E-04
  841.00      1.82490E-04
  843.00      1.81610E-04
  845.00      1.79940E-04
  847.00      1.80070E-04
  849.00      1.79020E-04
  851.00      1.78470E-04
  853.00      1.77310E-04
  855.00      1.76570E-04
  857.00      1.76350E-04
  859.00      1.73260E-04
  861.00      1.73900E-04
  863.00      1.74610E-04
  865.00      1.71930E-04
  867.00      1.69160E-04
  869.00      1.72290E-04
  871.00      1.72720E-04
  873.00      1.69220E-04
  875.00      1.62740E-04
  877.00      1.66410E-04
  879.00      1.70200E-04
  881.00      1.70310E-04
  883.00      1.68570E-04
  885.00      1.60730E-04
  887.00      1.55020E-04
  889.00      1.64650E-04
  891.00      1.66990E-04
  893.00      1.66970E-04
  895.00      1.66610E-04
  897.00      1.65230E-04
  899.00      1.60700E-04
  901.00      1.48440E-04
  903.00      1.52820E-04
  905.00      1.60780E-04
  907.00      1.60780E-04
  909.00      1.61820E-04
  911.00      1.61760E-04
  913.00      1.61190E-04
  915.00      1.60410E-04
  917.00      1.59070E-04
  919.00      1.57420E-04
  921.00      1.50600E-04
  923.00      1.37850E-04
  925.00      1.49180E-04
  927.00      1.54600E-04
  929.00      1.55450E-04
  931.00      1.54770E-04
  933.00      1.55030E-04
  935.00      1.54170E-04
  937.00      1.53920E-04
  939.00      1.53300E-04
  941.00      1.52690E-04
  943.00      1.52080E-04
  945.00      1.51310E-04
  947.00      1.49600E-04
  949.00      1.49330E-04
  951.00      1.46270E-04
  953.00      1.39580E-04
  955.00      1.28140E-04
  957.00      1.41180E-04
  959.00      1.45330E-04
  961.00      1.45700E-04
  963.00      1.45150E-04
  965.00      1.45590E-04
  967.00      1.45050E-04
  969.00      1.44380E-04
  971.00      1.43550E-04
  973.00      1.43370E-04
  975.00      1.42820E-04
  977.00      1.42270E-04
  979.00      1.41720E-04
  981.00      1.41180E-04
  983.00      1.40640E-04
  985.00      1.40100E-04
  987.00      1.39560E-04
  989.00      1.39030E-04
  991.00      1.38480E-04
  993.00      1.37970E-04
  995.00      1.37400E-04
  997.00      1.36550E-04
  999.00      1.35660E-04
  1002.5      1.28700E-04
  1007.5      1.25990E-04
  1012.5      1.31960E-04
  1017.5      1.31770E-04
  1022.5      1.30510E-04
  1027.5      1.29360E-04
  1032.5      1.27660E-04
  1037.5      1.27010E-04
  1042.5      1.25860E-04
  1047.5      1.24720E-04
  1052.5      1.23600E-04
  1057.5      1.22500E-04
  1062.5      1.21410E-04
  1067.5      1.20130E-04
  1072.5      1.19270E-04
  1077.5      1.18220E-04
  1082.5      1.16090E-04
  1087.5      1.15400E-04
  1092.5      1.05600E-04
  1097.5      1.10570E-04
  1102.5      1.12310E-04
  1107.5      1.12050E-04
  1112.5      1.11260E-04
  1117.5      1.10320E-04
  1122.5      1.09340E-04
  1127.5      1.08470E-04
  1132.5      1.07560E-04
  1137.5      1.06660E-04
  1142.5      1.05770E-04
  1147.5      1.04900E-04
  1152.5      1.04040E-04
  1157.5      1.03180E-04
  1162.5      1.02310E-04
  1167.5      1.01500E-04
  1172.5      1.00680E-04
  1177.5      9.98700E-05
  1182.5      9.90670E-05
  1187.5      9.82730E-05
  1192.5      9.74880E-05
  1197.5      9.55970E-05
  1202.5      9.59480E-05
  1207.5      9.51920E-05
  1212.5      9.44450E-05
  1217.5      9.37060E-05
  1222.5      9.29750E-05
  1227.5      9.22540E-05
  1232.5      9.15400E-05
  1237.5      9.08350E-05
  1242.5      9.01380E-05
  1247.5      8.94490E-05
  1252.5      8.85940E-05
  1257.5      8.80940E-05
  1262.5      8.74270E-05
  1267.5      8.67680E-05
  1272.5      8.59110E-05
  1277.5      8.35600E-05
  1282.5      7.77490E-05
  1287.5      8.32300E-05
  1292.5      8.34320E-05
  1297.5      8.23450E-05
  1302.5      8.23610E-05
  1307.5      8.17590E-05
  1312.5      8.11640E-05
  1317.5      8.05740E-05
  1322.5      7.99920E-05
  1327.5      7.94150E-05
  1332.5      7.88450E-05
  1337.5      7.82810E-05
  1342.5      7.76680E-05
  1347.5      7.71700E-05
  1352.5      7.66240E-05
  1357.5      7.60830E-05
  1362.5      7.55480E-05
  1367.5      7.50190E-05
  1372.5      7.44950E-05
  1377.5      7.39770E-05
  1382.5      7.34640E-05
  1387.5      7.29570E-05
  1392.5      7.24540E-05
  1397.5      7.19570E-05
