 Castelli and Kurucz 2004-2012 Atmosphere
 T     34000.     G    4.00000 [-2.0] N(He)/Ntot=0.0784 VTURB=2.0  L/H=1.25 ODF
 Wavelength  Eddington Hnu
   (nm)    (ergs/s/cm2/Hz/sr)
  9.0900      1.38560E-29
  9.3500      7.41380E-29
  9.6100      3.65840E-28
  9.7700      9.41510E-28
  9.9600      2.79710E-27
  10.200      1.04990E-26
  10.380      2.73450E-26
  10.560      6.91880E-26
  10.770      1.97520E-25
  11.040      7.22340E-25
  11.400      3.73890E-24
  11.780      1.92620E-23
  12.130      8.03480E-23
  12.480      3.11640E-22
  12.710      7.31880E-22
  12.840      1.17090E-21
  13.050      2.45580E-21
  13.240      4.71410E-21
  13.390      7.79260E-21
  13.660      1.87750E-20
  13.980      5.10560E-20
  14.330      1.45320E-19
  14.720      4.41310E-19
  15.100      1.23430E-18
  15.520      3.63850E-18
  15.880      8.80090E-18
  16.200      1.86620E-17
  16.600      4.59610E-17
  17.030      1.15690E-16
  17.340      2.18640E-16
  17.680      4.28250E-16
  18.020      8.19560E-16
  18.170      1.08280E-15
  18.610      2.38540E-15
  19.100      5.50910E-15
  19.390      8.86860E-15
  19.840      1.80510E-14
  20.180      3.01910E-14
  20.500      4.82420E-14
  21.050      1.04560E-13
  21.620      2.23250E-13
  21.980      3.52820E-13
  22.300      5.23500E-13
  22.680      8.24600E-13
  23.000      1.05040E-10
  23.400      5.52120E-10
  24.000      1.67870E-09
  24.650      5.57210E-09
  25.240      1.13970E-08
  25.680      7.26000E-09
  26.000      3.24800E-08
  26.400      8.71320E-08
  26.850      1.66410E-07
  27.350      2.45250E-07
  27.850      2.71890E-07
  28.400      4.54120E-07
  29.000      4.96270E-07
  29.600      2.82720E-07
  30.100      6.80810E-08
  30.800      2.11360E-07
  31.800      9.15920E-07
  32.800      1.21820E-06
  33.800      1.48860E-06
  34.800      1.82180E-06
  35.700      2.08040E-06
  36.600      2.51740E-06
  37.500      2.80620E-06
  38.500      3.23970E-06
  39.500      3.88890E-06
  40.500      4.56750E-06
  41.400      5.30290E-06
  42.200      5.90990E-06
  43.000      6.61580E-06
  44.100      7.99020E-06
  45.100      9.25680E-06
  46.000      1.04230E-05
  47.000      1.21870E-05
  48.000      1.40490E-05
  49.000      1.57550E-05
  50.000      1.83580E-05
  50.600      7.21710E-05
  51.200      1.73300E-04
  52.000      1.72540E-04
  53.000      1.74990E-04
  54.000      1.66260E-04
  55.000      1.80520E-04
  56.000      2.05390E-04
  57.000      2.13740E-04
  58.000      2.09690E-04
  59.000      2.24620E-04
  60.000      2.23960E-04
  61.000      2.32320E-04
  62.000      2.54660E-04
  63.000      2.60240E-04
  64.000      2.68410E-04
  65.000      2.74500E-04
  65.800      2.73990E-04
  66.500      2.84560E-04
  67.500      2.98960E-04
  68.500      2.93500E-04
  69.500      3.13620E-04
  70.500      3.10850E-04
  71.600      3.34010E-04
  72.600      3.41980E-04
  73.500      3.52660E-04
  74.500      3.55840E-04
  75.500      3.63450E-04
  76.500      3.68670E-04
  77.500      3.79530E-04
  78.500      3.91130E-04
  79.500      3.99780E-04
  80.500      4.06780E-04
  81.500      4.16760E-04
  82.500      4.28810E-04
  83.500      4.16500E-04
  84.500      4.44050E-04
  85.500      4.52250E-04
  86.500      4.64170E-04
  87.500      4.72760E-04
  88.500      4.81320E-04
  89.500      4.90010E-04
  90.500      4.95060E-04
  91.500      5.24560E-04
  92.500      1.31810E-03
  93.500      1.82450E-03
  94.500      2.32260E-03
  95.500      2.50010E-03
  96.500      2.79970E-03
  97.500      2.16320E-03
  98.500      2.75190E-03
  99.500      2.64200E-03
  100.50      2.75240E-03
  101.50      2.77760E-03
  102.50      2.28180E-03
  103.50      2.74860E-03
  104.50      2.80270E-03
  105.50      2.79600E-03
  106.50      2.73920E-03
  107.50      2.73990E-03
  108.50      2.65390E-03
  109.50      2.76230E-03
  110.50      2.73390E-03
  111.50      2.71260E-03
  112.50      2.64830E-03
  113.50      2.72100E-03
  114.50      2.70820E-03
  115.50      2.67960E-03
  116.50      2.67670E-03
  117.50      2.43710E-03
  118.50      2.62590E-03
  119.50      2.62910E-03
  120.50      2.59140E-03
  121.50      2.13510E-03
  122.50      2.59130E-03
  123.50      2.59770E-03
  124.50      2.56590E-03
  125.50      2.58870E-03
  126.50      2.58320E-03
  127.50      2.57350E-03
  128.50      2.56400E-03
  129.50      2.52680E-03
  130.50      2.52670E-03
  131.50      2.52860E-03
  132.50      2.51120E-03
  133.50      2.48970E-03
  134.50      2.49390E-03
  135.50      2.47610E-03
  136.50      2.46010E-03
  137.50      2.44300E-03
  138.50      2.43600E-03
  139.50      2.37960E-03
  140.50      2.36390E-03
  141.50      2.39830E-03
  142.50      2.36670E-03
  143.50      2.37240E-03
  144.20      2.36310E-03
  144.70      2.35660E-03
  145.50      2.34200E-03
  146.50      2.33390E-03
  147.50      2.32150E-03
  148.50      2.31650E-03
  149.50      2.29770E-03
  150.50      2.29090E-03
  151.20      2.28610E-03
  151.70      2.27480E-03
  152.50      2.25920E-03
  153.50      2.21610E-03
  154.50      2.14980E-03
  155.50      2.14990E-03
  156.50      2.17450E-03
  157.50      2.18450E-03
  158.50      2.18160E-03
  159.50      2.16920E-03
  160.50      2.12620E-03
  161.50      2.11320E-03
  162.50      2.09880E-03
  163.50      2.07160E-03
  164.50      1.99110E-03
  165.50      2.09170E-03
  166.50      2.08110E-03
  167.20      2.05650E-03
  167.70      2.08650E-03
  168.50      2.07200E-03
  169.50      2.06200E-03
  170.50      2.04610E-03
  171.50      2.01300E-03
  172.50      2.00970E-03
  173.50      2.02440E-03
  174.50      2.00990E-03
  175.50      1.99270E-03
  176.50      1.99030E-03
  177.50      1.98170E-03
  178.50      1.97130E-03
  179.50      1.95690E-03
  180.50      1.94890E-03
  181.50      1.93770E-03
  182.50      1.92540E-03
  183.50      1.91900E-03
  184.50      1.90580E-03
  185.50      1.89230E-03
  186.50      1.88110E-03
  187.50      1.87220E-03
  188.50      1.86200E-03
  189.50      1.85350E-03
  190.50      1.84630E-03
  191.50      1.83420E-03
  192.50      1.81580E-03
  193.50      1.81530E-03
  194.50      1.80660E-03
  195.50      1.79300E-03
  196.70      1.78450E-03
  197.60      1.77650E-03
  198.40      1.76800E-03
  199.50      1.75590E-03
  200.50      1.74880E-03
  201.50      1.73940E-03
  202.50      1.72990E-03
  203.50      1.72030E-03
  204.50      1.71060E-03
  205.50      1.40810E-03
  206.50      1.37820E-03
  207.40      1.41460E-03
  207.80      1.44590E-03
  208.50      1.54270E-03
  209.50      1.65240E-03
  210.50      1.65740E-03
  211.50      1.65370E-03
  212.50      1.64480E-03
  213.50      1.63500E-03
  214.50      1.62820E-03
  215.50      1.63840E-03
  216.50      1.60260E-03
  217.50      1.62590E-03
  218.50      1.58750E-03
  219.50      1.60780E-03
  220.50      1.59960E-03
  221.50      1.56150E-03
  222.50      1.58210E-03
  223.50      1.57360E-03
  224.50      1.56460E-03
  225.50      1.52830E-03
  226.50      1.54800E-03
  227.50      1.53960E-03
  228.50      1.53060E-03
  229.50      1.50510E-03
  230.50      1.48830E-03
  231.50      1.50620E-03
  232.50      1.49840E-03
  233.50      1.49030E-03
  234.50      1.48230E-03
  235.50      1.47440E-03
  236.50      1.46650E-03
  237.50      1.45860E-03
  238.50      1.42500E-03
  239.50      1.44160E-03
  240.50      1.43530E-03
  241.50      1.42770E-03
  242.50      1.42020E-03
  243.50      1.41270E-03
  244.50      1.40520E-03
  245.50      1.39760E-03
  246.50      1.39050E-03
  247.50      1.38320E-03
  248.50      1.37590E-03
  249.50      1.32830E-03
  250.50      1.35970E-03
  251.30      1.30150E-03
  251.80      1.34840E-03
  252.50      1.34720E-03
  253.50      1.34050E-03
  254.50      1.33350E-03
  255.50      1.32660E-03
  256.50      1.31990E-03
  257.50      1.31300E-03
  258.50      1.30630E-03
  259.50      1.29930E-03
  260.50      1.29480E-03
  261.50      1.28810E-03
  262.50      1.28150E-03
  263.50      1.27460E-03
  264.50      1.26790E-03
  265.50      1.26110E-03
  266.50      1.25410E-03
  267.50      1.24700E-03
  268.50      1.24300E-03
  269.50      1.23410E-03
  270.50      1.23060E-03
  271.50      1.22430E-03
  272.50      1.21480E-03
  273.50      1.19170E-03
  274.50      1.20610E-03
  275.50      1.20010E-03
  276.50      1.19000E-03
  277.50      1.18820E-03
  278.50      1.18220E-03
  279.50      1.17580E-03
  280.50      1.17050E-03
  281.50      1.16480E-03
  282.50      1.15450E-03
  283.50      1.15190E-03
  284.50      1.14780E-03
  285.50      1.14210E-03
  286.50      1.13650E-03
  287.50      1.13100E-03
  288.50      1.12550E-03
  289.50      1.12000E-03
  291.00      1.11190E-03
  293.00      1.10120E-03
  295.00      1.08730E-03
  297.00      1.08020E-03
  299.00      1.06970E-03
  301.00      1.05970E-03
  303.00      1.04950E-03
  305.00      1.03970E-03
  307.00      1.03020E-03
  309.00      1.02040E-03
  311.00      1.01100E-03
  313.00      1.00200E-03
  315.00      9.92710E-04
  317.00      9.83540E-04
  319.00      9.70300E-04
  321.00      9.56950E-04
  323.00      9.56840E-04
  325.00      9.48120E-04
  327.00      9.39520E-04
  329.00      9.30960E-04
  331.00      9.23160E-04
  333.00      9.14930E-04
  335.00      9.05960E-04
  337.00      8.98820E-04
  339.00      8.90980E-04
  341.00      8.83180E-04
  343.00      8.74040E-04
  345.00      8.64940E-04
  347.00      8.58770E-04
  349.00      8.51380E-04
  351.00      8.45140E-04
  353.00      8.37840E-04
  355.00      8.30520E-04
  357.00      8.25700E-04
  359.00      8.15920E-04
  361.00      8.10110E-04
  363.00      8.02060E-04
  364.00      7.94820E-04
  365.00      7.57510E-04
  367.00      7.52730E-04
  369.00      7.47440E-04
  371.00      7.41400E-04
  373.00      7.34880E-04
  375.00      7.49300E-04
  377.00      7.51420E-04
  379.00      7.65850E-04
  381.00      7.82800E-04
  383.00      7.33160E-04
  385.00      7.87040E-04
  387.00      7.87630E-04
  389.00      7.16320E-04
  391.00      7.80030E-04
  393.00      7.69890E-04
  395.00      7.68430E-04
  397.00      6.91350E-04
  399.00      7.55290E-04
  401.00      7.50050E-04
  403.00      7.30010E-04
  405.00      7.40920E-04
  407.00      7.34610E-04
  409.00      7.13760E-04
  411.00      6.66340E-04
  413.00      7.14550E-04
  415.00      7.09310E-04
  417.00      7.06230E-04
  419.00      7.00180E-04
  421.00      6.90970E-04
  423.00      6.90520E-04
  425.00      6.85180E-04
  427.00      6.79870E-04
  429.00      6.74760E-04
  431.00      6.69200E-04
  433.00      6.45290E-04
  435.00      6.14070E-04
  437.00      6.53960E-04
  439.00      6.43800E-04
  441.00      6.44810E-04
  443.00      6.39350E-04
  445.00      6.35390E-04
  447.00      6.20400E-04
  449.00      6.26010E-04
  451.00      6.21410E-04
  453.00      6.16680E-04
  455.00      6.07300E-04
  457.00      6.07970E-04
  459.00      6.03520E-04
  461.00      5.99190E-04
  463.00      5.94750E-04
  465.00      5.89030E-04
  467.00      5.86170E-04
  469.00      5.70190E-04
  471.00      5.74780E-04
  473.00      5.74040E-04
  475.00      5.69990E-04
  477.00      5.65990E-04
  479.00      5.62020E-04
  481.00      5.58090E-04
  483.00      5.53840E-04
  485.00      5.37940E-04
  487.00      5.05330E-04
  489.00      5.41940E-04
  491.00      5.39020E-04
  493.00      5.29960E-04
  495.00      5.31670E-04
  497.00      5.28080E-04
  499.00      5.24500E-04
  501.00      5.17900E-04
  503.00      5.17430E-04
  505.00      5.12790E-04
  507.00      5.10510E-04
  509.00      5.07100E-04
  511.00      5.03720E-04
  513.00      5.00370E-04
  515.00      4.97060E-04
  517.00      4.93770E-04
  519.00      4.90530E-04
  521.00      4.87310E-04
  523.00      4.84130E-04
  525.00      4.80960E-04
  527.00      4.77840E-04
  529.00      4.74750E-04
  531.00      4.71680E-04
  533.00      4.68650E-04
  535.00      4.65640E-04
  537.00      4.62660E-04
  539.00      4.59710E-04
  541.00      4.52900E-04
  543.00      4.53880E-04
  545.00      4.51020E-04
  547.00      4.48170E-04
  549.00      4.45350E-04
  551.00      4.42560E-04
  553.00      4.39800E-04
  555.00      4.37060E-04
  557.00      4.34340E-04
  559.00      4.31620E-04
  561.00      4.28990E-04
  563.00      4.26350E-04
  565.00      4.23730E-04
  567.00      4.21140E-04
  569.00      4.16430E-04
  571.00      4.05330E-04
  573.00      4.02990E-04
  575.00      4.00660E-04
  577.00      3.98380E-04
  579.00      3.96170E-04
  581.00      3.94160E-04
  583.00      3.92370E-04
  585.00      3.90910E-04
  587.00      3.83690E-04
  589.00      3.88010E-04
  591.00      3.86870E-04
  593.00      3.85690E-04
  595.00      3.84620E-04
  597.00      3.83490E-04
  599.00      3.82340E-04
  601.00      3.80670E-04
  603.00      3.78450E-04
  605.00      3.76260E-04
  607.00      3.74080E-04
  609.00      3.71920E-04
  611.00      3.69770E-04
  613.00      3.67650E-04
  615.00      3.65550E-04
  617.00      3.63320E-04
  619.00      3.61390E-04
  621.00      3.59340E-04
  623.00      3.57040E-04
  625.00      3.55290E-04
  627.00      3.53290E-04
  629.00      3.51310E-04
  631.00      3.48900E-04
  633.00      3.47380E-04
  635.00      3.45450E-04
  637.00      3.43530E-04
  639.00      3.41620E-04
  641.00      3.39120E-04
  643.00      3.37860E-04
  645.00      3.36010E-04
  647.00      3.34160E-04
  649.00      3.32340E-04
  651.00      3.30520E-04
  653.00      3.27410E-04
  655.00      3.22780E-04
  657.00      3.01080E-04
  659.00      3.22770E-04
  661.00      3.21670E-04
  663.00      3.19950E-04
  665.00      3.18310E-04
  667.00      3.14860E-04
  669.00      3.12170E-04
  671.00      3.13230E-04
  673.00      3.11590E-04
  675.00      3.09940E-04
  677.00      3.08310E-04
  679.00      3.06690E-04
  681.00      3.05080E-04
  683.00      3.03480E-04
  685.00      3.01900E-04
  687.00      3.00330E-04
  689.00      2.97730E-04
  691.00      2.97220E-04
  693.00      2.95690E-04
  695.00      2.94160E-04
  697.00      2.92650E-04
  699.00      2.91150E-04
  701.00      2.89660E-04
  703.00      2.88170E-04
  705.00      2.86710E-04
  707.00      2.82650E-04
  709.00      2.83820E-04
  711.00      2.82380E-04
  713.00      2.80960E-04
  715.00      2.79550E-04
  717.00      2.77360E-04
  719.00      2.76420E-04
  721.00      2.75370E-04
  723.00      2.73990E-04
  725.00      2.72640E-04
  727.00      2.71290E-04
  729.00      2.68670E-04
  731.00      2.68600E-04
  733.00      2.67290E-04
  735.00      2.65980E-04
  737.00      2.64680E-04
  739.00      2.63390E-04
  741.00      2.62100E-04
  743.00      2.60830E-04
  745.00      2.59580E-04
  747.00      2.58320E-04
  749.00      2.57070E-04
  751.00      2.55800E-04
  753.00      2.54610E-04
  755.00      2.53390E-04
  757.00      2.52180E-04
  759.00      2.49920E-04
  761.00      2.49770E-04
  763.00      2.48590E-04
  765.00      2.47410E-04
  767.00      2.46240E-04
  769.00      2.45080E-04
  771.00      2.43930E-04
  773.00      2.42780E-04
  775.00      2.41640E-04
  777.00      2.40520E-04
  779.00      2.39400E-04
  781.00      2.38220E-04
  783.00      2.37180E-04
  785.00      2.36180E-04
  787.00      2.35090E-04
  789.00      2.33980E-04
  791.00      2.32930E-04
  793.00      2.31860E-04
  795.00      2.30800E-04
  797.00      2.29690E-04
  799.00      2.28690E-04
  801.00      2.27650E-04
  803.00      2.26620E-04
  805.00      2.25560E-04
  807.00      2.24560E-04
  809.00      2.23390E-04
  811.00      2.22400E-04
  813.00      2.21540E-04
  815.00      2.20360E-04
  817.00      2.19570E-04
  819.00      2.18210E-04
  821.00      2.14650E-04
  823.00      2.13270E-04
  825.00      2.12960E-04
  827.00      2.11750E-04
  829.00      2.11170E-04
  831.00      2.10290E-04
  833.00      2.09350E-04
  835.00      2.08040E-04
  837.00      2.07440E-04
  839.00      2.06670E-04
  841.00      2.05840E-04
  843.00      2.04920E-04
  845.00      2.03540E-04
  847.00      2.03210E-04
  849.00      2.02340E-04
  851.00      2.01400E-04
  853.00      2.00850E-04
  855.00      1.99020E-04
  857.00      2.00250E-04
  859.00      1.96710E-04
  861.00      1.96520E-04
  863.00      1.98700E-04
  865.00      1.96200E-04
  867.00      1.90630E-04
  869.00      1.96600E-04
  871.00      1.96930E-04
  873.00      1.94250E-04
  875.00      1.84810E-04
  877.00      1.91580E-04
  879.00      1.94450E-04
  881.00      1.93920E-04
  883.00      1.92880E-04
  885.00      1.86770E-04
  887.00      1.79000E-04
  889.00      1.89600E-04
  891.00      1.90090E-04
  893.00      1.89510E-04
  895.00      1.89040E-04
  897.00      1.88060E-04
  899.00      1.85370E-04
  901.00      1.73850E-04
  903.00      1.78950E-04
  905.00      1.84330E-04
  907.00      1.83380E-04
  909.00      1.83430E-04
  911.00      1.82920E-04
  913.00      1.82260E-04
  915.00      1.81520E-04
  917.00      1.80550E-04
  919.00      1.79620E-04
  921.00      1.75540E-04
  923.00      1.63430E-04
  925.00      1.74410E-04
  927.00      1.76630E-04
  929.00      1.76470E-04
  931.00      1.75390E-04
  933.00      1.75060E-04
  935.00      1.73100E-04
  937.00      1.73660E-04
  939.00      1.72990E-04
  941.00      1.72300E-04
  943.00      1.71620E-04
  945.00      1.70950E-04
  947.00      1.69780E-04
  949.00      1.69600E-04
  951.00      1.67550E-04
  953.00      1.63870E-04
  955.00      1.53140E-04
  957.00      1.64610E-04
  959.00      1.65920E-04
  961.00      1.65450E-04
  963.00      1.64640E-04
  965.00      1.64400E-04
  967.00      1.63770E-04
  969.00      1.63080E-04
  971.00      1.62230E-04
  973.00      1.61880E-04
  975.00      1.61260E-04
  977.00      1.60530E-04
  979.00      1.60040E-04
  981.00      1.59430E-04
  983.00      1.58820E-04
  985.00      1.58220E-04
  987.00      1.57620E-04
  989.00      1.57020E-04
  991.00      1.56430E-04
  993.00      1.55840E-04
  995.00      1.55260E-04
  997.00      1.54680E-04
  999.00      1.54090E-04
  1002.5      1.49630E-04
  1007.5      1.46980E-04
  1012.5      1.49140E-04
  1017.5      1.48890E-04
  1022.5      1.47500E-04
  1027.5      1.46190E-04
  1032.5      1.44540E-04
  1037.5      1.43550E-04
  1042.5      1.42170E-04
  1047.5      1.40990E-04
  1052.5      1.39730E-04
  1057.5      1.38500E-04
  1062.5      1.37270E-04
  1067.5      1.35950E-04
  1072.5      1.34870E-04
  1077.5      1.33700E-04
  1082.5      1.31730E-04
  1087.5      1.31300E-04
  1092.5      1.24310E-04
  1097.5      1.27830E-04
  1102.5      1.27710E-04
  1107.5      1.26930E-04
  1112.5      1.25880E-04
  1117.5      1.24830E-04
  1122.5      1.23750E-04
  1127.5      1.22750E-04
  1132.5      1.21730E-04
  1137.5      1.20720E-04
  1142.5      1.19720E-04
  1147.5      1.18740E-04
  1152.5      1.17760E-04
  1157.5      1.16800E-04
  1162.5      1.15520E-04
  1167.5      1.14790E-04
  1172.5      1.13990E-04
  1177.5      1.13080E-04
  1182.5      1.12170E-04
  1187.5      1.11280E-04
  1192.5      1.10400E-04
  1197.5      1.08960E-04
  1202.5      1.08670E-04
  1207.5      1.07810E-04
  1212.5      1.06970E-04
  1217.5      1.06140E-04
  1222.5      1.05320E-04
  1227.5      1.04510E-04
  1232.5      1.03700E-04
  1237.5      1.02910E-04
  1242.5      1.02120E-04
  1247.5      1.01350E-04
  1252.5      1.00470E-04
  1257.5      9.98200E-05
  1262.5      9.90700E-05
  1267.5      9.83280E-05
  1272.5      9.75930E-05
  1277.5      9.59790E-05
  1282.5      9.18030E-05
  1287.5      9.52150E-05
  1292.5      9.47390E-05
  1297.5      9.37240E-05
  1302.5      9.33600E-05
  1307.5      9.26810E-05
  1312.5      9.20100E-05
  1317.5      9.13460E-05
  1322.5      9.06890E-05
  1327.5      9.00390E-05
  1332.5      8.93950E-05
  1337.5      8.87590E-05
  1342.5      8.80910E-05
  1347.5      8.75070E-05
  1352.5      8.68900E-05
  1357.5      8.62800E-05
  1362.5      8.56770E-05
  1367.5      8.50790E-05
  1372.5      8.44880E-05
  1377.5      8.39030E-05
  1382.5      8.33250E-05
  1387.5      8.27520E-05
  1392.5      8.21850E-05
  1397.5      8.16230E-05
