 Castelli and Kurucz 2004-2012 Atmosphere
 T     36000.     G    4.00000 [-2.0] N(He)/Ntot=0.0784 VTURB=2.0  L/H=1.25 ODF
 Wavelength  Eddington Hnu
   (nm)    (ergs/s/cm2/Hz/sr)
  9.0900      4.90780E-27
  9.3500      2.29460E-26
  9.6100      9.95870E-26
  9.7700      2.37510E-25
  9.9600      6.45560E-25
  10.200      2.17780E-24
  10.380      5.25240E-24
  10.560      1.23350E-23
  10.770      3.23420E-23
  11.040      1.06480E-22
  11.400      4.82550E-22
  11.780      2.17580E-21
  12.130      8.07900E-21
  12.480      2.80430E-20
  12.710      6.14140E-20
  12.840      9.45330E-20
  13.050      1.86620E-19
  13.240      3.39460E-19
  13.390      5.38280E-19
  13.660      1.20530E-18
  13.980      3.01650E-18
  14.330      7.87320E-18
  14.720      2.17550E-17
  15.100      5.58060E-17
  15.520      1.50060E-16
  15.880      3.36620E-16
  16.200      6.69490E-16
  16.600      1.52380E-15
  17.030      3.53890E-15
  17.340      6.33090E-15
  17.680      1.17030E-14
  18.020      2.11140E-14
  18.170      2.71980E-14
  18.610      5.58810E-14
  19.100      1.19850E-13
  19.390      1.84770E-13
  19.840      3.52400E-13
  20.180      5.62910E-13
  20.500      8.62100E-13
  21.050      1.73970E-12
  21.620      3.46330E-12
  21.980      5.24860E-12
  22.300      7.50670E-12
  22.680      1.13290E-11
  23.000      9.63120E-10
  23.400      4.53580E-09
  24.000      1.22260E-08
  24.650      5.16740E-08
  25.240      1.50870E-07
  25.680      9.61550E-08
  26.000      6.52530E-07
  26.400      1.84310E-06
  26.850      3.31620E-06
  27.350      4.79990E-06
  27.850      5.25280E-06
  28.400      8.30300E-06
  29.000      9.28560E-06
  29.600      5.14310E-06
  30.100      5.11140E-07
  30.800      2.87620E-06
  31.800      1.28480E-05
  32.800      1.74410E-05
  33.800      1.98530E-05
  34.800      2.30500E-05
  35.700      2.77120E-05
  36.600      3.27390E-05
  37.500      3.49640E-05
  38.500      3.48660E-05
  39.500      4.07780E-05
  40.500      4.51370E-05
  41.400      4.82470E-05
  42.200      4.94380E-05
  43.000      5.09050E-05
  44.100      5.73750E-05
  45.100      6.14990E-05
  46.000      6.38150E-05
  47.000      6.88640E-05
  48.000      7.50500E-05
  49.000      7.80330E-05
  50.000      8.70400E-05
  50.600      1.88990E-04
  51.200      3.55630E-04
  52.000      3.56720E-04
  53.000      3.60630E-04
  54.000      3.45520E-04
  55.000      3.63990E-04
  56.000      4.17930E-04
  57.000      4.34910E-04
  58.000      4.32180E-04
  59.000      4.57840E-04
  60.000      4.55370E-04
  61.000      4.65850E-04
  62.000      5.11110E-04
  63.000      5.19770E-04
  64.000      5.40130E-04
  65.000      5.46770E-04
  65.800      5.43060E-04
  66.500      5.66400E-04
  67.500      5.93810E-04
  68.500      5.83120E-04
  69.500      6.16980E-04
  70.500      6.07790E-04
  71.600      6.51880E-04
  72.600      6.67050E-04
  73.500      6.82050E-04
  74.500      6.85700E-04
  75.500      6.97270E-04
  76.500      7.01920E-04
  77.500      7.22160E-04
  78.500      7.35900E-04
  79.500      7.51170E-04
  80.500      7.62810E-04
  81.500      7.78560E-04
  82.500      7.96460E-04
  83.500      7.71430E-04
  84.500      8.16760E-04
  85.500      8.26270E-04
  86.500      8.46120E-04
  87.500      8.58620E-04
  88.500      8.69470E-04
  89.500      8.80060E-04
  90.500      8.84130E-04
  91.500      8.31530E-04
  92.500      1.70990E-03
  93.500      2.24810E-03
  94.500      2.70490E-03
  95.500      2.88960E-03
  96.500      3.16850E-03
  97.500      2.59780E-03
  98.500      3.11540E-03
  99.500      2.99400E-03
  100.50      3.11680E-03
  101.50      3.14170E-03
  102.50      2.69450E-03
  103.50      3.12220E-03
  104.50      3.15310E-03
  105.50      3.14550E-03
  106.50      3.09330E-03
  107.50      3.08910E-03
  108.50      3.00430E-03
  109.50      3.10720E-03
  110.50      3.08290E-03
  111.50      3.05620E-03
  112.50      3.00160E-03
  113.50      3.06080E-03
  114.50      3.04890E-03
  115.50      3.01470E-03
  116.50      3.00880E-03
  117.50      2.78980E-03
  118.50      2.96430E-03
  119.50      2.96230E-03
  120.50      2.94240E-03
  121.50      2.51650E-03
  122.50      2.92550E-03
  123.50      2.91600E-03
  124.50      2.88810E-03
  125.50      2.90930E-03
  126.50      2.90080E-03
  127.50      2.88910E-03
  128.50      2.87760E-03
  129.50      2.85570E-03
  130.50      2.84380E-03
  131.50      2.83640E-03
  132.50      2.81800E-03
  133.50      2.80610E-03
  134.50      2.79820E-03
  135.50      2.77710E-03
  136.50      2.75710E-03
  137.50      2.73530E-03
  138.50      2.73100E-03
  139.50      2.68420E-03
  140.50      2.65920E-03
  141.50      2.69130E-03
  142.50      2.66130E-03
  143.50      2.66230E-03
  144.20      2.64730E-03
  144.70      2.64150E-03
  145.50      2.62580E-03
  146.50      2.61630E-03
  147.50      2.60470E-03
  148.50      2.59930E-03
  149.50      2.57920E-03
  150.50      2.57150E-03
  151.20      2.56570E-03
  151.70      2.55260E-03
  152.50      2.53850E-03
  153.50      2.49910E-03
  154.50      2.41950E-03
  155.50      2.42130E-03
  156.50      2.45170E-03
  157.50      2.45820E-03
  158.50      2.45020E-03
  159.50      2.43700E-03
  160.50      2.39650E-03
  161.50      2.38420E-03
  162.50      2.36470E-03
  163.50      2.32900E-03
  164.50      2.23800E-03
  165.50      2.35140E-03
  166.50      2.34080E-03
  167.20      2.31470E-03
  167.70      2.34020E-03
  168.50      2.32570E-03
  169.50      2.31480E-03
  170.50      2.29790E-03
  171.50      2.25910E-03
  172.50      2.26100E-03
  173.50      2.27030E-03
  174.50      2.25490E-03
  175.50      2.23700E-03
  176.50      2.23240E-03
  177.50      2.22180E-03
  178.50      2.21000E-03
  179.50      2.19450E-03
  180.50      2.18470E-03
  181.50      2.17250E-03
  182.50      2.15930E-03
  183.50      2.15040E-03
  184.50      2.13720E-03
  185.50      2.12380E-03
  186.50      2.11110E-03
  187.50      2.09980E-03
  188.50      2.08890E-03
  189.50      2.07980E-03
  190.50      2.06930E-03
  191.50      2.05760E-03
  192.50      2.03960E-03
  193.50      2.03520E-03
  194.50      2.02420E-03
  195.50      2.01150E-03
  196.70      1.99960E-03
  197.60      1.98980E-03
  198.40      1.98120E-03
  199.50      1.96880E-03
  200.50      1.95880E-03
  201.50      1.94810E-03
  202.50      1.93720E-03
  203.50      1.92670E-03
  204.50      1.91570E-03
  205.50      1.53820E-03
  206.50      1.50710E-03
  207.40      1.55620E-03
  207.80      1.60060E-03
  208.50      1.72660E-03
  209.50      1.85400E-03
  210.50      1.85640E-03
  211.50      1.85340E-03
  212.50      1.84390E-03
  213.50      1.83250E-03
  214.50      1.82530E-03
  215.50      1.84040E-03
  216.50      1.79710E-03
  217.50      1.82670E-03
  218.50      1.78020E-03
  219.50      1.80640E-03
  220.50      1.79730E-03
  221.50      1.75130E-03
  222.50      1.77770E-03
  223.50      1.76820E-03
  224.50      1.75830E-03
  225.50      1.71460E-03
  226.50      1.73970E-03
  227.50      1.73030E-03
  228.50      1.72050E-03
  229.50      1.69670E-03
  230.50      1.66990E-03
  231.50      1.69310E-03
  232.50      1.68440E-03
  233.50      1.67540E-03
  234.50      1.66640E-03
  235.50      1.65750E-03
  236.50      1.64870E-03
  237.50      1.63980E-03
  238.50      1.59920E-03
  239.50      1.62100E-03
  240.50      1.61370E-03
  241.50      1.60520E-03
  242.50      1.59700E-03
  243.50      1.58850E-03
  244.50      1.58020E-03
  245.50      1.57160E-03
  246.50      1.56370E-03
  247.50      1.55550E-03
  248.50      1.54730E-03
  249.50      1.50110E-03
  250.50      1.52910E-03
  251.30      1.45660E-03
  251.80      1.51760E-03
  252.50      1.51500E-03
  253.50      1.50780E-03
  254.50      1.50010E-03
  255.50      1.49230E-03
  256.50      1.48470E-03
  257.50      1.47710E-03
  258.50      1.46950E-03
  259.50      1.46160E-03
  260.50      1.45550E-03
  261.50      1.44800E-03
  262.50      1.44080E-03
  263.50      1.43340E-03
  264.50      1.42590E-03
  265.50      1.41850E-03
  266.50      1.41110E-03
  267.50      1.40330E-03
  268.50      1.39770E-03
  269.50      1.38930E-03
  270.50      1.38380E-03
  271.50      1.37680E-03
  272.50      1.36810E-03
  273.50      1.33670E-03
  274.50      1.35640E-03
  275.50      1.34970E-03
  276.50      1.34060E-03
  277.50      1.33640E-03
  278.50      1.32980E-03
  279.50      1.32290E-03
  280.50      1.31670E-03
  281.50      1.31030E-03
  282.50      1.30110E-03
  283.50      1.29680E-03
  284.50      1.29120E-03
  285.50      1.28500E-03
  286.50      1.27870E-03
  287.50      1.27250E-03
  288.50      1.26640E-03
  289.50      1.26020E-03
  291.00      1.25110E-03
  293.00      1.23920E-03
  295.00      1.22510E-03
  297.00      1.21560E-03
  299.00      1.20370E-03
  301.00      1.19270E-03
  303.00      1.18110E-03
  305.00      1.17010E-03
  307.00      1.15950E-03
  309.00      1.14870E-03
  311.00      1.13810E-03
  313.00      1.12780E-03
  315.00      1.11750E-03
  317.00      1.10720E-03
  319.00      1.09390E-03
  321.00      1.07550E-03
  323.00      1.07740E-03
  325.00      1.06770E-03
  327.00      1.05770E-03
  329.00      1.04850E-03
  331.00      1.03950E-03
  333.00      1.03030E-03
  335.00      1.02060E-03
  337.00      1.01220E-03
  339.00      1.00340E-03
  341.00      9.94630E-04
  343.00      9.85260E-04
  345.00      9.75950E-04
  347.00      9.69210E-04
  349.00      9.60550E-04
  351.00      9.52390E-04
  353.00      9.43970E-04
  355.00      9.35760E-04
  357.00      9.29300E-04
  359.00      9.19560E-04
  361.00      9.12600E-04
  363.00      9.03920E-04
  364.00      8.90330E-04
  365.00      8.35370E-04
  367.00      8.29760E-04
  369.00      8.25670E-04
  371.00      8.24530E-04
  373.00      8.24620E-04
  375.00      8.39810E-04
  377.00      8.44320E-04
  379.00      8.53810E-04
  381.00      8.66450E-04
  383.00      8.24920E-04
  385.00      8.65330E-04
  387.00      8.65190E-04
  389.00      8.04840E-04
  391.00      8.55070E-04
  393.00      8.43020E-04
  395.00      8.42610E-04
  397.00      7.77710E-04
  399.00      8.28530E-04
  401.00      8.22750E-04
  403.00      8.03250E-04
  405.00      8.11560E-04
  407.00      8.05020E-04
  409.00      7.87130E-04
  411.00      7.45320E-04
  413.00      7.84520E-04
  415.00      7.78440E-04
  417.00      7.74160E-04
  419.00      7.67120E-04
  421.00      7.56020E-04
  423.00      7.56790E-04
  425.00      7.51030E-04
  427.00      7.45330E-04
  429.00      7.39710E-04
  431.00      7.34000E-04
  433.00      7.13190E-04
  435.00      6.85560E-04
  437.00      7.17500E-04
  439.00      7.08670E-04
  441.00      7.07150E-04
  443.00      7.01580E-04
  445.00      6.96840E-04
  447.00      6.84320E-04
  449.00      6.86670E-04
  451.00      6.81640E-04
  453.00      6.76430E-04
  455.00      6.65050E-04
  457.00      6.67010E-04
  459.00      6.62210E-04
  461.00      6.57480E-04
  463.00      6.52680E-04
  465.00      6.47040E-04
  467.00      6.43260E-04
  469.00      6.23280E-04
  471.00      6.32190E-04
  473.00      6.30080E-04
  475.00      6.25680E-04
  477.00      6.21320E-04
  479.00      6.17000E-04
  481.00      6.12730E-04
  483.00      6.08450E-04
  485.00      5.94900E-04
  487.00      5.65170E-04
  489.00      5.95640E-04
  491.00      5.92000E-04
  493.00      5.84170E-04
  495.00      5.84000E-04
  497.00      5.80070E-04
  499.00      5.76160E-04
  501.00      5.70100E-04
  503.00      5.68470E-04
  505.00      5.63970E-04
  507.00      5.60920E-04
  509.00      5.57210E-04
  511.00      5.53530E-04
  513.00      5.49880E-04
  515.00      5.46270E-04
  517.00      5.42690E-04
  519.00      5.39150E-04
  521.00      5.35640E-04
  523.00      5.32170E-04
  525.00      5.28720E-04
  527.00      5.25300E-04
  529.00      5.21940E-04
  531.00      5.18590E-04
  533.00      5.15280E-04
  535.00      5.12000E-04
  537.00      5.08740E-04
  539.00      5.05520E-04
  541.00      4.96810E-04
  543.00      4.99160E-04
  545.00      4.96040E-04
  547.00      4.92930E-04
  549.00      4.89860E-04
  551.00      4.86810E-04
  553.00      4.83800E-04
  555.00      4.80800E-04
  557.00      4.77840E-04
  559.00      4.74850E-04
  561.00      4.71990E-04
  563.00      4.69110E-04
  565.00      4.66250E-04
  567.00      4.63410E-04
  569.00      4.57070E-04
  571.00      4.39240E-04
  573.00      4.36750E-04
  575.00      4.34290E-04
  577.00      4.31900E-04
  579.00      4.29700E-04
  581.00      4.27920E-04
  583.00      4.26500E-04
  585.00      4.25440E-04
  587.00      4.20070E-04
  589.00      4.23580E-04
  591.00      4.22960E-04
  593.00      4.22480E-04
  595.00      4.22240E-04
  597.00      4.21740E-04
  599.00      4.20980E-04
  601.00      4.19490E-04
  603.00      4.16900E-04
  605.00      4.14660E-04
  607.00      4.12020E-04
  609.00      4.09920E-04
  611.00      4.07300E-04
  613.00      4.04980E-04
  615.00      4.02960E-04
  617.00      3.99940E-04
  619.00      3.98400E-04
  621.00      3.96160E-04
  623.00      3.93010E-04
  625.00      3.91680E-04
  627.00      3.89530E-04
  629.00      3.87360E-04
  631.00      3.84010E-04
  633.00      3.83060E-04
  635.00      3.80950E-04
  637.00      3.78840E-04
  639.00      3.76750E-04
  641.00      3.73150E-04
  643.00      3.72630E-04
  645.00      3.70600E-04
  647.00      3.68580E-04
  649.00      3.66580E-04
  651.00      3.64580E-04
  653.00      3.60440E-04
  655.00      3.57350E-04
  657.00      3.36860E-04
  659.00      3.56420E-04
  661.00      3.54890E-04
  663.00      3.53000E-04
  665.00      3.51160E-04
  667.00      3.47870E-04
  669.00      3.43950E-04
  671.00      3.45590E-04
  673.00      3.43790E-04
  675.00      3.41980E-04
  677.00      3.40190E-04
  679.00      3.38410E-04
  681.00      3.36650E-04
  683.00      3.34890E-04
  685.00      3.33160E-04
  687.00      3.31430E-04
  689.00      3.27530E-04
  691.00      3.28020E-04
  693.00      3.26340E-04
  695.00      3.24660E-04
  697.00      3.23000E-04
  699.00      3.21360E-04
  701.00      3.19720E-04
  703.00      3.18090E-04
  705.00      3.16490E-04
  707.00      3.12810E-04
  709.00      3.13310E-04
  711.00      3.11730E-04
  713.00      3.10170E-04
  715.00      3.08620E-04
  717.00      3.05500E-04
  719.00      3.04890E-04
  721.00      3.04040E-04
  723.00      3.02530E-04
  725.00      3.01040E-04
  727.00      2.99550E-04
  729.00      2.97140E-04
  731.00      2.96610E-04
  733.00      2.95170E-04
  735.00      2.93730E-04
  737.00      2.92300E-04
  739.00      2.90880E-04
  741.00      2.89470E-04
  743.00      2.88070E-04
  745.00      2.86680E-04
  747.00      2.85310E-04
  749.00      2.83930E-04
  751.00      2.82560E-04
  753.00      2.81230E-04
  755.00      2.79890E-04
  757.00      2.78550E-04
  759.00      2.75080E-04
  761.00      2.75910E-04
  763.00      2.74620E-04
  765.00      2.73320E-04
  767.00      2.72040E-04
  769.00      2.70760E-04
  771.00      2.69490E-04
  773.00      2.68230E-04
  775.00      2.66980E-04
  777.00      2.65740E-04
  779.00      2.64510E-04
  781.00      2.63260E-04
  783.00      2.62070E-04
  785.00      2.60930E-04
  787.00      2.59730E-04
  789.00      2.58530E-04
  791.00      2.57350E-04
  793.00      2.56180E-04
  795.00      2.55010E-04
  797.00      2.53850E-04
  799.00      2.52700E-04
  801.00      2.51560E-04
  803.00      2.50420E-04
  805.00      2.49290E-04
  807.00      2.48170E-04
  809.00      2.47010E-04
  811.00      2.45900E-04
  813.00      2.44850E-04
  815.00      2.43650E-04
  817.00      2.42670E-04
  819.00      2.40960E-04
  821.00      2.34850E-04
  823.00      2.32920E-04
  825.00      2.32840E-04
  827.00      2.31800E-04
  829.00      2.31000E-04
  831.00      2.30040E-04
  833.00      2.29050E-04
  835.00      2.27870E-04
  837.00      2.27100E-04
  839.00      2.26240E-04
  841.00      2.25410E-04
  843.00      2.24540E-04
  845.00      2.23430E-04
  847.00      2.22880E-04
  849.00      2.22110E-04
  851.00      2.21220E-04
  853.00      2.20680E-04
  855.00      2.19190E-04
  857.00      2.19810E-04
  859.00      2.17300E-04
  861.00      2.16890E-04
  863.00      2.18190E-04
  865.00      2.16380E-04
  867.00      2.12140E-04
  869.00      2.16290E-04
  871.00      2.16370E-04
  873.00      2.14460E-04
  875.00      2.06840E-04
  877.00      2.12140E-04
  879.00      2.13970E-04
  881.00      2.13350E-04
  883.00      2.12400E-04
  885.00      2.07520E-04
  887.00      2.00660E-04
  889.00      2.09130E-04
  891.00      2.09410E-04
  893.00      2.08500E-04
  895.00      2.07950E-04
  897.00      2.07010E-04
  899.00      2.04660E-04
  901.00      1.94810E-04
  903.00      1.98960E-04
  905.00      2.03100E-04
  907.00      2.02230E-04
  909.00      2.01930E-04
  911.00      2.01090E-04
  913.00      2.00480E-04
  915.00      1.99680E-04
  917.00      1.98720E-04
  919.00      1.97830E-04
  921.00      1.94430E-04
  923.00      1.83760E-04
  925.00      1.93000E-04
  927.00      1.94600E-04
  929.00      1.94150E-04
  931.00      1.93160E-04
  933.00      1.92610E-04
  935.00      1.89630E-04
  937.00      1.90740E-04
  939.00      1.90340E-04
  941.00      1.89590E-04
  943.00      1.88850E-04
  945.00      1.88110E-04
  947.00      1.87060E-04
  949.00      1.86640E-04
  951.00      1.84950E-04
  953.00      1.81810E-04
  955.00      1.72160E-04
  957.00      1.81940E-04
  959.00      1.82820E-04
  961.00      1.82220E-04
  963.00      1.81380E-04
  965.00      1.80940E-04
  967.00      1.80250E-04
  969.00      1.79520E-04
  971.00      1.78690E-04
  973.00      1.78180E-04
  975.00      1.77470E-04
  977.00      1.76320E-04
  979.00      1.76160E-04
  981.00      1.75500E-04
  983.00      1.74830E-04
  985.00      1.74170E-04
  987.00      1.73520E-04
  989.00      1.72860E-04
  991.00      1.72210E-04
  993.00      1.71570E-04
  995.00      1.70930E-04
  997.00      1.70290E-04
  999.00      1.69650E-04
  1002.5      1.65780E-04
  1007.5      1.63040E-04
  1012.5      1.63800E-04
  1017.5      1.63950E-04
  1022.5      1.62440E-04
  1027.5      1.60990E-04
  1032.5      1.59290E-04
  1037.5      1.58100E-04
  1042.5      1.56370E-04
  1047.5      1.55290E-04
  1052.5      1.53920E-04
  1057.5      1.52560E-04
  1062.5      1.51220E-04
  1067.5      1.49820E-04
  1072.5      1.48590E-04
  1077.5      1.47300E-04
  1082.5      1.45360E-04
  1087.5      1.44740E-04
  1092.5      1.38450E-04
  1097.5      1.41330E-04
  1102.5      1.40880E-04
  1107.5      1.39890E-04
  1112.5      1.38730E-04
  1117.5      1.37600E-04
  1122.5      1.36430E-04
  1127.5      1.35310E-04
  1132.5      1.34190E-04
  1137.5      1.33080E-04
  1142.5      1.31990E-04
  1147.5      1.30910E-04
  1152.5      1.29840E-04
  1157.5      1.28790E-04
  1162.5      1.27090E-04
  1167.5      1.26350E-04
  1172.5      1.25700E-04
  1177.5      1.24690E-04
  1182.5      1.23700E-04
  1187.5      1.22720E-04
  1192.5      1.21750E-04
  1197.5      1.20380E-04
  1202.5      1.19850E-04
  1207.5      1.18910E-04
  1212.5      1.17980E-04
  1217.5      1.17070E-04
  1222.5      1.16170E-04
  1227.5      1.15270E-04
  1232.5      1.14390E-04
  1237.5      1.13520E-04
  1242.5      1.12650E-04
  1247.5      1.11800E-04
  1252.5      1.10880E-04
  1257.5      1.10120E-04
  1262.5      1.09300E-04
  1267.5      1.08480E-04
  1272.5      1.07670E-04
  1277.5      1.06190E-04
  1282.5      1.02280E-04
  1287.5      1.05170E-04
  1292.5      1.04540E-04
  1297.5      1.03550E-04
  1302.5      1.03020E-04
  1307.5      1.02270E-04
  1312.5      1.01540E-04
  1317.5      1.00800E-04
  1322.5      1.00080E-04
  1327.5      9.93660E-05
  1332.5      9.86590E-05
  1337.5      9.79590E-05
  1342.5      9.72410E-05
  1347.5      9.65810E-05
  1352.5      9.59030E-05
  1357.5      9.52320E-05
  1362.5      9.45680E-05
  1367.5      9.39110E-05
  1372.5      9.32600E-05
  1377.5      9.26170E-05
  1382.5      9.19800E-05
  1387.5      9.13500E-05
  1392.5      9.07260E-05
  1397.5      9.01080E-05
