 Castelli and Kurucz 2004-2012 Atmosphere
 T     38000.     G    4.50000 [-2.0] N(He)/Ntot=0.0784 VTURB=2.0  L/H=1.25 ODF
 Wavelength  Eddington Hnu
   (nm)    (ergs/s/cm2/Hz/sr)
  9.0900      3.75540E-25
  9.3500      1.58430E-24
  9.6100      6.22400E-24
  9.7700      1.39840E-23
  9.9600      3.54540E-23
  10.200      1.09730E-22
  10.380      2.48490E-22
  10.560      5.48610E-22
  10.770      1.34050E-21
  11.040      4.03890E-21
  11.400      1.63200E-20
  11.780      6.55640E-20
  12.130      2.19760E-19
  12.480      6.92100E-19
  12.710      1.42470E-18
  12.840      2.11990E-18
  13.050      3.96490E-18
  13.240      6.87600E-18
  13.390      1.05130E-17
  13.660      2.20910E-17
  13.980      5.14150E-17
  14.330      1.24340E-16
  14.720      3.17320E-16
  15.100      7.56010E-16
  15.520      1.88200E-15
  15.880      3.96290E-15
  16.200      7.47900E-15
  16.600      1.59970E-14
  17.030      3.48200E-14
  17.340      5.95900E-14
  17.680      1.05140E-13
  18.020      1.81580E-13
  18.170      2.29590E-13
  18.610      4.47160E-13
  19.100      9.05710E-13
  19.390      1.35230E-12
  19.840      2.46020E-12
  20.180      3.79810E-12
  20.500      5.63940E-12
  21.050      1.08090E-11
  21.620      2.04680E-11
  21.980      3.01010E-11
  22.300      4.19560E-11
  22.680      6.14520E-11
  23.000      2.76510E-09
  23.400      1.18920E-08
  24.000      3.25960E-08
  24.650      1.87570E-07
  25.240      6.70490E-07
  25.680      4.79260E-07
  26.000      2.78600E-06
  26.400      6.47810E-06
  26.850      1.07580E-05
  27.350      1.51050E-05
  27.850      1.66910E-05
  28.400      2.44100E-05
  29.000      2.77590E-05
  29.600      1.83540E-05
  30.100      2.37950E-06
  30.800      1.03920E-05
  31.800      3.34390E-05
  32.800      4.22210E-05
  33.800      4.53820E-05
  34.800      5.13760E-05
  35.700      6.00860E-05
  36.600      6.87890E-05
  37.500      7.23490E-05
  38.500      7.12990E-05
  39.500      8.17980E-05
  40.500      8.87810E-05
  41.400      9.36440E-05
  42.200      9.49610E-05
  43.000      9.70610E-05
  44.100      1.07440E-04
  45.100      1.13660E-04
  46.000      1.16730E-04
  47.000      1.24520E-04
  48.000      1.33870E-04
  49.000      1.37740E-04
  50.000      1.51230E-04
  50.600      2.74270E-04
  51.200      5.07960E-04
  52.000      5.10660E-04
  53.000      5.20270E-04
  54.000      4.98110E-04
  55.000      5.23570E-04
  56.000      5.86740E-04
  57.000      6.06730E-04
  58.000      6.02940E-04
  59.000      6.35200E-04
  60.000      6.33720E-04
  61.000      6.42520E-04
  62.000      6.95010E-04
  63.000      7.05860E-04
  64.000      7.29790E-04
  65.000      7.36830E-04
  65.800      7.31950E-04
  66.500      7.59780E-04
  67.500      7.91340E-04
  68.500      7.78700E-04
  69.500      8.18840E-04
  70.500      8.07230E-04
  71.600      8.57740E-04
  72.600      8.75560E-04
  73.500      8.92160E-04
  74.500      8.96540E-04
  75.500      9.09800E-04
  76.500      9.15130E-04
  77.500      9.37900E-04
  78.500      9.52760E-04
  79.500      9.69260E-04
  80.500      9.83510E-04
  81.500      1.00070E-03
  82.500      1.02120E-03
  83.500      9.92750E-04
  84.500      1.04340E-03
  85.500      1.05320E-03
  86.500      1.07550E-03
  87.500      1.08920E-03
  88.500      1.10090E-03
  89.500      1.11220E-03
  90.500      1.11530E-03
  91.500      9.82720E-04
  92.500      1.87590E-03
  93.500      2.53880E-03
  94.500      3.28980E-03
  95.500      3.58470E-03
  96.500      4.12070E-03
  97.500      3.19400E-03
  98.500      4.08730E-03
  99.500      3.85620E-03
  100.50      4.08260E-03
  101.50      4.08230E-03
  102.50      3.24100E-03
  103.50      4.03160E-03
  104.50      4.08000E-03
  105.50      4.06140E-03
  106.50      3.98240E-03
  107.50      3.96780E-03
  108.50      3.79130E-03
  109.50      3.96930E-03
  110.50      3.92820E-03
  111.50      3.88900E-03
  112.50      3.81310E-03
  113.50      3.87440E-03
  114.50      3.85140E-03
  115.50      3.79960E-03
  116.50      3.78080E-03
  117.50      3.51140E-03
  118.50      3.71410E-03
  119.50      3.70110E-03
  120.50      3.65770E-03
  121.50      2.94880E-03
  122.50      3.61510E-03
  123.50      3.61150E-03
  124.50      3.57330E-03
  125.50      3.59380E-03
  126.50      3.57650E-03
  127.50      3.55570E-03
  128.50      3.53520E-03
  129.50      3.50250E-03
  130.50      3.48240E-03
  131.50      3.46700E-03
  132.50      3.43930E-03
  133.50      3.41930E-03
  134.50      3.40340E-03
  135.50      3.37410E-03
  136.50      3.34560E-03
  137.50      3.31370E-03
  138.50      3.30270E-03
  139.50      3.24360E-03
  140.50      3.20980E-03
  141.50      3.24080E-03
  142.50      3.20200E-03
  143.50      3.19740E-03
  144.20      3.17620E-03
  144.70      3.16700E-03
  145.50      3.14580E-03
  146.50      3.12960E-03
  147.50      3.11130E-03
  148.50      3.10060E-03
  149.50      3.07450E-03
  150.50      3.06040E-03
  151.20      3.04990E-03
  151.70      3.03400E-03
  152.50      3.01460E-03
  153.50      2.96830E-03
  154.50      2.87310E-03
  155.50      2.87220E-03
  156.50      2.90330E-03
  157.50      2.90330E-03
  158.50      2.89100E-03
  159.50      2.87160E-03
  160.50      2.82520E-03
  161.50      2.80670E-03
  162.50      2.78210E-03
  163.50      2.72330E-03
  164.50      2.60910E-03
  165.50      2.75550E-03
  166.50      2.74130E-03
  167.20      2.71060E-03
  167.70      2.73390E-03
  168.50      2.71590E-03
  169.50      2.70030E-03
  170.50      2.67890E-03
  171.50      2.63220E-03
  172.50      2.63150E-03
  173.50      2.63770E-03
  174.50      2.61800E-03
  175.50      2.59550E-03
  176.50      2.58710E-03
  177.50      2.57220E-03
  178.50      2.55670E-03
  179.50      2.53730E-03
  180.50      2.52360E-03
  181.50      2.50760E-03
  182.50      2.49080E-03
  183.50      2.47800E-03
  184.50      2.46110E-03
  185.50      2.44410E-03
  186.50      2.42810E-03
  187.50      2.41320E-03
  188.50      2.39850E-03
  189.50      2.38620E-03
  190.50      2.37250E-03
  191.50      2.35760E-03
  192.50      2.33510E-03
  193.50      2.32880E-03
  194.50      2.31490E-03
  195.50      2.29900E-03
  196.70      2.28360E-03
  197.60      2.27110E-03
  198.40      2.26010E-03
  199.50      2.24450E-03
  200.50      2.23150E-03
  201.50      2.21790E-03
  202.50      2.20430E-03
  203.50      2.19100E-03
  204.50      2.17740E-03
  205.50      1.71140E-03
  206.50      1.66200E-03
  207.40      1.70170E-03
  207.80      1.74310E-03
  208.50      1.85710E-03
  209.50      2.05050E-03
  210.50      2.10230E-03
  211.50      2.09710E-03
  212.50      2.08470E-03
  213.50      2.06940E-03
  214.50      2.06110E-03
  215.50      2.07770E-03
  216.50      2.02110E-03
  217.50      2.06690E-03
  218.50      1.99810E-03
  219.50      2.04190E-03
  220.50      2.03240E-03
  221.50      1.96100E-03
  222.50      2.00780E-03
  223.50      1.99670E-03
  224.50      1.98330E-03
  225.50      1.91670E-03
  226.50      1.96150E-03
  227.50      1.95010E-03
  228.50      1.93800E-03
  229.50      1.91100E-03
  230.50      1.86360E-03
  231.50      1.90350E-03
  232.50      1.89390E-03
  233.50      1.88290E-03
  234.50      1.87200E-03
  235.50      1.86120E-03
  236.50      1.85050E-03
  237.50      1.83970E-03
  238.50      1.77970E-03
  239.50      1.81660E-03
  240.50      1.80820E-03
  241.50      1.79800E-03
  242.50      1.78800E-03
  243.50      1.77770E-03
  244.50      1.76770E-03
  245.50      1.75740E-03
  246.50      1.74790E-03
  247.50      1.73820E-03
  248.50      1.72830E-03
  249.50      1.68060E-03
  250.50      1.70410E-03
  251.30      1.60470E-03
  251.80      1.69180E-03
  252.50      1.68970E-03
  253.50      1.68100E-03
  254.50      1.67170E-03
  255.50      1.66250E-03
  256.50      1.65340E-03
  257.50      1.64440E-03
  258.50      1.63540E-03
  259.50      1.62600E-03
  260.50      1.61900E-03
  261.50      1.61010E-03
  262.50      1.60150E-03
  263.50      1.59280E-03
  264.50      1.58400E-03
  265.50      1.57520E-03
  266.50      1.56620E-03
  267.50      1.55710E-03
  268.50      1.55050E-03
  269.50      1.54030E-03
  270.50      1.53410E-03
  271.50      1.52590E-03
  272.50      1.51510E-03
  273.50      1.47240E-03
  274.50      1.50200E-03
  275.50      1.49410E-03
  276.50      1.48310E-03
  277.50      1.47850E-03
  278.50      1.47080E-03
  279.50      1.46270E-03
  280.50      1.45550E-03
  281.50      1.44800E-03
  282.50      1.43690E-03
  283.50      1.43170E-03
  284.50      1.42580E-03
  285.50      1.41840E-03
  286.50      1.41120E-03
  287.50      1.40400E-03
  288.50      1.39680E-03
  289.50      1.38970E-03
  291.00      1.37920E-03
  293.00      1.36530E-03
  295.00      1.34880E-03
  297.00      1.33800E-03
  299.00      1.32440E-03
  301.00      1.31150E-03
  303.00      1.29820E-03
  305.00      1.28560E-03
  307.00      1.27330E-03
  309.00      1.26090E-03
  311.00      1.24870E-03
  313.00      1.23690E-03
  315.00      1.22510E-03
  317.00      1.21340E-03
  319.00      1.19780E-03
  321.00      1.17520E-03
  323.00      1.17920E-03
  325.00      1.16810E-03
  327.00      1.15680E-03
  329.00      1.14630E-03
  331.00      1.13600E-03
  333.00      1.12560E-03
  335.00      1.11450E-03
  337.00      1.10510E-03
  339.00      1.09500E-03
  341.00      1.08510E-03
  343.00      1.07440E-03
  345.00      1.06360E-03
  347.00      1.05510E-03
  349.00      1.04670E-03
  351.00      1.03740E-03
  353.00      1.02790E-03
  355.00      1.01850E-03
  357.00      1.01150E-03
  359.00      1.00010E-03
  361.00      9.92590E-04
  363.00      9.82530E-04
  364.00      9.67030E-04
  365.00      9.03160E-04
  367.00      8.96900E-04
  369.00      8.91340E-04
  371.00      8.88220E-04
  373.00      8.88860E-04
  375.00      8.99040E-04
  377.00      9.02210E-04
  379.00      9.18200E-04
  381.00      9.34700E-04
  383.00      8.83070E-04
  385.00      9.37170E-04
  387.00      9.41860E-04
  389.00      8.57040E-04
  391.00      9.31310E-04
  393.00      9.19750E-04
  395.00      9.17560E-04
  397.00      8.27150E-04
  399.00      9.01050E-04
  401.00      8.97380E-04
  403.00      8.71180E-04
  405.00      8.85980E-04
  407.00      8.77650E-04
  409.00      8.48730E-04
  411.00      7.96920E-04
  413.00      8.53630E-04
  415.00      8.48080E-04
  417.00      8.43580E-04
  419.00      8.34370E-04
  421.00      8.21280E-04
  423.00      8.24040E-04
  425.00      8.17540E-04
  427.00      8.11080E-04
  429.00      8.04770E-04
  431.00      7.97390E-04
  433.00      7.65320E-04
  435.00      7.32820E-04
  437.00      7.78400E-04
  439.00      7.68310E-04
  441.00      7.68120E-04
  443.00      7.61790E-04
  445.00      7.56540E-04
  447.00      7.40170E-04
  449.00      7.45110E-04
  451.00      7.39490E-04
  453.00      7.33240E-04
  455.00      7.18490E-04
  457.00      7.23110E-04
  459.00      7.17720E-04
  461.00      7.12440E-04
  463.00      7.07050E-04
  465.00      7.00810E-04
  467.00      6.96350E-04
  469.00      6.72250E-04
  471.00      6.83870E-04
  473.00      6.81850E-04
  475.00      6.76940E-04
  477.00      6.72080E-04
  479.00      6.67270E-04
  481.00      6.62500E-04
  483.00      6.56900E-04
  485.00      6.35870E-04
  487.00      6.01170E-04
  489.00      6.42150E-04
  491.00      6.39450E-04
  493.00      6.29630E-04
  495.00      6.30570E-04
  497.00      6.26200E-04
  499.00      6.21870E-04
  501.00      6.14850E-04
  503.00      6.13340E-04
  505.00      6.08260E-04
  507.00      6.04990E-04
  509.00      6.00880E-04
  511.00      5.96800E-04
  513.00      5.92770E-04
  515.00      5.88770E-04
  517.00      5.84820E-04
  519.00      5.80900E-04
  521.00      5.77030E-04
  523.00      5.73190E-04
  525.00      5.69380E-04
  527.00      5.65610E-04
  529.00      5.61900E-04
  531.00      5.58210E-04
  533.00      5.54550E-04
  535.00      5.50930E-04
  537.00      5.47350E-04
  539.00      5.43800E-04
  541.00      5.32590E-04
  543.00      5.36790E-04
  545.00      5.33360E-04
  547.00      5.29940E-04
  549.00      5.26560E-04
  551.00      5.23200E-04
  553.00      5.19890E-04
  555.00      5.16600E-04
  557.00      5.13340E-04
  559.00      5.10070E-04
  561.00      5.06920E-04
  563.00      5.03750E-04
  565.00      5.00610E-04
  567.00      4.97510E-04
  569.00      4.90310E-04
  571.00      4.69620E-04
  573.00      4.66920E-04
  575.00      4.64240E-04
  577.00      4.61620E-04
  579.00      4.59100E-04
  581.00      4.56790E-04
  583.00      4.54910E-04
  585.00      4.53580E-04
  587.00      4.47370E-04
  589.00      4.51260E-04
  591.00      4.50580E-04
  593.00      4.49950E-04
  595.00      4.49500E-04
  597.00      4.49140E-04
  599.00      4.48950E-04
  601.00      4.47640E-04
  603.00      4.45640E-04
  605.00      4.44070E-04
  607.00      4.41550E-04
  609.00      4.38970E-04
  611.00      4.36240E-04
  613.00      4.33720E-04
  615.00      4.31370E-04
  617.00      4.28330E-04
  619.00      4.26400E-04
  621.00      4.23960E-04
  623.00      4.20730E-04
  625.00      4.19040E-04
  627.00      4.16730E-04
  629.00      4.14360E-04
  631.00      4.10860E-04
  633.00      4.09680E-04
  635.00      4.07380E-04
  637.00      4.05090E-04
  639.00      4.02810E-04
  641.00      3.98980E-04
  643.00      3.98330E-04
  645.00      3.96120E-04
  647.00      3.93920E-04
  649.00      3.91750E-04
  651.00      3.89510E-04
  653.00      3.84650E-04
  655.00      3.79460E-04
  657.00      3.56040E-04
  659.00      3.80000E-04
  661.00      3.79050E-04
  663.00      3.76990E-04
  665.00      3.75000E-04
  667.00      3.71120E-04
  669.00      3.66840E-04
  671.00      3.68960E-04
  673.00      3.67000E-04
  675.00      3.65040E-04
  677.00      3.63100E-04
  679.00      3.61170E-04
  681.00      3.59260E-04
  683.00      3.57360E-04
  685.00      3.55480E-04
  687.00      3.53610E-04
  689.00      3.48970E-04
  691.00      3.49900E-04
  693.00      3.48090E-04
  695.00      3.46280E-04
  697.00      3.44480E-04
  699.00      3.42700E-04
  701.00      3.40930E-04
  703.00      3.39170E-04
  705.00      3.37430E-04
  707.00      3.33400E-04
  709.00      3.33990E-04
  711.00      3.32290E-04
  713.00      3.30600E-04
  715.00      3.28920E-04
  717.00      3.25280E-04
  719.00      3.24580E-04
  721.00      3.23960E-04
  723.00      3.22340E-04
  725.00      3.20720E-04
  727.00      3.19120E-04
  729.00      3.16470E-04
  731.00      3.15940E-04
  733.00      3.14380E-04
  735.00      3.12830E-04
  737.00      3.11280E-04
  739.00      3.09750E-04
  741.00      3.08230E-04
  743.00      3.06720E-04
  745.00      3.05220E-04
  747.00      3.03740E-04
  749.00      3.02250E-04
  751.00      3.00770E-04
  753.00      2.99340E-04
  755.00      2.97890E-04
  757.00      2.96450E-04
  759.00      2.92130E-04
  761.00      2.93550E-04
  763.00      2.92210E-04
  765.00      2.90810E-04
  767.00      2.89430E-04
  769.00      2.88050E-04
  771.00      2.86690E-04
  773.00      2.85330E-04
  775.00      2.83990E-04
  777.00      2.82650E-04
  779.00      2.81320E-04
  781.00      2.79970E-04
  783.00      2.78690E-04
  785.00      2.77460E-04
  787.00      2.76170E-04
  789.00      2.74890E-04
  791.00      2.73620E-04
  793.00      2.72350E-04
  795.00      2.71100E-04
  797.00      2.69840E-04
  799.00      2.68610E-04
  801.00      2.67380E-04
  803.00      2.66150E-04
  805.00      2.64940E-04
  807.00      2.63730E-04
  809.00      2.62510E-04
  811.00      2.61340E-04
  813.00      2.60170E-04
  815.00      2.58940E-04
  817.00      2.57830E-04
  819.00      2.55930E-04
  821.00      2.49100E-04
  823.00      2.46800E-04
  825.00      2.46820E-04
  827.00      2.45840E-04
  829.00      2.44990E-04
  831.00      2.43970E-04
  833.00      2.42900E-04
  835.00      2.41640E-04
  837.00      2.40800E-04
  839.00      2.39860E-04
  841.00      2.38920E-04
  843.00      2.37960E-04
  845.00      2.36720E-04
  847.00      2.36150E-04
  849.00      2.35250E-04
  851.00      2.34450E-04
  853.00      2.33600E-04
  855.00      2.32550E-04
  857.00      2.32430E-04
  859.00      2.30310E-04
  861.00      2.30030E-04
  863.00      2.30540E-04
  865.00      2.28740E-04
  867.00      2.25850E-04
  869.00      2.28390E-04
  871.00      2.28450E-04
  873.00      2.26340E-04
  875.00      2.20360E-04
  877.00      2.23940E-04
  879.00      2.26030E-04
  881.00      2.25680E-04
  883.00      2.24600E-04
  885.00      2.19020E-04
  887.00      2.13080E-04
  889.00      2.20900E-04
  891.00      2.21630E-04
  893.00      2.20910E-04
  895.00      2.20250E-04
  897.00      2.19130E-04
  899.00      2.16250E-04
  901.00      2.05980E-04
  903.00      2.09640E-04
  905.00      2.14770E-04
  907.00      2.14140E-04
  909.00      2.14120E-04
  911.00      2.13310E-04
  913.00      2.12680E-04
  915.00      2.11820E-04
  917.00      2.10670E-04
  919.00      2.09280E-04
  921.00      2.04920E-04
  923.00      1.93770E-04
  925.00      2.03120E-04
  927.00      2.05800E-04
  929.00      2.05770E-04
  931.00      2.04780E-04
  933.00      2.04160E-04
  935.00      2.00360E-04
  937.00      2.02190E-04
  939.00      2.01810E-04
  941.00      2.01010E-04
  943.00      2.00210E-04
  945.00      1.99420E-04
  947.00      1.98250E-04
  949.00      1.97720E-04
  951.00      1.95520E-04
  953.00      1.91210E-04
  955.00      1.81040E-04
  957.00      1.91530E-04
  959.00      1.93270E-04
  961.00      1.92980E-04
  963.00      1.92200E-04
  965.00      1.91750E-04
  967.00      1.91010E-04
  969.00      1.90230E-04
  971.00      1.89340E-04
  973.00      1.88800E-04
  975.00      1.88000E-04
  977.00      1.86850E-04
  979.00      1.86640E-04
  981.00      1.85920E-04
  983.00      1.85220E-04
  985.00      1.84510E-04
  987.00      1.83810E-04
  989.00      1.83110E-04
  991.00      1.82420E-04
  993.00      1.81730E-04
  995.00      1.81040E-04
  997.00      1.80360E-04
  999.00      1.79650E-04
  1002.5      1.74620E-04
  1007.5      1.71680E-04
  1012.5      1.73050E-04
  1017.5      1.73590E-04
  1022.5      1.71980E-04
  1027.5      1.70420E-04
  1032.5      1.68600E-04
  1037.5      1.67340E-04
  1042.5      1.65470E-04
  1047.5      1.64350E-04
  1052.5      1.62880E-04
  1057.5      1.61430E-04
  1062.5      1.60000E-04
  1067.5      1.58500E-04
  1072.5      1.57190E-04
  1077.5      1.55820E-04
  1082.5      1.53760E-04
  1087.5      1.52950E-04
  1092.5      1.45490E-04
  1097.5      1.48780E-04
  1102.5      1.48970E-04
  1107.5      1.47910E-04
  1112.5      1.46680E-04
  1117.5      1.45470E-04
  1122.5      1.44230E-04
  1127.5      1.43040E-04
  1132.5      1.41850E-04
  1137.5      1.40670E-04
  1142.5      1.39500E-04
  1147.5      1.38350E-04
  1152.5      1.37220E-04
  1157.5      1.36090E-04
  1162.5      1.34130E-04
  1167.5      1.33420E-04
  1172.5      1.32810E-04
  1177.5      1.31740E-04
  1182.5      1.30680E-04
  1187.5      1.29640E-04
  1192.5      1.28610E-04
  1197.5      1.27070E-04
  1202.5      1.26580E-04
  1207.5      1.25590E-04
  1212.5      1.24610E-04
  1217.5      1.23640E-04
  1222.5      1.22680E-04
  1227.5      1.21730E-04
  1232.5      1.20790E-04
  1237.5      1.19860E-04
  1242.5      1.18940E-04
  1247.5      1.18040E-04
  1252.5      1.17060E-04
  1257.5      1.16260E-04
  1262.5      1.15380E-04
  1267.5      1.14510E-04
  1272.5      1.13650E-04
  1277.5      1.11840E-04
  1282.5      1.07210E-04
  1287.5      1.10810E-04
  1292.5      1.10320E-04
  1297.5      1.09270E-04
  1302.5      1.08710E-04
  1307.5      1.07920E-04
  1312.5      1.07140E-04
  1317.5      1.06360E-04
  1322.5      1.05600E-04
  1327.5      1.04840E-04
  1332.5      1.04090E-04
  1337.5      1.03350E-04
  1342.5      1.02580E-04
  1347.5      1.01880E-04
  1352.5      1.01160E-04
  1357.5      1.00450E-04
  1362.5      9.97490E-05
  1367.5      9.90520E-05
  1372.5      9.83620E-05
  1377.5      9.76800E-05
  1382.5      9.70050E-05
  1387.5      9.63360E-05
  1392.5      9.56750E-05
  1397.5      9.50200E-05
