 Castelli and Kurucz 2004-2012 Atmosphere
 T     40000.     G    5.00000 [-2.0] N(He)/Ntot=0.0784 VTURB=2.0  L/H=1.25 ODF
 Wavelength  Eddington Hnu
   (nm)    (ergs/s/cm2/Hz/sr)
  9.0900      2.63540E-23
  9.3500      9.94750E-23
  9.6100      3.51680E-22
  9.7700      7.42420E-22
  9.9600      1.75250E-21
  10.200      4.97750E-21
  10.380      1.05890E-20
  10.560      2.20150E-20
  10.770      5.02850E-20
  11.040      1.39480E-19
  11.400      5.07860E-19
  11.780      1.84040E-18
  12.130      5.64350E-18
  12.480      1.63320E-17
  12.710      3.18810E-17
  12.840      4.60720E-17
  13.050      8.23150E-17
  13.240      1.37120E-16
  13.390      2.03180E-16
  13.660      4.04070E-16
  13.980      8.83680E-16
  14.330      2.00180E-15
  14.720      4.76260E-15
  15.100      1.06340E-14
  15.520      2.47130E-14
  15.880      4.91700E-14
  16.200      8.84140E-14
  16.600      1.78360E-13
  17.030      3.65560E-13
  17.340      6.00030E-13
  17.680      1.01300E-12
  18.020      1.67640E-12
  18.170      2.08050E-12
  18.610      3.84350E-12
  19.100      7.35980E-12
  19.390      1.06420E-11
  19.840      1.84610E-11
  20.180      2.75290E-11
  20.500      3.95990E-11
  21.050      7.19930E-11
  21.620      1.29390E-10
  21.980      1.84400E-10
  22.300      2.50200E-10
  22.680      3.55280E-10
  23.000      8.22800E-09
  23.400      3.33800E-08
  24.000      1.01380E-07
  24.650      6.76170E-07
  25.240      2.48730E-06
  25.680      1.90980E-06
  26.000      9.14030E-06
  26.400      1.85320E-05
  26.850      2.92610E-05
  27.350      4.05770E-05
  27.850      4.55530E-05
  28.400      6.26520E-05
  29.000      7.22220E-05
  29.600      5.50150E-05
  30.100      1.07450E-05
  30.800      3.27430E-05
  31.800      8.18610E-05
  32.800      9.88790E-05
  33.800      1.02430E-04
  34.800      1.14040E-04
  35.700      1.30630E-04
  36.600      1.46090E-04
  37.500      1.52290E-04
  38.500      1.48770E-04
  39.500      1.68610E-04
  40.500      1.80870E-04
  41.400      1.88530E-04
  42.200      1.89650E-04
  43.000      1.93050E-04
  44.100      2.10090E-04
  45.100      2.19430E-04
  46.000      2.23030E-04
  47.000      2.35100E-04
  48.000      2.49340E-04
  49.000      2.53400E-04
  50.000      2.74050E-04
  50.600      4.09950E-04
  51.200      7.28980E-04
  52.000      7.34440E-04
  53.000      7.55070E-04
  54.000      7.23040E-04
  55.000      7.57590E-04
  56.000      8.31730E-04
  57.000      8.56280E-04
  58.000      8.51070E-04
  59.000      8.91290E-04
  60.000      8.90950E-04
  61.000      8.96890E-04
  62.000      9.57730E-04
  63.000      9.70700E-04
  64.000      9.99610E-04
  65.000      1.00690E-03
  65.800      9.99390E-04
  66.500      1.03400E-03
  67.500      1.07010E-03
  68.500      1.05440E-03
  69.500      1.10260E-03
  70.500      1.08650E-03
  71.600      1.14540E-03
  72.600      1.16600E-03
  73.500      1.18400E-03
  74.500      1.18890E-03
  75.500      1.20370E-03
  76.500      1.20940E-03
  77.500      1.23510E-03
  78.500      1.25020E-03
  79.500      1.26820E-03
  80.500      1.28530E-03
  81.500      1.30390E-03
  82.500      1.32700E-03
  83.500      1.29380E-03
  84.500      1.35070E-03
  85.500      1.35980E-03
  86.500      1.38490E-03
  87.500      1.39950E-03
  88.500      1.41170E-03
  89.500      1.42350E-03
  90.500      1.42470E-03
  91.500      1.19690E-03
  92.500      2.05210E-03
  93.500      2.75330E-03
  94.500      3.72310E-03
  95.500      4.13450E-03
  96.500      4.96730E-03
  97.500      3.69440E-03
  98.500      5.02420E-03
  99.500      4.65700E-03
  100.50      5.02760E-03
  101.50      4.97910E-03
  102.50      3.66900E-03
  103.50      4.88620E-03
  104.50      4.97000E-03
  105.50      4.94490E-03
  106.50      4.84220E-03
  107.50      4.81490E-03
  108.50      4.51330E-03
  109.50      4.79470E-03
  110.50      4.73940E-03
  111.50      4.68990E-03
  112.50      4.59470E-03
  113.50      4.65270E-03
  114.50      4.61810E-03
  115.50      4.55070E-03
  116.50      4.51760E-03
  117.50      4.21310E-03
  118.50      4.43140E-03
  119.50      4.40340E-03
  120.50      4.32630E-03
  121.50      3.30300E-03
  122.50      4.25080E-03
  123.50      4.26650E-03
  124.50      4.22270E-03
  125.50      4.24060E-03
  126.50      4.21400E-03
  127.50      4.18430E-03
  128.50      4.15480E-03
  129.50      4.11320E-03
  130.50      4.08510E-03
  131.50      4.06060E-03
  132.50      4.02430E-03
  133.50      3.99590E-03
  134.50      3.97090E-03
  135.50      3.93440E-03
  136.50      3.89860E-03
  137.50      3.85720E-03
  138.50      3.83890E-03
  139.50      3.77000E-03
  140.50      3.72920E-03
  141.50      3.75640E-03
  142.50      3.71260E-03
  143.50      3.70000E-03
  144.20      3.67360E-03
  144.70      3.66160E-03
  145.50      3.63560E-03
  146.50      3.61270E-03
  147.50      3.58800E-03
  148.50      3.57080E-03
  149.50      3.53990E-03
  150.50      3.51860E-03
  151.20      3.50310E-03
  151.70      3.48520E-03
  152.50      3.46150E-03
  153.50      3.41220E-03
  154.50      3.30340E-03
  155.50      3.30000E-03
  156.50      3.33170E-03
  157.50      3.32360E-03
  158.50      3.30640E-03
  159.50      3.28180E-03
  160.50      3.23340E-03
  161.50      3.20930E-03
  162.50      3.17990E-03
  163.50      3.09560E-03
  164.50      2.96040E-03
  165.50      3.13750E-03
  166.50      3.11950E-03
  167.20      3.08710E-03
  167.70      3.10400E-03
  168.50      3.08340E-03
  169.50      3.06320E-03
  170.50      3.03820E-03
  171.50      2.98590E-03
  172.50      2.98290E-03
  173.50      2.98380E-03
  174.50      2.96030E-03
  175.50      2.93460E-03
  176.50      2.92170E-03
  177.50      2.90250E-03
  178.50      2.88360E-03
  179.50      2.86110E-03
  180.50      2.84330E-03
  181.50      2.82390E-03
  182.50      2.80370E-03
  183.50      2.78690E-03
  184.50      2.76710E-03
  185.50      2.74710E-03
  186.50      2.72820E-03
  187.50      2.71000E-03
  188.50      2.69180E-03
  189.50      2.67660E-03
  190.50      2.65950E-03
  191.50      2.64150E-03
  192.50      2.61590E-03
  193.50      2.60680E-03
  194.50      2.58990E-03
  195.50      2.57130E-03
  196.70      2.55240E-03
  197.60      2.53760E-03
  198.40      2.52440E-03
  199.50      2.50600E-03
  200.50      2.49030E-03
  201.50      2.47420E-03
  202.50      2.45810E-03
  203.50      2.44230E-03
  204.50      2.42640E-03
  205.50      1.88820E-03
  206.50      1.82460E-03
  207.40      1.84900E-03
  207.80      1.88530E-03
  208.50      1.97870E-03
  209.50      2.18310E-03
  210.50      2.31870E-03
  211.50      2.32850E-03
  212.50      2.31490E-03
  213.50      2.29590E-03
  214.50      2.28500E-03
  215.50      2.29920E-03
  216.50      2.23450E-03
  217.50      2.28860E-03
  218.50      2.20370E-03
  219.50      2.26050E-03
  220.50      2.25190E-03
  221.50      2.15610E-03
  222.50      2.22350E-03
  223.50      2.21270E-03
  224.50      2.19470E-03
  225.50      2.10370E-03
  226.50      2.17120E-03
  227.50      2.15820E-03
  228.50      2.14410E-03
  229.50      2.11500E-03
  230.50      2.04210E-03
  231.50      2.10200E-03
  232.50      2.09290E-03
  233.50      2.08020E-03
  234.50      2.06750E-03
  235.50      2.05500E-03
  236.50      2.04270E-03
  237.50      2.02990E-03
  238.50      1.94700E-03
  239.50      2.00250E-03
  240.50      1.99380E-03
  241.50      1.98190E-03
  242.50      1.97040E-03
  243.50      1.95860E-03
  244.50      1.94710E-03
  245.50      1.93520E-03
  246.50      1.92420E-03
  247.50      1.91300E-03
  248.50      1.90170E-03
  249.50      1.85440E-03
  250.50      1.87010E-03
  251.30      1.74210E-03
  251.80      1.85790E-03
  252.50      1.85740E-03
  253.50      1.84740E-03
  254.50      1.83690E-03
  255.50      1.82620E-03
  256.50      1.81590E-03
  257.50      1.80550E-03
  258.50      1.79530E-03
  259.50      1.78470E-03
  260.50      1.77650E-03
  261.50      1.76640E-03
  262.50      1.75660E-03
  263.50      1.74670E-03
  264.50      1.73690E-03
  265.50      1.72690E-03
  266.50      1.71680E-03
  267.50      1.70640E-03
  268.50      1.69860E-03
  269.50      1.68710E-03
  270.50      1.68000E-03
  271.50      1.67070E-03
  272.50      1.65800E-03
  273.50      1.60160E-03
  274.50      1.64350E-03
  275.50      1.63460E-03
  276.50      1.62200E-03
  277.50      1.61690E-03
  278.50      1.60820E-03
  279.50      1.59900E-03
  280.50      1.59080E-03
  281.50      1.58240E-03
  282.50      1.57020E-03
  283.50      1.56360E-03
  284.50      1.55720E-03
  285.50      1.54900E-03
  286.50      1.54080E-03
  287.50      1.53260E-03
  288.50      1.52460E-03
  289.50      1.51650E-03
  291.00      1.50460E-03
  293.00      1.48900E-03
  295.00      1.47030E-03
  297.00      1.45840E-03
  299.00      1.44310E-03
  301.00      1.42870E-03
  303.00      1.41380E-03
  305.00      1.39960E-03
  307.00      1.38590E-03
  309.00      1.37200E-03
  311.00      1.35830E-03
  313.00      1.34510E-03
  315.00      1.33190E-03
  317.00      1.31880E-03
  319.00      1.30100E-03
  321.00      1.27360E-03
  323.00      1.28070E-03
  325.00      1.26830E-03
  327.00      1.25570E-03
  329.00      1.24400E-03
  331.00      1.23250E-03
  333.00      1.22090E-03
  335.00      1.20870E-03
  337.00      1.19810E-03
  339.00      1.18700E-03
  341.00      1.17600E-03
  343.00      1.16410E-03
  345.00      1.15220E-03
  347.00      1.14270E-03
  349.00      1.13310E-03
  351.00      1.12330E-03
  353.00      1.11270E-03
  355.00      1.10220E-03
  357.00      1.09430E-03
  359.00      1.08160E-03
  361.00      1.07350E-03
  363.00      1.06220E-03
  364.00      1.04470E-03
  365.00      9.72800E-04
  367.00      9.65850E-04
  369.00      9.59190E-04
  371.00      9.53600E-04
  373.00      9.54820E-04
  375.00      9.60970E-04
  377.00      9.62190E-04
  379.00      9.77380E-04
  381.00      9.97130E-04
  383.00      9.41430E-04
  385.00      1.00110E-03
  387.00      1.01060E-03
  389.00      9.07930E-04
  391.00      9.99130E-04
  393.00      9.91450E-04
  395.00      9.85090E-04
  397.00      8.75000E-04
  399.00      9.65910E-04
  401.00      9.65330E-04
  403.00      9.34520E-04
  405.00      9.54560E-04
  407.00      9.44010E-04
  409.00      9.03390E-04
  411.00      8.45910E-04
  413.00      9.17110E-04
  415.00      9.13180E-04
  417.00      9.08590E-04
  419.00      8.96890E-04
  421.00      8.82450E-04
  423.00      8.87130E-04
  425.00      8.79990E-04
  427.00      8.72880E-04
  429.00      8.65900E-04
  431.00      8.56030E-04
  433.00      8.12650E-04
  435.00      7.77670E-04
  437.00      8.34840E-04
  439.00      8.24600E-04
  441.00      8.25770E-04
  443.00      8.18840E-04
  445.00      8.13070E-04
  447.00      7.92610E-04
  449.00      8.00540E-04
  451.00      7.94410E-04
  453.00      7.86870E-04
  455.00      7.68740E-04
  457.00      7.76480E-04
  459.00      7.70600E-04
  461.00      7.64820E-04
  463.00      7.58940E-04
  465.00      7.52320E-04
  467.00      7.46960E-04
  469.00      7.18850E-04
  471.00      7.33390E-04
  473.00      7.31390E-04
  475.00      7.26030E-04
  477.00      7.20730E-04
  479.00      7.15480E-04
  481.00      7.10280E-04
  483.00      7.02550E-04
  485.00      6.73980E-04
  487.00      6.36720E-04
  489.00      6.86190E-04
  491.00      6.84720E-04
  493.00      6.73450E-04
  495.00      6.75490E-04
  497.00      6.70740E-04
  499.00      6.66030E-04
  501.00      6.58290E-04
  503.00      6.56750E-04
  505.00      6.51250E-04
  507.00      6.47670E-04
  509.00      6.43200E-04
  511.00      6.38770E-04
  513.00      6.34390E-04
  515.00      6.30060E-04
  517.00      6.25760E-04
  519.00      6.21510E-04
  521.00      6.17310E-04
  523.00      6.13140E-04
  525.00      6.09020E-04
  527.00      6.04930E-04
  529.00      6.00900E-04
  531.00      5.96900E-04
  533.00      5.92940E-04
  535.00      5.89010E-04
  537.00      5.85130E-04
  539.00      5.81280E-04
  541.00      5.67000E-04
  543.00      5.73580E-04
  545.00      5.69970E-04
  547.00      5.66270E-04
  549.00      5.62610E-04
  551.00      5.58970E-04
  553.00      5.55390E-04
  555.00      5.51830E-04
  557.00      5.48300E-04
  559.00      5.44770E-04
  561.00      5.41360E-04
  563.00      5.37930E-04
  565.00      5.34540E-04
  567.00      5.31180E-04
  569.00      5.23240E-04
  571.00      4.99960E-04
  573.00      4.97050E-04
  575.00      4.94180E-04
  577.00      4.91340E-04
  579.00      4.88580E-04
  581.00      4.85930E-04
  583.00      4.83610E-04
  585.00      4.81690E-04
  587.00      4.74610E-04
  589.00      4.78480E-04
  591.00      4.77690E-04
  593.00      4.76850E-04
  595.00      4.76180E-04
  597.00      4.75660E-04
  599.00      4.75410E-04
  601.00      4.74590E-04
  603.00      4.73390E-04
  605.00      4.72710E-04
  607.00      4.70180E-04
  609.00      4.68010E-04
  611.00      4.65070E-04
  613.00      4.62520E-04
  615.00      4.59820E-04
  617.00      4.56850E-04
  619.00      4.54470E-04
  621.00      4.51840E-04
  623.00      4.48640E-04
  625.00      4.46620E-04
  627.00      4.44060E-04
  629.00      4.41510E-04
  631.00      4.37900E-04
  633.00      4.36470E-04
  635.00      4.33990E-04
  637.00      4.31530E-04
  639.00      4.29050E-04
  641.00      4.25090E-04
  643.00      4.24260E-04
  645.00      4.21880E-04
  647.00      4.19520E-04
  649.00      4.17180E-04
  651.00      4.14450E-04
  653.00      4.09170E-04
  655.00      4.01410E-04
  657.00      3.76360E-04
  659.00      4.03560E-04
  661.00      4.03380E-04
  663.00      4.01320E-04
  665.00      3.99180E-04
  667.00      3.94620E-04
  669.00      3.90190E-04
  671.00      3.92680E-04
  673.00      3.90590E-04
  675.00      3.88490E-04
  677.00      3.86400E-04
  679.00      3.84330E-04
  681.00      3.82280E-04
  683.00      3.80240E-04
  685.00      3.78220E-04
  687.00      3.76210E-04
  689.00      3.71010E-04
  691.00      3.72090E-04
  693.00      3.70290E-04
  695.00      3.68350E-04
  697.00      3.66420E-04
  699.00      3.64510E-04
  701.00      3.62610E-04
  703.00      3.60720E-04
  705.00      3.58860E-04
  707.00      3.54620E-04
  709.00      3.55160E-04
  711.00      3.53340E-04
  713.00      3.51530E-04
  715.00      3.49730E-04
  717.00      3.45600E-04
  719.00      3.44750E-04
  721.00      3.44420E-04
  723.00      3.42680E-04
  725.00      3.40950E-04
  727.00      3.39230E-04
  729.00      3.36450E-04
  731.00      3.35830E-04
  733.00      3.34160E-04
  735.00      3.32490E-04
  737.00      3.30840E-04
  739.00      3.29190E-04
  741.00      3.27570E-04
  743.00      3.25950E-04
  745.00      3.24350E-04
  747.00      3.22760E-04
  749.00      3.21170E-04
  751.00      3.19600E-04
  753.00      3.18050E-04
  755.00      3.16500E-04
  757.00      3.14960E-04
  759.00      3.09710E-04
  761.00      3.11680E-04
  763.00      3.10420E-04
  765.00      3.08930E-04
  767.00      3.07450E-04
  769.00      3.05970E-04
  771.00      3.04510E-04
  773.00      3.03060E-04
  775.00      3.01620E-04
  777.00      3.00190E-04
  779.00      2.98770E-04
  781.00      2.97340E-04
  783.00      2.95960E-04
  785.00      2.94640E-04
  787.00      2.93260E-04
  789.00      2.91890E-04
  791.00      2.90530E-04
  793.00      2.89180E-04
  795.00      2.87840E-04
  797.00      2.86500E-04
  799.00      2.85180E-04
  801.00      2.83860E-04
  803.00      2.82560E-04
  805.00      2.81260E-04
  807.00      2.79970E-04
  809.00      2.78690E-04
  811.00      2.77420E-04
  813.00      2.76160E-04
  815.00      2.74900E-04
  817.00      2.73660E-04
  819.00      2.71600E-04
  821.00      2.63990E-04
  823.00      2.61310E-04
  825.00      2.61360E-04
  827.00      2.60530E-04
  829.00      2.59590E-04
  831.00      2.58510E-04
  833.00      2.57370E-04
  835.00      2.56090E-04
  837.00      2.55150E-04
  839.00      2.54130E-04
  841.00      2.53090E-04
  843.00      2.52040E-04
  845.00      2.50740E-04
  847.00      2.50050E-04
  849.00      2.49080E-04
  851.00      2.48230E-04
  853.00      2.47220E-04
  855.00      2.46320E-04
  857.00      2.45690E-04
  859.00      2.44000E-04
  861.00      2.43680E-04
  863.00      2.43500E-04
  865.00      2.41940E-04
  867.00      2.40190E-04
  869.00      2.41170E-04
  871.00      2.40960E-04
  873.00      2.39020E-04
  875.00      2.35190E-04
  877.00      2.36810E-04
  879.00      2.38300E-04
  881.00      2.38030E-04
  883.00      2.36850E-04
  885.00      2.31880E-04
  887.00      2.27640E-04
  889.00      2.33180E-04
  891.00      2.34140E-04
  893.00      2.33680E-04
  895.00      2.33050E-04
  897.00      2.31680E-04
  899.00      2.28300E-04
  901.00      2.19220E-04
  903.00      2.21840E-04
  905.00      2.26770E-04
  907.00      2.26460E-04
  909.00      2.26480E-04
  911.00      2.25740E-04
  913.00      2.25330E-04
  915.00      2.24330E-04
  917.00      2.22750E-04
  919.00      2.21120E-04
  921.00      2.16100E-04
  923.00      2.05940E-04
  925.00      2.14020E-04
  927.00      2.17360E-04
  929.00      2.17460E-04
  931.00      2.16760E-04
  933.00      2.16050E-04
  935.00      2.11460E-04
  937.00      2.14100E-04
  939.00      2.13750E-04
  941.00      2.12900E-04
  943.00      2.12060E-04
  945.00      2.11210E-04
  947.00      2.09930E-04
  949.00      2.08930E-04
  951.00      2.06520E-04
  953.00      2.01350E-04
  955.00      1.91730E-04
  957.00      2.01580E-04
  959.00      2.04140E-04
  961.00      2.04070E-04
  963.00      2.03500E-04
  965.00      2.03050E-04
  967.00      2.02260E-04
  969.00      2.01430E-04
  971.00      2.00510E-04
  973.00      1.99910E-04
  975.00      1.99060E-04
  977.00      1.97910E-04
  979.00      1.97610E-04
  981.00      1.96850E-04
  983.00      1.96100E-04
  985.00      1.95350E-04
  987.00      1.94600E-04
  989.00      1.93860E-04
  991.00      1.93120E-04
  993.00      1.92390E-04
  995.00      1.91660E-04
  997.00      1.90930E-04
  999.00      1.89770E-04
  1002.5      1.84100E-04
  1007.5      1.81010E-04
  1012.5      1.82770E-04
  1017.5      1.83730E-04
  1022.5      1.82020E-04
  1027.5      1.80370E-04
  1032.5      1.78420E-04
  1037.5      1.77090E-04
  1042.5      1.75080E-04
  1047.5      1.73910E-04
  1052.5      1.72350E-04
  1057.5      1.70810E-04
  1062.5      1.69290E-04
  1067.5      1.67720E-04
  1072.5      1.66310E-04
  1077.5      1.64850E-04
  1082.5      1.62710E-04
  1087.5      1.61570E-04
  1092.5      1.53320E-04
  1097.5      1.56730E-04
  1102.5      1.57480E-04
  1107.5      1.56440E-04
  1112.5      1.55140E-04
  1117.5      1.53870E-04
  1122.5      1.52550E-04
  1127.5      1.51290E-04
  1132.5      1.50020E-04
  1137.5      1.48770E-04
  1142.5      1.47530E-04
  1147.5      1.46310E-04
  1152.5      1.45100E-04
  1157.5      1.43910E-04
  1162.5      1.41600E-04
  1167.5      1.40970E-04
  1172.5      1.40430E-04
  1177.5      1.39290E-04
  1182.5      1.38170E-04
  1187.5      1.37070E-04
  1192.5      1.35970E-04
  1197.5      1.34330E-04
  1202.5      1.33830E-04
  1207.5      1.32770E-04
  1212.5      1.31730E-04
  1217.5      1.30700E-04
  1222.5      1.29680E-04
  1227.5      1.28680E-04
  1232.5      1.27680E-04
  1237.5      1.26700E-04
  1242.5      1.25730E-04
  1247.5      1.24760E-04
  1252.5      1.23740E-04
  1257.5      1.22880E-04
  1262.5      1.21950E-04
  1267.5      1.21030E-04
  1272.5      1.20100E-04
  1277.5      1.17950E-04
  1282.5      1.12790E-04
  1287.5      1.16850E-04
  1292.5      1.16590E-04
  1297.5      1.15480E-04
  1302.5      1.14880E-04
  1307.5      1.14040E-04
  1312.5      1.13210E-04
  1317.5      1.12390E-04
  1322.5      1.11580E-04
  1327.5      1.10770E-04
  1332.5      1.09980E-04
  1337.5      1.09190E-04
  1342.5      1.08390E-04
  1347.5      1.07640E-04
  1352.5      1.06880E-04
  1357.5      1.06130E-04
  1362.5      1.05380E-04
  1367.5      1.04640E-04
  1372.5      1.03910E-04
  1377.5      1.03190E-04
  1382.5      1.02480E-04
  1387.5      1.01770E-04
  1392.5      1.01070E-04
  1397.5      1.00370E-04
