 Castelli and Kurucz 2004-2012 Atmosphere
 T     36000.     G    4.50000 [-2.0] N(He)/Ntot=0.0784 VTURB=2.0  L/H=1.25 ODF
 Wavelength  Eddington Hnu
   (nm)    (ergs/s/cm2/Hz/sr)
  9.0900      2.42510E-27
  9.3500      1.15310E-26
  9.6100      5.07210E-26
  9.7700      1.21840E-25
  9.9600      3.33700E-25
  10.200      1.13520E-24
  10.380      2.75180E-24
  10.560      6.49140E-24
  10.770      1.71010E-23
  11.040      5.65930E-23
  11.400      2.57740E-22
  11.780      1.16750E-21
  12.130      4.34990E-21
  12.480      1.51540E-20
  12.710      3.32560E-20
  12.840      5.12650E-20
  13.050      1.01420E-19
  13.240      1.84790E-19
  13.390      2.93450E-19
  13.660      6.59120E-19
  13.980      1.65630E-18
  14.330      4.34050E-18
  14.720      1.20610E-17
  15.100      3.11180E-17
  15.520      8.41790E-17
  15.880      1.89770E-16
  16.200      3.79690E-16
  16.600      8.70730E-16
  17.030      2.03510E-15
  17.340      3.65950E-15
  17.680      6.80280E-15
  18.020      1.23540E-14
  18.170      1.59590E-14
  18.610      3.30400E-14
  19.100      7.14500E-14
  19.390      1.10680E-13
  19.840      2.12700E-13
  20.180      3.41800E-13
  20.500      5.26480E-13
  21.050      1.07210E-12
  21.620      2.15290E-12
  21.980      3.28150E-12
  22.300      4.71910E-12
  22.680      7.16350E-12
  23.000      4.22630E-10
  23.400      2.13570E-09
  24.000      6.85810E-09
  24.650      2.74740E-08
  25.240      7.05180E-08
  25.680      4.95120E-08
  26.000      2.57620E-07
  26.400      6.59270E-07
  26.850      1.19510E-06
  27.350      1.74040E-06
  27.850      1.94380E-06
  28.400      3.03290E-06
  29.000      3.38750E-06
  29.600      2.09280E-06
  30.100      3.56420E-07
  30.800      1.32710E-06
  31.800      4.70700E-06
  32.800      5.88230E-06
  33.800      6.55050E-06
  34.800      7.63320E-06
  35.700      8.49080E-06
  36.600      9.80890E-06
  37.500      1.04670E-05
  38.500      1.11850E-05
  39.500      1.28780E-05
  40.500      1.44500E-05
  41.400      1.60190E-05
  42.200      1.71130E-05
  43.000      1.84590E-05
  44.100      2.14420E-05
  45.100      2.39690E-05
  46.000      2.61460E-05
  47.000      2.96410E-05
  48.000      3.32590E-05
  49.000      3.62910E-05
  50.000      4.13040E-05
  50.600      1.19910E-04
  51.200      2.83900E-04
  52.000      2.83830E-04
  53.000      2.90740E-04
  54.000      2.75880E-04
  55.000      2.96920E-04
  56.000      3.31720E-04
  57.000      3.43320E-04
  58.000      3.37790E-04
  59.000      3.59000E-04
  60.000      3.58880E-04
  61.000      3.67670E-04
  62.000      3.98670E-04
  63.000      4.06390E-04
  64.000      4.17870E-04
  65.000      4.24920E-04
  65.800      4.23850E-04
  66.500      4.38490E-04
  67.500      4.57980E-04
  68.500      4.50550E-04
  69.500      4.77050E-04
  70.500      4.72510E-04
  71.600      5.02910E-04
  72.600      5.13720E-04
  73.500      5.26930E-04
  74.500      5.30710E-04
  75.500      5.40390E-04
  76.500      5.46470E-04
  77.500      5.60310E-04
  78.500      5.74140E-04
  79.500      5.85020E-04
  80.500      5.94150E-04
  81.500      6.06460E-04
  82.500      6.21530E-04
  83.500      6.04840E-04
  84.500      6.39730E-04
  85.500      6.49050E-04
  86.500      6.63860E-04
  87.500      6.74190E-04
  88.500      6.84080E-04
  89.500      6.94090E-04
  90.500      6.99380E-04
  91.500      6.70080E-04
  92.500      1.46590E-03
  93.500      2.07750E-03
  94.500      2.84210E-03
  95.500      3.12440E-03
  96.500      3.66630E-03
  97.500      2.69700E-03
  98.500      3.64990E-03
  99.500      3.43990E-03
  100.50      3.64680E-03
  101.50      3.64790E-03
  102.50      2.76350E-03
  103.50      3.58710E-03
  104.50      3.66060E-03
  105.50      3.64580E-03
  106.50      3.56630E-03
  107.50      3.55650E-03
  108.50      3.38860E-03
  109.50      3.56560E-03
  110.50      3.52380E-03
  111.50      3.48850E-03
  112.50      3.40630E-03
  113.50      3.48040E-03
  114.50      3.45740E-03
  115.50      3.41240E-03
  116.50      3.39870E-03
  117.50      3.10870E-03
  118.50      3.32720E-03
  119.50      3.32230E-03
  120.50      3.25990E-03
  121.50      2.52380E-03
  122.50      3.23470E-03
  123.50      3.25080E-03
  124.50      3.21050E-03
  125.50      3.23250E-03
  126.50      3.21920E-03
  127.50      3.20110E-03
  128.50      3.18340E-03
  129.50      3.13880E-03
  130.50      3.13060E-03
  131.50      3.12410E-03
  132.50      3.09850E-03
  133.50      3.07180E-03
  134.50      3.06620E-03
  135.50      3.04120E-03
  136.50      3.01720E-03
  137.50      2.99130E-03
  138.50      2.97800E-03
  139.50      2.91270E-03
  140.50      2.88840E-03
  141.50      2.92160E-03
  142.50      2.88220E-03
  143.50      2.88230E-03
  144.20      2.86740E-03
  144.70      2.85790E-03
  145.50      2.83810E-03
  146.50      2.82390E-03
  147.50      2.80530E-03
  148.50      2.79520E-03
  149.50      2.77110E-03
  150.50      2.75860E-03
  151.20      2.74930E-03
  151.70      2.73550E-03
  152.50      2.71540E-03
  153.50      2.66660E-03
  154.50      2.58460E-03
  155.50      2.58320E-03
  156.50      2.60870E-03
  157.50      2.61300E-03
  158.50      2.60590E-03
  159.50      2.58770E-03
  160.50      2.53940E-03
  161.50      2.52100E-03
  162.50      2.50140E-03
  163.50      2.45460E-03
  164.50      2.35200E-03
  165.50      2.48230E-03
  166.50      2.46900E-03
  167.20      2.43980E-03
  167.70      2.46720E-03
  168.50      2.44960E-03
  169.50      2.43550E-03
  170.50      2.41560E-03
  171.50      2.37490E-03
  172.50      2.36960E-03
  173.50      2.38140E-03
  174.50      2.36290E-03
  175.50      2.34150E-03
  176.50      2.33570E-03
  177.50      2.32300E-03
  178.50      2.30910E-03
  179.50      2.29110E-03
  180.50      2.27930E-03
  181.50      2.26470E-03
  182.50      2.24910E-03
  183.50      2.23900E-03
  184.50      2.22260E-03
  185.50      2.20620E-03
  186.50      2.19190E-03
  187.50      2.17960E-03
  188.50      2.16590E-03
  189.50      2.15460E-03
  190.50      2.14390E-03
  191.50      2.12930E-03
  192.50      2.10680E-03
  193.50      2.10410E-03
  194.50      2.09240E-03
  195.50      2.07640E-03
  196.70      2.06400E-03
  197.60      2.05340E-03
  198.40      2.04300E-03
  199.50      2.02820E-03
  200.50      2.01780E-03
  201.50      2.00580E-03
  202.50      1.99350E-03
  203.50      1.98130E-03
  204.50      1.96910E-03
  205.50      1.59040E-03
  206.50      1.54670E-03
  207.40      1.57380E-03
  207.80      1.60450E-03
  208.50      1.69170E-03
  209.50      1.85240E-03
  210.50      1.90040E-03
  211.50      1.89540E-03
  212.50      1.88380E-03
  213.50      1.87060E-03
  214.50      1.86230E-03
  215.50      1.87220E-03
  216.50      1.82690E-03
  217.50      1.86140E-03
  218.50      1.80600E-03
  219.50      1.83870E-03
  220.50      1.83010E-03
  221.50      1.77210E-03
  222.50      1.80780E-03
  223.50      1.79780E-03
  224.50      1.78580E-03
  225.50      1.73170E-03
  226.50      1.76610E-03
  227.50      1.75580E-03
  228.50      1.74480E-03
  229.50      1.71680E-03
  230.50      1.68300E-03
  231.50      1.71400E-03
  232.50      1.70520E-03
  233.50      1.69530E-03
  234.50      1.68550E-03
  235.50      1.67570E-03
  236.50      1.66610E-03
  237.50      1.65630E-03
  238.50      1.60710E-03
  239.50      1.63550E-03
  240.50      1.62810E-03
  241.50      1.61880E-03
  242.50      1.60970E-03
  243.50      1.60050E-03
  244.50      1.59150E-03
  245.50      1.58220E-03
  246.50      1.57360E-03
  247.50      1.56480E-03
  248.50      1.55600E-03
  249.50      1.50790E-03
  250.50      1.53470E-03
  251.30      1.45410E-03
  251.80      1.52260E-03
  252.50      1.52140E-03
  253.50      1.51330E-03
  254.50      1.50490E-03
  255.50      1.49660E-03
  256.50      1.48850E-03
  257.50      1.48030E-03
  258.50      1.47220E-03
  259.50      1.46390E-03
  260.50      1.45850E-03
  261.50      1.45040E-03
  262.50      1.44270E-03
  263.50      1.43470E-03
  264.50      1.42670E-03
  265.50      1.41850E-03
  266.50      1.41010E-03
  267.50      1.40160E-03
  268.50      1.39670E-03
  269.50      1.38620E-03
  270.50      1.38200E-03
  271.50      1.37450E-03
  272.50      1.36320E-03
  273.50      1.33080E-03
  274.50      1.35300E-03
  275.50      1.34590E-03
  276.50      1.33400E-03
  277.50      1.33180E-03
  278.50      1.32490E-03
  279.50      1.31730E-03
  280.50      1.31100E-03
  281.50      1.30430E-03
  282.50      1.29210E-03
  283.50      1.28860E-03
  284.50      1.28420E-03
  285.50      1.27760E-03
  286.50      1.27100E-03
  287.50      1.26450E-03
  288.50      1.25810E-03
  289.50      1.25170E-03
  291.00      1.24210E-03
  293.00      1.22960E-03
  295.00      1.21310E-03
  297.00      1.20500E-03
  299.00      1.19270E-03
  301.00      1.18120E-03
  303.00      1.16920E-03
  305.00      1.15780E-03
  307.00      1.14680E-03
  309.00      1.13550E-03
  311.00      1.12460E-03
  313.00      1.11400E-03
  315.00      1.10330E-03
  317.00      1.09270E-03
  319.00      1.07720E-03
  321.00      1.06040E-03
  323.00      1.06190E-03
  325.00      1.05190E-03
  327.00      1.04200E-03
  329.00      1.03210E-03
  331.00      1.02310E-03
  333.00      1.01370E-03
  335.00      1.00340E-03
  337.00      9.95170E-04
  339.00      9.86170E-04
  341.00      9.77220E-04
  343.00      9.66820E-04
  345.00      9.56430E-04
  347.00      9.49310E-04
  349.00      9.40810E-04
  351.00      9.33500E-04
  353.00      9.25300E-04
  355.00      9.16820E-04
  357.00      9.11500E-04
  359.00      9.00030E-04
  361.00      8.93800E-04
  363.00      8.84280E-04
  364.00      8.75670E-04
  365.00      8.31120E-04
  367.00      8.25690E-04
  369.00      8.19790E-04
  371.00      8.12380E-04
  373.00      8.07320E-04
  375.00      8.13860E-04
  377.00      8.11860E-04
  379.00      8.30790E-04
  381.00      8.50950E-04
  383.00      7.92170E-04
  385.00      8.58920E-04
  387.00      8.64920E-04
  389.00      7.69340E-04
  391.00      8.56750E-04
  393.00      8.47750E-04
  395.00      8.44080E-04
  397.00      7.41960E-04
  399.00      8.28250E-04
  401.00      8.24890E-04
  403.00      7.98760E-04
  405.00      8.16310E-04
  407.00      8.08030E-04
  409.00      7.75740E-04
  411.00      7.19110E-04
  413.00      7.84280E-04
  415.00      7.79950E-04
  417.00      7.76760E-04
  419.00      7.69030E-04
  421.00      7.58260E-04
  423.00      7.58940E-04
  425.00      7.52870E-04
  427.00      7.46830E-04
  429.00      7.41030E-04
  431.00      7.33570E-04
  433.00      6.98040E-04
  435.00      6.62660E-04
  437.00      7.15810E-04
  439.00      7.04100E-04
  441.00      7.07090E-04
  443.00      7.00890E-04
  445.00      6.96430E-04
  447.00      6.76840E-04
  449.00      6.85830E-04
  451.00      6.80650E-04
  453.00      6.75020E-04
  455.00      6.63050E-04
  457.00      6.65490E-04
  459.00      6.60480E-04
  461.00      6.55600E-04
  463.00      6.50610E-04
  465.00      6.44380E-04
  467.00      6.40910E-04
  469.00      6.21300E-04
  471.00      6.27940E-04
  473.00      6.27330E-04
  475.00      6.22790E-04
  477.00      6.18290E-04
  479.00      6.13840E-04
  481.00      6.09430E-04
  483.00      6.03690E-04
  485.00      5.79990E-04
  487.00      5.42890E-04
  489.00      5.89750E-04
  491.00      5.87880E-04
  493.00      5.76770E-04
  495.00      5.79860E-04
  497.00      5.75850E-04
  499.00      5.71840E-04
  501.00      5.64310E-04
  503.00      5.63950E-04
  505.00      5.58730E-04
  507.00      5.56220E-04
  509.00      5.52410E-04
  511.00      5.48640E-04
  513.00      5.44910E-04
  515.00      5.41220E-04
  517.00      5.37560E-04
  519.00      5.33940E-04
  521.00      5.30360E-04
  523.00      5.26810E-04
  525.00      5.23290E-04
  527.00      5.19810E-04
  529.00      5.16380E-04
  531.00      5.12970E-04
  533.00      5.09590E-04
  535.00      5.06250E-04
  537.00      5.02940E-04
  539.00      4.99660E-04
  541.00      4.90830E-04
  543.00      4.93190E-04
  545.00      4.90010E-04
  547.00      4.86860E-04
  549.00      4.83730E-04
  551.00      4.80640E-04
  553.00      4.77570E-04
  555.00      4.74540E-04
  557.00      4.71530E-04
  559.00      4.68520E-04
  561.00      4.65600E-04
  563.00      4.62680E-04
  565.00      4.59780E-04
  567.00      4.56910E-04
  569.00      4.51520E-04
  571.00      4.38300E-04
  573.00      4.35740E-04
  575.00      4.33190E-04
  577.00      4.30680E-04
  579.00      4.28210E-04
  581.00      4.25820E-04
  583.00      4.23660E-04
  585.00      4.21900E-04
  587.00      4.13530E-04
  589.00      4.18430E-04
  591.00      4.17320E-04
  593.00      4.16020E-04
  595.00      4.14810E-04
  597.00      4.13660E-04
  599.00      4.12640E-04
  601.00      4.11110E-04
  603.00      4.09340E-04
  605.00      4.07380E-04
  607.00      4.04980E-04
  609.00      4.02600E-04
  611.00      4.00240E-04
  613.00      3.97900E-04
  615.00      3.95590E-04
  617.00      3.93290E-04
  619.00      3.91020E-04
  621.00      3.88760E-04
  623.00      3.86370E-04
  625.00      3.84300E-04
  627.00      3.82100E-04
  629.00      3.79920E-04
  631.00      3.77380E-04
  633.00      3.75610E-04
  635.00      3.73490E-04
  637.00      3.71380E-04
  639.00      3.69280E-04
  641.00      3.66610E-04
  643.00      3.65160E-04
  645.00      3.63120E-04
  647.00      3.61100E-04
  649.00      3.59090E-04
  651.00      3.57090E-04
  653.00      3.53210E-04
  655.00      3.46290E-04
  657.00      3.21790E-04
  659.00      3.47760E-04
  661.00      3.47400E-04
  663.00      3.45510E-04
  665.00      3.43710E-04
  667.00      3.39710E-04
  669.00      3.36680E-04
  671.00      3.38150E-04
  673.00      3.36350E-04
  675.00      3.34540E-04
  677.00      3.32760E-04
  679.00      3.30980E-04
  681.00      3.29220E-04
  683.00      3.27480E-04
  685.00      3.25740E-04
  687.00      3.24020E-04
  689.00      3.21000E-04
  691.00      3.20620E-04
  693.00      3.18940E-04
  695.00      3.17280E-04
  697.00      3.15630E-04
  699.00      3.13980E-04
  701.00      3.12360E-04
  703.00      3.10730E-04
  705.00      3.09140E-04
  707.00      3.04700E-04
  709.00      3.05970E-04
  711.00      3.04400E-04
  713.00      3.02850E-04
  715.00      3.01300E-04
  717.00      2.98780E-04
  719.00      2.97750E-04
  721.00      2.96750E-04
  723.00      2.95240E-04
  725.00      2.93760E-04
  727.00      2.92290E-04
  729.00      2.89460E-04
  731.00      2.89360E-04
  733.00      2.87930E-04
  735.00      2.86500E-04
  737.00      2.85080E-04
  739.00      2.83670E-04
  741.00      2.82270E-04
  743.00      2.80880E-04
  745.00      2.79520E-04
  747.00      2.78150E-04
  749.00      2.76780E-04
  751.00      2.75410E-04
  753.00      2.74100E-04
  755.00      2.72770E-04
  757.00      2.71450E-04
  759.00      2.68610E-04
  761.00      2.68830E-04
  763.00      2.67550E-04
  765.00      2.66270E-04
  767.00      2.65000E-04
  769.00      2.63730E-04
  771.00      2.62470E-04
  773.00      2.61220E-04
  775.00      2.59990E-04
  777.00      2.58760E-04
  779.00      2.57540E-04
  781.00      2.56280E-04
  783.00      2.55130E-04
  785.00      2.54040E-04
  787.00      2.52850E-04
  789.00      2.51670E-04
  791.00      2.50510E-04
  793.00      2.49350E-04
  795.00      2.48190E-04
  797.00      2.47000E-04
  799.00      2.45910E-04
  801.00      2.44780E-04
  803.00      2.43650E-04
  805.00      2.42540E-04
  807.00      2.41430E-04
  809.00      2.40220E-04
  811.00      2.39140E-04
  813.00      2.38150E-04
  815.00      2.36900E-04
  817.00      2.36000E-04
  819.00      2.34470E-04
  821.00      2.30310E-04
  823.00      2.28590E-04
  825.00      2.28350E-04
  827.00      2.27190E-04
  829.00      2.26550E-04
  831.00      2.25600E-04
  833.00      2.24570E-04
  835.00      2.23200E-04
  837.00      2.22530E-04
  839.00      2.21690E-04
  841.00      2.20780E-04
  843.00      2.19800E-04
  845.00      2.18320E-04
  847.00      2.18000E-04
  849.00      2.16980E-04
  851.00      2.16210E-04
  853.00      2.15220E-04
  855.00      2.14090E-04
  857.00      2.14210E-04
  859.00      2.11330E-04
  861.00      2.11340E-04
  863.00      2.12330E-04
  865.00      2.09930E-04
  867.00      2.06300E-04
  869.00      2.09980E-04
  871.00      2.10250E-04
  873.00      2.07410E-04
  875.00      2.00030E-04
  877.00      2.04630E-04
  879.00      2.07660E-04
  881.00      2.07370E-04
  883.00      2.06080E-04
  885.00      1.99300E-04
  887.00      1.92690E-04
  889.00      2.02280E-04
  891.00      2.03470E-04
  893.00      2.02900E-04
  895.00      2.02340E-04
  897.00      2.01200E-04
  899.00      1.97860E-04
  901.00      1.86120E-04
  903.00      1.90550E-04
  905.00      1.96920E-04
  907.00      1.96220E-04
  909.00      1.96520E-04
  911.00      1.96150E-04
  913.00      1.95440E-04
  915.00      1.94640E-04
  917.00      1.93380E-04
  919.00      1.92050E-04
  921.00      1.86890E-04
  923.00      1.74540E-04
  925.00      1.85340E-04
  927.00      1.88800E-04
  929.00      1.88890E-04
  931.00      1.87960E-04
  933.00      1.87630E-04
  935.00      1.85010E-04
  937.00      1.86130E-04
  939.00      1.85400E-04
  941.00      1.84660E-04
  943.00      1.83930E-04
  945.00      1.83200E-04
  947.00      1.81910E-04
  949.00      1.81440E-04
  951.00      1.79070E-04
  953.00      1.74080E-04
  955.00      1.63050E-04
  957.00      1.74970E-04
  959.00      1.77290E-04
  961.00      1.77060E-04
  963.00      1.76340E-04
  965.00      1.76120E-04
  967.00      1.75430E-04
  969.00      1.74690E-04
  971.00      1.73780E-04
  973.00      1.73400E-04
  975.00      1.72730E-04
  977.00      1.71950E-04
  979.00      1.71410E-04
  981.00      1.70750E-04
  983.00      1.70090E-04
  985.00      1.69440E-04
  987.00      1.68800E-04
  989.00      1.68150E-04
  991.00      1.67510E-04
  993.00      1.66880E-04
  995.00      1.66240E-04
  997.00      1.65610E-04
  999.00      1.64800E-04
  1002.5      1.59300E-04
  1007.5      1.56450E-04
  1012.5      1.59250E-04
  1017.5      1.59370E-04
  1022.5      1.57870E-04
  1027.5      1.56450E-04
  1032.5      1.54660E-04
  1037.5      1.53610E-04
  1042.5      1.52100E-04
  1047.5      1.50850E-04
  1052.5      1.49500E-04
  1057.5      1.48160E-04
  1062.5      1.46840E-04
  1067.5      1.45410E-04
  1072.5      1.44260E-04
  1077.5      1.42990E-04
  1082.5      1.40910E-04
  1087.5      1.40240E-04
  1092.5      1.32100E-04
  1097.5      1.36010E-04
  1102.5      1.36470E-04
  1107.5      1.35670E-04
  1112.5      1.34580E-04
  1117.5      1.33450E-04
  1122.5      1.32290E-04
  1127.5      1.31210E-04
  1132.5      1.30110E-04
  1137.5      1.29020E-04
  1142.5      1.27950E-04
  1147.5      1.26890E-04
  1152.5      1.25850E-04
  1157.5      1.24810E-04
  1162.5      1.23320E-04
  1167.5      1.22610E-04
  1172.5      1.21790E-04
  1177.5      1.20810E-04
  1182.5      1.19840E-04
  1187.5      1.18880E-04
  1192.5      1.17930E-04
  1197.5      1.16300E-04
  1202.5      1.16070E-04
  1207.5      1.15150E-04
  1212.5      1.14250E-04
  1217.5      1.13350E-04
  1222.5      1.12470E-04
  1227.5      1.11600E-04
  1232.5      1.10730E-04
  1237.5      1.09880E-04
  1242.5      1.09040E-04
  1247.5      1.08210E-04
  1252.5      1.07270E-04
  1257.5      1.06570E-04
  1262.5      1.05760E-04
  1267.5      1.04960E-04
  1272.5      1.04170E-04
  1277.5      1.02200E-04
  1282.5      9.73320E-05
  1287.5      1.01410E-04
  1292.5      1.01110E-04
  1297.5      1.00000E-04
  1302.5      9.96340E-05
  1307.5      9.89060E-05
  1312.5      9.81860E-05
  1317.5      9.74730E-05
  1322.5      9.67680E-05
  1327.5      9.60710E-05
  1332.5      9.53810E-05
  1337.5      9.46990E-05
  1342.5      9.39850E-05
  1347.5      9.33560E-05
  1352.5      9.26950E-05
  1357.5      9.20410E-05
  1362.5      9.13950E-05
  1367.5      9.07550E-05
  1372.5      9.01210E-05
  1377.5      8.94940E-05
  1382.5      8.88740E-05
  1387.5      8.82600E-05
  1392.5      8.76530E-05
  1397.5      8.70520E-05
