 Castelli and Kurucz 2004-2012 Atmosphere
 T     35000.     G    5.00000 [0.0a] VTURB=2  L/H=1.25 NOVER NEW ODF          
 Wavelength  Eddington Hnu
   (nm)    (ergs/s/cm2/Hz/sr)
  9.0900      1.82840E-29
  9.3500      8.72310E-29
  9.6100      3.84460E-28
  9.7700      9.28240E-28
  9.9600      2.55040E-27
  10.200      8.71610E-27
  10.380      2.12120E-26
  10.560      5.02450E-26
  10.770      1.32990E-25
  11.040      4.42750E-25
  11.400      2.03230E-24
  11.780      9.28590E-24
  12.130      3.48630E-23
  12.480      1.22250E-22
  12.710      2.69340E-22
  12.840      4.16050E-22
  13.050      8.25300E-22
  13.240      1.50830E-21
  13.390      2.40060E-21
  13.660      5.41170E-21
  13.980      1.36660E-20
  14.330      3.59700E-20
  14.720      1.00240E-19
  15.100      2.60560E-19
  15.520      7.09150E-19
  15.880      1.60770E-18
  16.200      3.22870E-18
  16.600      7.46680E-18
  17.030      1.75410E-17
  17.340      3.18510E-17
  17.680      6.00810E-17
  18.020      1.09980E-16
  18.170      1.43930E-16
  18.610      3.01690E-16
  19.100      6.63100E-16
  19.390      1.03660E-15
  19.840      2.03420E-15
  20.180      3.30660E-15
  20.500      5.15120E-15
  21.050      1.07260E-14
  21.620      2.19020E-14
  21.980      3.42060E-14
  22.300      4.99420E-14
  22.680      7.91110E-14
  23.000      2.55430E-11
  23.400      6.05380E-11
  24.000      9.59030E-11
  24.650      1.59390E-10
  25.240      2.66200E-10
  25.680      3.62220E-10
  26.000      5.62380E-10
  26.400      8.27430E-10
  26.850      1.25260E-09
  27.350      1.72460E-09
  27.850      2.14810E-09
  28.400      4.38320E-09
  29.000      6.31080E-09
  29.600      8.29180E-09
  30.100      1.22080E-08
  30.800      2.56050E-08
  31.800      5.36180E-08
  32.800      7.80180E-08
  33.800      1.36850E-07
  34.800      2.09910E-07
  35.700      4.12870E-07
  36.600      8.51010E-07
  37.500      1.01790E-06
  38.500      1.48750E-06
  39.500      2.76690E-06
  40.500      3.42330E-06
  41.400      4.61590E-06
  42.200      5.11640E-06
  43.000      5.76420E-06
  44.100      7.12000E-06
  45.100      8.30760E-06
  46.000      8.78200E-06
  47.000      1.04210E-05
  48.000      1.22740E-05
  49.000      1.31880E-05
  50.000      1.63700E-05
  50.600      2.25450E-05
  51.200      1.45050E-04
  52.000      1.37390E-04
  53.000      1.30120E-04
  54.000      1.25300E-04
  55.000      1.44190E-04
  56.000      1.86270E-04
  57.000      2.01560E-04
  58.000      1.92700E-04
  59.000      2.09940E-04
  60.000      1.69170E-04
  61.000      2.10500E-04
  62.000      2.54400E-04
  63.000      2.54220E-04
  64.000      2.60270E-04
  65.000      2.63100E-04
  65.800      2.18470E-04
  66.500      2.63790E-04
  67.500      2.98700E-04
  68.500      2.51200E-04
  69.500      3.20430E-04
  70.500      2.60920E-04
  71.600      3.54660E-04
  72.600      3.54300E-04
  73.500      3.63660E-04
  74.500      3.50810E-04
  75.500      3.58450E-04
  76.500      3.77820E-04
  77.500      3.94520E-04
  78.500      4.07250E-04
  79.500      4.17980E-04
  80.500      4.09140E-04
  81.500      4.17560E-04
  82.500      4.47180E-04
  83.500      3.75870E-04
  84.500      4.48920E-04
  85.500      4.52530E-04
  86.500      4.74060E-04
  87.500      4.83410E-04
  88.500      4.96690E-04
  89.500      5.08090E-04
  90.500      5.02630E-04
  91.500      4.94520E-04
  92.500      1.12350E-03
  93.500      1.78980E-03
  94.500      2.64000E-03
  95.500      3.07030E-03
  96.500      3.76570E-03
  97.500      1.76680E-03
  98.500      3.38300E-03
  99.500      3.02230E-03
  100.50      3.18600E-03
  101.50      3.36680E-03
  102.50      2.39180E-03
  103.50      3.35590E-03
  104.50      3.89920E-03
  105.50      3.79040E-03
  106.50      3.26870E-03
  107.50      3.49390E-03
  108.50      3.22760E-03
  109.50      3.57080E-03
  110.50      3.43490E-03
  111.50      3.42760E-03
  112.50      2.78640E-03
  113.50      3.37930E-03
  114.50      3.24660E-03
  115.50      3.11390E-03
  116.50      3.11350E-03
  117.50      2.27580E-03
  118.50      2.95620E-03
  119.50      2.87350E-03
  120.50      2.75760E-03
  121.50      2.01760E-03
  122.50      2.76140E-03
  123.50      2.99430E-03
  124.50      2.94490E-03
  125.50      2.97470E-03
  126.50      3.05150E-03
  127.50      3.14170E-03
  128.50      3.16900E-03
  129.50      2.95810E-03
  130.50      3.00920E-03
  131.50      3.18600E-03
  132.50      3.10190E-03
  133.50      3.06470E-03
  134.50      3.03710E-03
  135.50      3.04990E-03
  136.50      2.94580E-03
  137.50      2.91210E-03
  138.50      2.85070E-03
  139.50      2.25260E-03
  140.50      2.35570E-03
  141.50      2.81680E-03
  142.50      2.57900E-03
  143.50      2.75520E-03
  144.20      2.76320E-03
  144.70      2.75860E-03
  145.50      2.66120E-03
  146.50      2.63630E-03
  147.50      2.65280E-03
  148.50      2.68030E-03
  149.50      2.62900E-03
  150.50      2.57210E-03
  151.20      2.56300E-03
  151.70      2.57540E-03
  152.50      2.52280E-03
  153.50      2.25850E-03
  154.50      1.99790E-03
  155.50      2.01980E-03
  156.50      2.21060E-03
  157.50      2.31680E-03
  158.50      2.32470E-03
  159.50      2.36100E-03
  160.50      2.26040E-03
  161.50      2.18220E-03
  162.50      2.24120E-03
  163.50      2.26110E-03
  164.50      2.25610E-03
  165.50      2.31790E-03
  166.50      2.28090E-03
  167.20      2.16310E-03
  167.70      2.45030E-03
  168.50      2.37590E-03
  169.50      2.32350E-03
  170.50      2.30120E-03
  171.50      2.24920E-03
  172.50      2.16840E-03
  173.50      2.26370E-03
  174.50      2.26580E-03
  175.50      2.24480E-03
  176.50      2.22540E-03
  177.50      2.18290E-03
  178.50      2.21980E-03
  179.50      2.19310E-03
  180.50      2.20530E-03
  181.50      2.16980E-03
  182.50      2.15510E-03
  183.50      2.16620E-03
  184.50      2.08160E-03
  185.50      2.10580E-03
  186.50      2.12300E-03
  187.50      2.08970E-03
  188.50      2.02500E-03
  189.50      2.00690E-03
  190.50      2.06130E-03
  191.50      2.01590E-03
  192.50      1.92300E-03
  193.50      2.02770E-03
  194.50      2.05740E-03
  195.50      1.92200E-03
  196.70      1.99860E-03
  197.60      2.04470E-03
  198.40      1.99050E-03
  199.50      1.96000E-03
  200.50      1.99880E-03
  201.50      2.00390E-03
  202.50      2.00310E-03
  203.50      1.95550E-03
  204.50      1.94430E-03
  205.50      1.60450E-03
  206.50      1.55890E-03
  207.40      1.59720E-03
  207.80      1.58740E-03
  208.50      1.64590E-03
  209.50      1.73180E-03
  210.50      1.85980E-03
  211.50      1.89980E-03
  212.50      1.86740E-03
  213.50      1.87460E-03
  214.50      1.85920E-03
  215.50      1.86570E-03
  216.50      1.80280E-03
  217.50      1.84910E-03
  218.50      1.80410E-03
  219.50      1.84560E-03
  220.50      1.83440E-03
  221.50      1.77060E-03
  222.50      1.80770E-03
  223.50      1.79760E-03
  224.50      1.78380E-03
  225.50      1.72800E-03
  226.50      1.76580E-03
  227.50      1.75910E-03
  228.50      1.72140E-03
  229.50      1.61280E-03
  230.50      1.66880E-03
  231.50      1.68870E-03
  232.50      1.69330E-03
  233.50      1.68450E-03
  234.50      1.67740E-03
  235.50      1.66040E-03
  236.50      1.64770E-03
  237.50      1.62680E-03
  238.50      1.56480E-03
  239.50      1.59180E-03
  240.50      1.60440E-03
  241.50      1.58830E-03
  242.50      1.58910E-03
  243.50      1.57150E-03
  244.50      1.56760E-03
  245.50      1.55550E-03
  246.50      1.55170E-03
  247.50      1.54050E-03
  248.50      1.51340E-03
  249.50      1.19440E-03
  250.50      1.46780E-03
  251.30      1.41170E-03
  251.80      1.44240E-03
  252.50      1.49350E-03
  253.50      1.49330E-03
  254.50      1.46830E-03
  255.50      1.46580E-03
  256.50      1.45640E-03
  257.50      1.45560E-03
  258.50      1.44950E-03
  259.50      1.43230E-03
  260.50      1.43600E-03
  261.50      1.42000E-03
  262.50      1.41860E-03
  263.50      1.41140E-03
  264.50      1.40030E-03
  265.50      1.39410E-03
  266.50      1.37440E-03
  267.50      1.35420E-03
  268.50      1.36630E-03
  269.50      1.34850E-03
  270.50      1.34700E-03
  271.50      1.33850E-03
  272.50      1.32680E-03
  273.50      1.30100E-03
  274.50      1.32290E-03
  275.50      1.31410E-03
  276.50      1.30120E-03
  277.50      1.30670E-03
  278.50      1.29240E-03
  279.50      1.25750E-03
  280.50      1.27400E-03
  281.50      1.27660E-03
  282.50      1.26490E-03
  283.50      1.25060E-03
  284.50      1.25880E-03
  285.50      1.24660E-03
  286.50      1.23740E-03
  287.50      1.23050E-03
  288.50      1.22580E-03
  289.50      1.21640E-03
  291.00      1.19870E-03
  293.00      1.19850E-03
  295.00      1.17880E-03
  297.00      1.17010E-03
  299.00      1.15080E-03
  301.00      1.13040E-03
  303.00      1.11600E-03
  305.00      1.11560E-03
  307.00      1.11160E-03
  309.00      1.08820E-03
  311.00      1.08960E-03
  313.00      1.07250E-03
  315.00      1.06640E-03
  317.00      1.05380E-03
  319.00      1.04380E-03
  321.00      1.02780E-03
  323.00      1.02350E-03
  325.00      1.01880E-03
  327.00      9.99950E-04
  329.00      9.95760E-04
  331.00      9.85320E-04
  333.00      9.72910E-04
  335.00      9.61460E-04
  337.00      9.53970E-04
  339.00      9.51390E-04
  341.00      9.41450E-04
  343.00      9.35610E-04
  345.00      9.20420E-04
  347.00      9.15480E-04
  349.00      9.07380E-04
  351.00      8.99890E-04
  353.00      8.94690E-04
  355.00      8.84910E-04
  357.00      8.78930E-04
  359.00      8.66470E-04
  361.00      8.61380E-04
  363.00      8.51580E-04
  364.00      8.47520E-04
  365.00      8.17210E-04
  367.00      8.13300E-04
  369.00      8.06590E-04
  371.00      7.86360E-04
  373.00      7.84050E-04
  375.00      7.80520E-04
  377.00      7.64770E-04
  379.00      7.89010E-04
  381.00      8.13780E-04
  383.00      7.43820E-04
  385.00      8.29810E-04
  387.00      8.21700E-04
  389.00      7.15240E-04
  391.00      8.39410E-04
  393.00      8.30270E-04
  395.00      8.09930E-04
  397.00      6.85500E-04
  399.00      8.07800E-04
  401.00      8.07760E-04
  403.00      7.78480E-04
  405.00      8.01480E-04
  407.00      7.72900E-04
  409.00      7.24960E-04
  411.00      6.68680E-04
  413.00      7.59640E-04
  415.00      7.59440E-04
  417.00      7.64340E-04
  419.00      7.54820E-04
  421.00      7.47630E-04
  423.00      7.47050E-04
  425.00      7.31950E-04
  427.00      7.23050E-04
  429.00      7.15580E-04
  431.00      7.02000E-04
  433.00      6.56470E-04
  435.00      6.16160E-04
  437.00      6.89760E-04
  439.00      6.80670E-04
  441.00      6.83350E-04
  443.00      6.84300E-04
  445.00      6.77310E-04
  447.00      6.53330E-04
  449.00      6.68030E-04
  451.00      6.62630E-04
  453.00      6.60850E-04
  455.00      6.50200E-04
  457.00      6.51490E-04
  459.00      6.44260E-04
  461.00      6.36400E-04
  463.00      6.27400E-04
  465.00      6.04820E-04
  467.00      6.20630E-04
  469.00      6.10480E-04
  471.00      6.05510E-04
  473.00      6.16330E-04
  475.00      6.10440E-04
  477.00      6.08870E-04
  479.00      6.04100E-04
  481.00      5.96990E-04
  483.00      5.87960E-04
  485.00      5.53840E-04
  487.00      5.08560E-04
  489.00      5.74310E-04
  491.00      5.73340E-04
  493.00      5.60580E-04
  495.00      5.64790E-04
  497.00      5.65850E-04
  499.00      5.61660E-04
  501.00      5.47430E-04
  503.00      5.50500E-04
  505.00      5.46300E-04
  507.00      5.45980E-04
  509.00      5.41380E-04
  511.00      5.37470E-04
  513.00      5.33430E-04
  515.00      5.29830E-04
  517.00      5.25600E-04
  519.00      5.22820E-04
  521.00      5.19490E-04
  523.00      5.16130E-04
  525.00      5.11700E-04
  527.00      5.07790E-04
  529.00      5.05700E-04
  531.00      5.02090E-04
  533.00      4.98790E-04
  535.00      4.95430E-04
  537.00      4.92140E-04
  539.00      4.88390E-04
  541.00      4.80310E-04
  543.00      4.82390E-04
  545.00      4.79040E-04
  547.00      4.75820E-04
  549.00      4.72790E-04
  551.00      4.69590E-04
  553.00      4.66610E-04
  555.00      4.63800E-04
  557.00      4.60700E-04
  559.00      4.56690E-04
  561.00      4.54870E-04
  563.00      4.52000E-04
  565.00      4.48890E-04
  567.00      4.45470E-04
  569.00      4.38410E-04
  571.00      4.32160E-04
  573.00      4.29970E-04
  575.00      4.26490E-04
  577.00      4.24980E-04
  579.00      4.22250E-04
  581.00      4.19260E-04
  583.00      4.16290E-04
  585.00      4.14800E-04
  587.00      4.02580E-04
  589.00      4.08990E-04
  591.00      4.07970E-04
  593.00      4.06170E-04
  595.00      4.04300E-04
  597.00      4.03110E-04
  599.00      4.00920E-04
  601.00      3.99490E-04
  603.00      3.97400E-04
  605.00      3.95970E-04
  607.00      3.93940E-04
  609.00      3.91700E-04
  611.00      3.89220E-04
  613.00      3.87040E-04
  615.00      3.84060E-04
  617.00      3.81960E-04
  619.00      3.80170E-04
  621.00      3.78080E-04
  623.00      3.75790E-04
  625.00      3.73300E-04
  627.00      3.71360E-04
  629.00      3.69240E-04
  631.00      3.66840E-04
  633.00      3.65030E-04
  635.00      3.62590E-04
  637.00      3.60890E-04
  639.00      3.58780E-04
  641.00      3.56640E-04
  643.00      3.54750E-04
  645.00      3.52620E-04
  647.00      3.49990E-04
  649.00      3.48030E-04
  651.00      3.45370E-04
  653.00      3.42070E-04
  655.00      3.30610E-04
  657.00      3.00110E-04
  659.00      3.34910E-04
  661.00      3.36090E-04
  663.00      3.35160E-04
  665.00      3.33140E-04
  667.00      3.27510E-04
  669.00      3.25750E-04
  671.00      3.27080E-04
  673.00      3.25220E-04
  675.00      3.24130E-04
  677.00      3.22670E-04
  679.00      3.20330E-04
  681.00      3.19160E-04
  683.00      3.17260E-04
  685.00      3.15710E-04
  687.00      3.13890E-04
  689.00      3.11240E-04
  691.00      3.09650E-04
  693.00      3.09130E-04
  695.00      3.07490E-04
  697.00      3.05870E-04
  699.00      3.04180E-04
  701.00      3.02320E-04
  703.00      3.00560E-04
  705.00      2.99040E-04
  707.00      2.93800E-04
  709.00      2.96320E-04
  711.00      2.94580E-04
  713.00      2.93140E-04
  715.00      2.91770E-04
  717.00      2.89810E-04
  719.00      2.88500E-04
  721.00      2.87290E-04
  723.00      2.84310E-04
  725.00      2.83930E-04
  727.00      2.82910E-04
  729.00      2.79660E-04
  731.00      2.79940E-04
  733.00      2.78590E-04
  735.00      2.77170E-04
  737.00      2.75800E-04
  739.00      2.74440E-04
  741.00      2.73040E-04
  743.00      2.71700E-04
  745.00      2.70250E-04
  747.00      2.68270E-04
  749.00      2.67060E-04
  751.00      2.66250E-04
  753.00      2.64880E-04
  755.00      2.63740E-04
  757.00      2.62410E-04
  759.00      2.60260E-04
  761.00      2.59380E-04
  763.00      2.58480E-04
  765.00      2.57170E-04
  767.00      2.56080E-04
  769.00      2.54300E-04
  771.00      2.53430E-04
  773.00      2.51570E-04
  775.00      2.51140E-04
  777.00      2.49970E-04
  779.00      2.48820E-04
  781.00      2.47570E-04
  783.00      2.46460E-04
  785.00      2.45300E-04
  787.00      2.43690E-04
  789.00      2.42530E-04
  791.00      2.41860E-04
  793.00      2.40690E-04
  795.00      2.39690E-04
  797.00      2.38380E-04
  799.00      2.37330E-04
  801.00      2.36260E-04
  803.00      2.35110E-04
  805.00      2.34130E-04
  807.00      2.33030E-04
  809.00      2.31790E-04
  811.00      2.29640E-04
  813.00      2.29780E-04
  815.00      2.28590E-04
  817.00      2.27640E-04
  819.00      2.25580E-04
  821.00      2.23500E-04
  823.00      2.22020E-04
  825.00      2.21720E-04
  827.00      2.19690E-04
  829.00      2.19820E-04
  831.00      2.19110E-04
  833.00      2.17800E-04
  835.00      2.16260E-04
  837.00      2.15790E-04
  839.00      2.15270E-04
  841.00      2.14190E-04
  843.00      2.13370E-04
  845.00      2.11650E-04
  847.00      2.11550E-04
  849.00      2.10410E-04
  851.00      2.09130E-04
  853.00      2.08490E-04
  855.00      2.07610E-04
  857.00      2.07180E-04
  859.00      2.04310E-04
  861.00      2.04680E-04
  863.00      2.05130E-04
  865.00      2.02580E-04
  867.00      1.99800E-04
  869.00      2.02510E-04
  871.00      2.02650E-04
  873.00      1.99440E-04
  875.00      1.93160E-04
  877.00      1.96540E-04
  879.00      1.99730E-04
  881.00      1.99830E-04
  883.00      1.97770E-04
  885.00      1.90430E-04
  887.00      1.84520E-04
  889.00      1.93940E-04
  891.00      1.95920E-04
  893.00      1.95730E-04
  895.00      1.95020E-04
  897.00      1.93770E-04
  899.00      1.89380E-04
  901.00      1.76680E-04
  903.00      1.81150E-04
  905.00      1.88990E-04
  907.00      1.88720E-04
  909.00      1.89440E-04
  911.00      1.89420E-04
  913.00      1.88690E-04
  915.00      1.87900E-04
  917.00      1.86390E-04
  919.00      1.84650E-04
  921.00      1.77800E-04
  923.00      1.64020E-04
  925.00      1.75980E-04
  927.00      1.81320E-04
  929.00      1.81930E-04
  931.00      1.81140E-04
  933.00      1.80850E-04
  935.00      1.79320E-04
  937.00      1.79780E-04
  939.00      1.79150E-04
  941.00      1.78230E-04
  943.00      1.77620E-04
  945.00      1.76800E-04
  947.00      1.75170E-04
  949.00      1.74630E-04
  951.00      1.71600E-04
  953.00      1.64870E-04
  955.00      1.52180E-04
  957.00      1.66220E-04
  959.00      1.70360E-04
  961.00      1.70370E-04
  963.00      1.69510E-04
  965.00      1.70140E-04
  967.00      1.69590E-04
  969.00      1.68820E-04
  971.00      1.66110E-04
  973.00      1.67280E-04
  975.00      1.66930E-04
  977.00      1.66250E-04
  979.00      1.65600E-04
  981.00      1.64850E-04
  983.00      1.64310E-04
  985.00      1.63590E-04
  987.00      1.63030E-04
  989.00      1.62130E-04
  991.00      1.61160E-04
  993.00      1.61160E-04
  995.00      1.60520E-04
  997.00      1.59580E-04
  999.00      1.58640E-04
  1002.5      1.51270E-04
  1007.5      1.48000E-04
  1012.5      1.53400E-04
  1017.5      1.53860E-04
  1022.5      1.52330E-04
  1027.5      1.51000E-04
  1032.5      1.49060E-04
  1037.5      1.48260E-04
  1042.5      1.46900E-04
  1047.5      1.45560E-04
  1052.5      1.44220E-04
  1057.5      1.42940E-04
  1062.5      1.41640E-04
  1067.5      1.40210E-04
  1072.5      1.39130E-04
  1077.5      1.37890E-04
  1082.5      1.35490E-04
  1087.5      1.34700E-04
  1092.5      1.24140E-04
  1097.5      1.29460E-04
  1102.5      1.31130E-04
  1107.5      1.30690E-04
  1112.5      1.29660E-04
  1117.5      1.28590E-04
  1122.5      1.27440E-04
  1127.5      1.26390E-04
  1132.5      1.25200E-04
  1137.5      1.24210E-04
  1142.5      1.23190E-04
  1147.5      1.22170E-04
  1152.5      1.21190E-04
  1157.5      1.20150E-04
  1162.5      1.18830E-04
  1167.5      1.17960E-04
  1172.5      1.17250E-04
  1177.5      1.16290E-04
  1182.5      1.15290E-04
  1187.5      1.14390E-04
  1192.5      1.13470E-04
  1197.5      1.11370E-04
  1202.5      1.11680E-04
  1207.5      1.10770E-04
  1212.5      1.09860E-04
  1217.5      1.09040E-04
  1222.5      1.08180E-04
  1227.5      1.07340E-04
  1232.5      1.06480E-04
  1237.5      1.05650E-04
  1242.5      1.04850E-04
  1247.5      1.04010E-04
  1252.5      1.03000E-04
  1257.5      1.02410E-04
  1262.5      1.01630E-04
  1267.5      1.00900E-04
  1272.5      9.99710E-05
  1277.5      9.74440E-05
  1282.5      9.10110E-05
  1287.5      9.69680E-05
  1292.5      9.70500E-05
  1297.5      9.58420E-05
  1302.5      9.56480E-05
  1307.5      9.50200E-05
  1312.5      9.43230E-05
  1317.5      9.36310E-05
  1322.5      9.29480E-05
  1327.5      9.22720E-05
  1332.5      9.15910E-05
  1337.5      9.08810E-05
  1342.5      9.02060E-05
  1347.5      8.96180E-05
  1352.5      8.89320E-05
  1357.5      8.83530E-05
  1362.5      8.76240E-05
  1367.5      8.71100E-05
  1372.5      8.64150E-05
  1377.5      8.58970E-05
  1382.5      8.52970E-05
  1387.5      8.46980E-05
  1392.5      8.40580E-05
  1397.5      8.35240E-05
