 Castelli and Kurucz 2004-2012 Atmosphere
 T     33000.     G    4.00000 [0.0a] VTURB=2  L/H=1.25 NOVER NEW ODF          
 Wavelength  Eddington Hnu
   (nm)    (ergs/s/cm2/Hz/sr)
  9.0900      2.61950E-32
  9.3500      1.48160E-31
  9.6100      7.69790E-31
  9.7700      2.05010E-30
  9.9600      6.30850E-30
  10.200      2.47380E-29
  10.380      6.65040E-29
  10.560      1.73500E-28
  10.770      5.11750E-28
  11.040      1.94620E-27
  11.400      1.05540E-26
  11.780      5.68130E-26
  12.130      2.45470E-25
  12.480      9.81570E-25
  12.710      2.34700E-24
  12.840      3.79140E-24
  13.050      8.06690E-24
  13.240      1.56740E-23
  13.390      2.61450E-23
  13.660      6.39600E-23
  13.980      1.77160E-22
  14.330      5.13370E-22
  14.720      1.58380E-21
  15.100      4.52040E-21
  15.520      1.35760E-20
  15.880      3.33610E-20
  16.200      7.18860E-20
  16.600      1.80860E-19
  17.030      4.63750E-19
  17.340      8.94860E-19
  17.680      1.80230E-18
  18.020      3.51260E-18
  18.170      4.73080E-18
  18.610      1.07150E-17
  19.100      2.55990E-17
  19.390      4.19760E-17
  19.840      8.86040E-17
  20.180      1.51860E-16
  20.500      2.48360E-16
  21.050      5.60640E-16
  21.620      1.24030E-15
  21.980      2.03490E-15
  22.300      3.09900E-15
  22.680      5.14980E-15
  23.000      3.50390E-12
  23.400      7.91320E-12
  24.000      1.28390E-11
  24.650      2.22510E-11
  25.240      3.90140E-11
  25.680      5.45780E-11
  26.000      9.53690E-11
  26.400      1.58990E-10
  26.850      2.53840E-10
  27.350      3.54970E-10
  27.850      4.40790E-10
  28.400      1.00590E-09
  29.000      1.49100E-09
  29.600      1.98220E-09
  30.100      3.22950E-09
  30.800      7.93040E-09
  31.800      1.86340E-08
  32.800      2.80040E-08
  33.800      5.34030E-08
  34.800      8.55650E-08
  35.700      1.78420E-07
  36.600      4.03500E-07
  37.500      4.82810E-07
  38.500      7.37150E-07
  39.500      1.48320E-06
  40.500      1.92990E-06
  41.400      2.66760E-06
  42.200      3.01160E-06
  43.000      3.35660E-06
  44.100      4.25200E-06
  45.100      4.90580E-06
  46.000      5.10090E-06
  47.000      6.19390E-06
  48.000      7.43760E-06
  49.000      7.62060E-06
  50.000      1.01110E-05
  50.600      1.40900E-05
  51.200      9.20500E-05
  52.000      8.88640E-05
  53.000      8.27160E-05
  54.000      8.25710E-05
  55.000      8.96590E-05
  56.000      1.26450E-04
  57.000      1.47920E-04
  58.000      1.40960E-04
  59.000      1.52490E-04
  60.000      1.07570E-04
  61.000      1.46350E-04
  62.000      1.91320E-04
  63.000      1.90320E-04
  64.000      1.99750E-04
  65.000      1.92290E-04
  65.800      1.41720E-04
  66.500      1.93670E-04
  67.500      2.37850E-04
  68.500      1.85280E-04
  69.500      2.52850E-04
  70.500      1.82010E-04
  71.600      2.88580E-04
  72.600      2.89860E-04
  73.500      2.98430E-04
  74.500      2.70340E-04
  75.500      2.81010E-04
  76.500      2.98790E-04
  77.500      3.22340E-04
  78.500      3.25240E-04
  79.500      3.45830E-04
  80.500      3.31220E-04
  81.500      3.37550E-04
  82.500      3.71090E-04
  83.500      2.87070E-04
  84.500      3.70530E-04
  85.500      3.73390E-04
  86.500      3.94900E-04
  87.500      4.04070E-04
  88.500      4.16770E-04
  89.500      4.26700E-04
  90.500      4.21200E-04
  91.500      4.63710E-04
  92.500      1.20690E-03
  93.500      1.78770E-03
  94.500      2.15360E-03
  95.500      2.38050E-03
  96.500      2.62740E-03
  97.500      1.35880E-03
  98.500      2.24830E-03
  99.500      2.08190E-03
  100.50      2.16290E-03
  101.50      2.32550E-03
  102.50      2.04230E-03
  103.50      2.36720E-03
  104.50      2.68730E-03
  105.50      2.61690E-03
  106.50      2.34280E-03
  107.50      2.45080E-03
  108.50      2.33510E-03
  109.50      2.49880E-03
  110.50      2.43120E-03
  111.50      2.41990E-03
  112.50      1.97540E-03
  113.50      2.40500E-03
  114.50      2.36210E-03
  115.50      2.25290E-03
  116.50      2.26840E-03
  117.50      1.61610E-03
  118.50      2.13910E-03
  119.50      2.09180E-03
  120.50      2.04570E-03
  121.50      1.75960E-03
  122.50      2.06150E-03
  123.50      2.20990E-03
  124.50      2.16250E-03
  125.50      2.19190E-03
  126.50      2.26210E-03
  127.50      2.35140E-03
  128.50      2.37200E-03
  129.50      2.25570E-03
  130.50      2.27260E-03
  131.50      2.40630E-03
  132.50      2.36310E-03
  133.50      2.32660E-03
  134.50      2.34390E-03
  135.50      2.32280E-03
  136.50      2.26920E-03
  137.50      2.23260E-03
  138.50      2.19460E-03
  139.50      1.69890E-03
  140.50      1.78780E-03
  141.50      2.19330E-03
  142.50      2.00760E-03
  143.50      2.15270E-03
  144.20      2.14380E-03
  144.70      2.14840E-03
  145.50      2.06960E-03
  146.50      2.05630E-03
  147.50      2.09150E-03
  148.50      2.11440E-03
  149.50      2.07520E-03
  150.50      2.05550E-03
  151.20      2.04890E-03
  151.70      2.06750E-03
  152.50      2.01560E-03
  153.50      1.81230E-03
  154.50      1.54500E-03
  155.50      1.57930E-03
  156.50      1.77960E-03
  157.50      1.88120E-03
  158.50      1.89330E-03
  159.50      1.91230E-03
  160.50      1.82310E-03
  161.50      1.76910E-03
  162.50      1.81980E-03
  163.50      1.85010E-03
  164.50      1.85360E-03
  165.50      1.88980E-03
  166.50      1.86450E-03
  167.20      1.75100E-03
  167.70      2.02030E-03
  168.50      1.95180E-03
  169.50      1.91020E-03
  170.50      1.90590E-03
  171.50      1.84620E-03
  172.50      1.80210E-03
  173.50      1.87950E-03
  174.50      1.88080E-03
  175.50      1.86580E-03
  176.50      1.85880E-03
  177.50      1.82300E-03
  178.50      1.85870E-03
  179.50      1.83260E-03
  180.50      1.84670E-03
  181.50      1.82240E-03
  182.50      1.81070E-03
  183.50      1.82680E-03
  184.50      1.76730E-03
  185.50      1.79460E-03
  186.50      1.80620E-03
  187.50      1.77570E-03
  188.50      1.72760E-03
  189.50      1.72140E-03
  190.50      1.76580E-03
  191.50      1.73450E-03
  192.50      1.65650E-03
  193.50      1.74770E-03
  194.50      1.77060E-03
  195.50      1.65240E-03
  196.70      1.72460E-03
  197.60      1.75830E-03
  198.40      1.72370E-03
  199.50      1.69520E-03
  200.50      1.73470E-03
  201.50      1.73980E-03
  202.50      1.74110E-03
  203.50      1.70260E-03
  204.50      1.69170E-03
  205.50      1.37860E-03
  206.50      1.34390E-03
  207.40      1.41310E-03
  207.80      1.41930E-03
  208.50      1.53280E-03
  209.50      1.61260E-03
  210.50      1.63830E-03
  211.50      1.66660E-03
  212.50      1.64200E-03
  213.50      1.65040E-03
  214.50      1.63770E-03
  215.50      1.64920E-03
  216.50      1.59120E-03
  217.50      1.63430E-03
  218.50      1.60110E-03
  219.50      1.63640E-03
  220.50      1.62460E-03
  221.50      1.57950E-03
  222.50      1.60280E-03
  223.50      1.59420E-03
  224.50      1.58360E-03
  225.50      1.54920E-03
  226.50      1.56900E-03
  227.50      1.56630E-03
  228.50      1.53520E-03
  229.50      1.42450E-03
  230.50      1.50070E-03
  231.50      1.50540E-03
  232.50      1.51340E-03
  233.50      1.50500E-03
  234.50      1.49690E-03
  235.50      1.48210E-03
  236.50      1.47050E-03
  237.50      1.45290E-03
  238.50      1.40670E-03
  239.50      1.42450E-03
  240.50      1.43480E-03
  241.50      1.42160E-03
  242.50      1.42430E-03
  243.50      1.41090E-03
  244.50      1.40660E-03
  245.50      1.39590E-03
  246.50      1.39100E-03
  247.50      1.38150E-03
  248.50      1.34220E-03
  249.50      9.73290E-04
  250.50      1.29120E-03
  251.30      1.28380E-03
  251.80      1.30740E-03
  252.50      1.34460E-03
  253.50      1.34590E-03
  254.50      1.32720E-03
  255.50      1.32560E-03
  256.50      1.31860E-03
  257.50      1.31680E-03
  258.50      1.31120E-03
  259.50      1.29370E-03
  260.50      1.29970E-03
  261.50      1.28360E-03
  262.50      1.28430E-03
  263.50      1.28010E-03
  264.50      1.26930E-03
  265.50      1.26560E-03
  266.50      1.24970E-03
  267.50      1.22960E-03
  268.50      1.24150E-03
  269.50      1.22890E-03
  270.50      1.22910E-03
  271.50      1.21990E-03
  272.50      1.21300E-03
  273.50      1.19240E-03
  274.50      1.20880E-03
  275.50      1.19970E-03
  276.50      1.19070E-03
  277.50      1.19290E-03
  278.50      1.17890E-03
  279.50      1.15120E-03
  280.50      1.16660E-03
  281.50      1.16680E-03
  282.50      1.15920E-03
  283.50      1.14890E-03
  284.50      1.15260E-03
  285.50      1.14260E-03
  286.50      1.13380E-03
  287.50      1.12810E-03
  288.50      1.12470E-03
  289.50      1.11860E-03
  291.00      1.10290E-03
  293.00      1.10150E-03
  295.00      1.08690E-03
  297.00      1.07670E-03
  299.00      1.05910E-03
  301.00      1.04270E-03
  303.00      1.02800E-03
  305.00      1.02890E-03
  307.00      1.02380E-03
  309.00      1.00670E-03
  311.00      1.00690E-03
  313.00      9.92270E-04
  315.00      9.88010E-04
  317.00      9.77360E-04
  319.00      9.69480E-04
  321.00      9.53030E-04
  323.00      9.49500E-04
  325.00      9.45720E-04
  327.00      9.27640E-04
  329.00      9.24670E-04
  331.00      9.15120E-04
  333.00      9.04170E-04
  335.00      8.92560E-04
  337.00      8.86950E-04
  339.00      8.85210E-04
  341.00      8.76400E-04
  343.00      8.71910E-04
  345.00      8.57900E-04
  347.00      8.54420E-04
  349.00      8.47330E-04
  351.00      8.41010E-04
  353.00      8.35370E-04
  355.00      8.27030E-04
  357.00      8.20740E-04
  359.00      8.11600E-04
  361.00      8.04960E-04
  363.00      7.97440E-04
  364.00      7.90370E-04
  365.00      7.52380E-04
  367.00      7.48570E-04
  369.00      7.42400E-04
  371.00      7.28130E-04
  373.00      7.25570E-04
  375.00      7.41040E-04
  377.00      7.39290E-04
  379.00      7.64100E-04
  381.00      7.82630E-04
  383.00      7.29260E-04
  385.00      7.88850E-04
  387.00      7.71890E-04
  389.00      7.11060E-04
  391.00      7.83050E-04
  393.00      7.66460E-04
  395.00      7.56810E-04
  397.00      6.81100E-04
  399.00      7.56320E-04
  401.00      7.49240E-04
  403.00      7.31570E-04
  405.00      7.40730E-04
  407.00      7.19120E-04
  409.00      6.93930E-04
  411.00      6.54070E-04
  413.00      7.06580E-04
  415.00      7.04330E-04
  417.00      7.06330E-04
  419.00      6.98720E-04
  421.00      6.90950E-04
  423.00      6.90970E-04
  425.00      6.79550E-04
  427.00      6.71790E-04
  429.00      6.65310E-04
  431.00      6.55830E-04
  433.00      6.34420E-04
  435.00      6.00340E-04
  437.00      6.45480E-04
  439.00      6.38060E-04
  441.00      6.35160E-04
  443.00      6.35800E-04
  445.00      6.29700E-04
  447.00      6.17320E-04
  449.00      6.22010E-04
  451.00      6.14550E-04
  453.00      6.13470E-04
  455.00      6.04310E-04
  457.00      6.05490E-04
  459.00      5.98840E-04
  461.00      5.93470E-04
  463.00      5.86380E-04
  465.00      5.63960E-04
  467.00      5.78460E-04
  469.00      5.68870E-04
  471.00      5.67460E-04
  473.00      5.74990E-04
  475.00      5.69870E-04
  477.00      5.67730E-04
  479.00      5.63640E-04
  481.00      5.58460E-04
  483.00      5.52860E-04
  485.00      5.37410E-04
  487.00      4.99550E-04
  489.00      5.41120E-04
  491.00      5.37830E-04
  493.00      5.29030E-04
  495.00      5.28710E-04
  497.00      5.29190E-04
  499.00      5.25540E-04
  501.00      5.14510E-04
  503.00      5.15790E-04
  505.00      5.12180E-04
  507.00      5.11270E-04
  509.00      5.07430E-04
  511.00      5.03910E-04
  513.00      5.00310E-04
  515.00      4.97020E-04
  517.00      4.93100E-04
  519.00      4.90440E-04
  521.00      4.87440E-04
  523.00      4.84390E-04
  525.00      4.80150E-04
  527.00      4.76510E-04
  529.00      4.74920E-04
  531.00      4.71610E-04
  533.00      4.68620E-04
  535.00      4.65710E-04
  537.00      4.62610E-04
  539.00      4.59220E-04
  541.00      4.52270E-04
  543.00      4.53840E-04
  545.00      4.50790E-04
  547.00      4.47800E-04
  549.00      4.45020E-04
  551.00      4.41900E-04
  553.00      4.39380E-04
  555.00      4.36810E-04
  557.00      4.33850E-04
  559.00      4.29920E-04
  561.00      4.28660E-04
  563.00      4.26000E-04
  565.00      4.23230E-04
  567.00      4.20170E-04
  569.00      4.12630E-04
  571.00      4.03440E-04
  573.00      4.01340E-04
  575.00      3.98340E-04
  577.00      3.96870E-04
  579.00      3.94510E-04
  581.00      3.91720E-04
  583.00      3.89870E-04
  585.00      3.89300E-04
  587.00      3.81190E-04
  589.00      3.85990E-04
  591.00      3.85070E-04
  593.00      3.83920E-04
  595.00      3.82940E-04
  597.00      3.82360E-04
  599.00      3.80890E-04
  601.00      3.79460E-04
  603.00      3.76950E-04
  605.00      3.74900E-04
  607.00      3.72810E-04
  609.00      3.70790E-04
  611.00      3.68330E-04
  613.00      3.66320E-04
  615.00      3.63850E-04
  617.00      3.61510E-04
  619.00      3.60140E-04
  621.00      3.58210E-04
  623.00      3.55610E-04
  625.00      3.53770E-04
  627.00      3.51990E-04
  629.00      3.50020E-04
  631.00      3.47110E-04
  633.00      3.46120E-04
  635.00      3.43910E-04
  637.00      3.42280E-04
  639.00      3.40350E-04
  641.00      3.37740E-04
  643.00      3.36590E-04
  645.00      3.34550E-04
  647.00      3.32270E-04
  649.00      3.30440E-04
  651.00      3.28190E-04
  653.00      3.25470E-04
  655.00      3.20760E-04
  657.00      2.95150E-04
  659.00      3.20480E-04
  661.00      3.20010E-04
  663.00      3.18480E-04
  665.00      3.16520E-04
  667.00      3.12110E-04
  669.00      3.09860E-04
  671.00      3.10850E-04
  673.00      3.09010E-04
  675.00      3.07970E-04
  677.00      3.06700E-04
  679.00      3.04770E-04
  681.00      3.03510E-04
  683.00      3.01790E-04
  685.00      3.00250E-04
  687.00      2.98540E-04
  689.00      2.95490E-04
  691.00      2.94720E-04
  693.00      2.94140E-04
  695.00      2.92590E-04
  697.00      2.91080E-04
  699.00      2.89550E-04
  701.00      2.87710E-04
  703.00      2.86000E-04
  705.00      2.84660E-04
  707.00      2.80110E-04
  709.00      2.82160E-04
  711.00      2.80470E-04
  713.00      2.79120E-04
  715.00      2.77910E-04
  717.00      2.75670E-04
  719.00      2.74720E-04
  721.00      2.73710E-04
  723.00      2.71160E-04
  725.00      2.70570E-04
  727.00      2.69610E-04
  729.00      2.66730E-04
  731.00      2.66750E-04
  733.00      2.65570E-04
  735.00      2.64240E-04
  737.00      2.62910E-04
  739.00      2.61670E-04
  741.00      2.60320E-04
  743.00      2.59100E-04
  745.00      2.57660E-04
  747.00      2.56030E-04
  749.00      2.54680E-04
  751.00      2.53940E-04
  753.00      2.52700E-04
  755.00      2.51610E-04
  757.00      2.50340E-04
  759.00      2.47890E-04
  761.00      2.47520E-04
  763.00      2.46630E-04
  765.00      2.45410E-04
  767.00      2.44450E-04
  769.00      2.42700E-04
  771.00      2.41900E-04
  773.00      2.40200E-04
  775.00      2.39720E-04
  777.00      2.38700E-04
  779.00      2.37580E-04
  781.00      2.36410E-04
  783.00      2.35360E-04
  785.00      2.34140E-04
  787.00      2.32770E-04
  789.00      2.31740E-04
  791.00      2.31020E-04
  793.00      2.29930E-04
  795.00      2.28980E-04
  797.00      2.27650E-04
  799.00      2.26790E-04
  801.00      2.25740E-04
  803.00      2.24580E-04
  805.00      2.23700E-04
  807.00      2.22680E-04
  809.00      2.21500E-04
  811.00      2.19680E-04
  813.00      2.19660E-04
  815.00      2.18460E-04
  817.00      2.17620E-04
  819.00      2.15840E-04
  821.00      2.12610E-04
  823.00      2.11130E-04
  825.00      2.11010E-04
  827.00      2.09200E-04
  829.00      2.09150E-04
  831.00      2.08440E-04
  833.00      2.07140E-04
  835.00      2.05740E-04
  837.00      2.05340E-04
  839.00      2.04850E-04
  841.00      2.03890E-04
  843.00      2.03100E-04
  845.00      2.01640E-04
  847.00      2.01350E-04
  849.00      2.00510E-04
  851.00      1.98810E-04
  853.00      1.99070E-04
  855.00      1.96900E-04
  857.00      1.98540E-04
  859.00      1.94580E-04
  861.00      1.94410E-04
  863.00      1.97190E-04
  865.00      1.94470E-04
  867.00      1.87740E-04
  869.00      1.95070E-04
  871.00      1.95420E-04
  873.00      1.92640E-04
  875.00      1.81650E-04
  877.00      1.89860E-04
  879.00      1.92970E-04
  881.00      1.92580E-04
  883.00      1.91220E-04
  885.00      1.84840E-04
  887.00      1.75740E-04
  889.00      1.88140E-04
  891.00      1.88630E-04
  893.00      1.87960E-04
  895.00      1.87300E-04
  897.00      1.86540E-04
  899.00      1.83900E-04
  901.00      1.70600E-04
  903.00      1.76880E-04
  905.00      1.82940E-04
  907.00      1.81750E-04
  909.00      1.81800E-04
  911.00      1.81540E-04
  913.00      1.80850E-04
  915.00      1.80220E-04
  917.00      1.79050E-04
  919.00      1.78100E-04
  921.00      1.73820E-04
  923.00      1.59610E-04
  925.00      1.72590E-04
  927.00      1.75120E-04
  929.00      1.74870E-04
  931.00      1.73820E-04
  933.00      1.73310E-04
  935.00      1.71620E-04
  937.00      1.72020E-04
  939.00      1.71500E-04
  941.00      1.70610E-04
  943.00      1.70050E-04
  945.00      1.69380E-04
  947.00      1.68250E-04
  949.00      1.67920E-04
  951.00      1.65890E-04
  953.00      1.62100E-04
  955.00      1.49380E-04
  957.00      1.62960E-04
  959.00      1.64470E-04
  961.00      1.63810E-04
  963.00      1.62820E-04
  965.00      1.63010E-04
  967.00      1.62440E-04
  969.00      1.61730E-04
  971.00      1.58610E-04
  973.00      1.60150E-04
  975.00      1.59920E-04
  977.00      1.59140E-04
  979.00      1.58670E-04
  981.00      1.57980E-04
  983.00      1.57430E-04
  985.00      1.56790E-04
  987.00      1.56250E-04
  989.00      1.55430E-04
  991.00      1.54600E-04
  993.00      1.54470E-04
  995.00      1.53910E-04
  997.00      1.53290E-04
  999.00      1.52710E-04
  1002.5      1.47720E-04
  1007.5      1.44680E-04
  1012.5      1.47380E-04
  1017.5      1.47560E-04
  1022.5      1.46110E-04
  1027.5      1.44800E-04
  1032.5      1.43080E-04
  1037.5      1.42220E-04
  1042.5      1.40820E-04
  1047.5      1.39660E-04
  1052.5      1.38380E-04
  1057.5      1.37170E-04
  1062.5      1.35930E-04
  1067.5      1.34610E-04
  1072.5      1.33550E-04
  1077.5      1.32370E-04
  1082.5      1.30140E-04
  1087.5      1.29910E-04
  1092.5      1.21950E-04
  1097.5      1.26250E-04
  1102.5      1.26290E-04
  1107.5      1.25620E-04
  1112.5      1.24540E-04
  1117.5      1.23530E-04
  1122.5      1.22440E-04
  1127.5      1.21420E-04
  1132.5      1.20310E-04
  1137.5      1.19360E-04
  1142.5      1.18390E-04
  1147.5      1.17410E-04
  1152.5      1.16480E-04
  1157.5      1.15490E-04
  1162.5      1.14180E-04
  1167.5      1.13330E-04
  1172.5      1.12720E-04
  1177.5      1.11810E-04
  1182.5      1.10840E-04
  1187.5      1.09990E-04
  1192.5      1.09110E-04
  1197.5      1.07450E-04
  1202.5      1.07410E-04
  1207.5      1.06530E-04
  1212.5      1.05660E-04
  1217.5      1.04890E-04
  1222.5      1.04070E-04
  1227.5      1.03260E-04
  1232.5      1.02440E-04
  1237.5      1.01650E-04
  1242.5      1.00890E-04
  1247.5      1.00090E-04
  1252.5      9.91510E-05
  1257.5      9.85510E-05
  1262.5      9.78170E-05
  1267.5      9.71090E-05
  1272.5      9.63700E-05
  1277.5      9.45900E-05
  1282.5      8.97880E-05
  1287.5      9.39890E-05
  1292.5      9.35360E-05
  1297.5      9.24330E-05
  1302.5      9.20910E-05
  1307.5      9.14880E-05
  1312.5      9.08200E-05
  1317.5      9.01580E-05
  1322.5      8.95050E-05
  1327.5      8.88580E-05
  1332.5      8.82060E-05
  1337.5      8.75390E-05
  1342.5      8.68860E-05
  1347.5      8.63180E-05
  1352.5      8.56650E-05
  1357.5      8.51080E-05
  1362.5      8.44430E-05
  1367.5      8.39170E-05
  1372.5      8.32490E-05
  1377.5      8.27540E-05
  1382.5      8.21790E-05
  1387.5      8.16060E-05
  1392.5      8.09950E-05
  1397.5      8.04820E-05
