 Castelli and Kurucz 2004-2012 Atmosphere
 T     34000.     G    4.00000 [0.0a] VTURB=2  L/H=1.25 NOVER NEW ODF          
 Wavelength  Eddington Hnu
   (nm)    (ergs/s/cm2/Hz/sr)
  9.0900      4.05300E-31
  9.3500      2.14050E-30
  9.6100      1.03900E-29
  9.7700      2.66930E-29
  9.9600      7.85630E-29
  10.200      2.91860E-28
  10.380      7.54470E-28
  10.560      1.89480E-27
  10.770      5.35380E-27
  11.040      1.93050E-26
  11.400      9.78270E-26
  11.780      4.91990E-25
  12.130      2.00320E-24
  12.480      7.56900E-24
  12.710      1.74610E-23
  12.840      2.76520E-23
  13.050      5.70100E-23
  13.240      1.07730E-22
  13.390      1.75950E-22
  13.660      4.14310E-22
  13.980      1.10010E-21
  14.330      3.04660E-21
  14.720      8.92480E-21
  15.100      2.44580E-20
  15.520      7.00750E-20
  15.880      1.65720E-19
  16.200      3.45030E-19
  16.600      8.35830E-19
  17.030      2.05890E-18
  17.340      3.86590E-18
  17.680      7.57130E-18
  18.020      1.43550E-17
  18.170      1.91180E-17
  18.610      4.19020E-17
  19.100      9.66790E-17
  19.390      1.55430E-16
  19.840      3.18810E-16
  20.180      5.34790E-16
  20.500      8.58120E-16
  21.050      1.87760E-15
  21.620      4.02660E-15
  21.980      6.49200E-15
  22.300      9.73050E-15
  22.680      1.58510E-14
  23.000      1.43640E-11
  23.400      3.34020E-11
  24.000      5.16650E-11
  24.650      8.56020E-11
  25.240      1.50680E-10
  25.680      2.09150E-10
  26.000      3.57750E-10
  26.400      6.55460E-10
  26.850      1.06630E-09
  27.350      1.43790E-09
  27.850      1.67200E-09
  28.400      3.63680E-09
  29.000      5.26590E-09
  29.600      6.68630E-09
  30.100      1.20700E-08
  30.800      2.60060E-08
  31.800      6.20850E-08
  32.800      9.18200E-08
  33.800      1.76480E-07
  34.800      2.77410E-07
  35.700      5.65160E-07
  36.600      1.35700E-06
  37.500      1.57160E-06
  38.500      2.31610E-06
  39.500      4.86790E-06
  40.500      6.75750E-06
  41.400      8.47580E-06
  42.200      9.30280E-06
  43.000      9.58000E-06
  44.100      1.18160E-05
  45.100      1.31740E-05
  46.000      1.28070E-05
  47.000      1.50450E-05
  48.000      1.79310E-05
  49.000      1.64930E-05
  50.000      2.25930E-05
  50.600      2.70960E-05
  51.200      1.47010E-04
  52.000      1.41490E-04
  53.000      1.31000E-04
  54.000      1.29270E-04
  55.000      1.31090E-04
  56.000      1.88740E-04
  57.000      2.29520E-04
  58.000      2.21230E-04
  59.000      2.35720E-04
  60.000      1.61930E-04
  61.000      2.13040E-04
  62.000      2.88580E-04
  63.000      2.85620E-04
  64.000      3.09240E-04
  65.000      2.94090E-04
  65.800      2.11790E-04
  66.500      2.94460E-04
  67.500      3.63520E-04
  68.500      2.80240E-04
  69.500      3.77620E-04
  70.500      2.66070E-04
  71.600      4.28650E-04
  72.600      4.33450E-04
  73.500      4.46360E-04
  74.500      3.97110E-04
  75.500      4.12000E-04
  76.500      4.28340E-04
  77.500      4.66590E-04
  78.500      4.52470E-04
  79.500      4.96140E-04
  80.500      4.76140E-04
  81.500      4.86730E-04
  82.500      5.30490E-04
  83.500      4.06880E-04
  84.500      5.28500E-04
  85.500      5.28070E-04
  86.500      5.60580E-04
  87.500      5.71960E-04
  88.500      5.84980E-04
  89.500      5.96350E-04
  90.500      5.87600E-04
  91.500      6.06760E-04
  92.500      1.39140E-03
  93.500      2.00450E-03
  94.500      2.34640E-03
  95.500      2.60650E-03
  96.500      2.85500E-03
  97.500      1.65040E-03
  98.500      2.48170E-03
  99.500      2.28640E-03
  100.50      2.34830E-03
  101.50      2.52050E-03
  102.50      2.26490E-03
  103.50      2.59170E-03
  104.50      2.88310E-03
  105.50      2.81850E-03
  106.50      2.57000E-03
  107.50      2.66140E-03
  108.50      2.53820E-03
  109.50      2.69970E-03
  110.50      2.63250E-03
  111.50      2.62140E-03
  112.50      2.21580E-03
  113.50      2.61110E-03
  114.50      2.58550E-03
  115.50      2.44680E-03
  116.50      2.45740E-03
  117.50      1.82410E-03
  118.50      2.32450E-03
  119.50      2.26790E-03
  120.50      2.24100E-03
  121.50      1.94710E-03
  122.50      2.23180E-03
  123.50      2.37650E-03
  124.50      2.33320E-03
  125.50      2.36260E-03
  126.50      2.43330E-03
  127.50      2.52450E-03
  128.50      2.54440E-03
  129.50      2.45430E-03
  130.50      2.45340E-03
  131.50      2.57420E-03
  132.50      2.53690E-03
  133.50      2.49970E-03
  134.50      2.52030E-03
  135.50      2.48390E-03
  136.50      2.43430E-03
  137.50      2.39100E-03
  138.50      2.36540E-03
  139.50      1.93670E-03
  140.50      1.98690E-03
  141.50      2.36950E-03
  142.50      2.16950E-03
  143.50      2.31910E-03
  144.20      2.29720E-03
  144.70      2.30480E-03
  145.50      2.22380E-03
  146.50      2.21940E-03
  147.50      2.25090E-03
  148.50      2.27870E-03
  149.50      2.23650E-03
  150.50      2.23310E-03
  151.20      2.23190E-03
  151.70      2.24370E-03
  152.50      2.19050E-03
  153.50      1.98540E-03
  154.50      1.66920E-03
  155.50      1.71830E-03
  156.50      1.93680E-03
  157.50      2.04170E-03
  158.50      2.04980E-03
  159.50      2.07080E-03
  160.50      1.97080E-03
  161.50      1.91750E-03
  162.50      1.96810E-03
  163.50      1.99440E-03
  164.50      1.99150E-03
  165.50      2.03830E-03
  166.50      2.00720E-03
  167.20      1.88930E-03
  167.70      2.16450E-03
  168.50      2.09770E-03
  169.50      2.05970E-03
  170.50      2.05240E-03
  171.50      1.98870E-03
  172.50      1.94800E-03
  173.50      2.02960E-03
  174.50      2.03070E-03
  175.50      2.01010E-03
  176.50      2.00330E-03
  177.50      1.96950E-03
  178.50      2.00570E-03
  179.50      1.97210E-03
  180.50      1.98390E-03
  181.50      1.96510E-03
  182.50      1.94740E-03
  183.50      1.96640E-03
  184.50      1.92310E-03
  185.50      1.94240E-03
  186.50      1.94890E-03
  187.50      1.91230E-03
  188.50      1.87590E-03
  189.50      1.88330E-03
  190.50      1.91480E-03
  191.50      1.88830E-03
  192.50      1.80650E-03
  193.50      1.89370E-03
  194.50      1.90950E-03
  195.50      1.79860E-03
  196.70      1.86480E-03
  197.60      1.88500E-03
  198.40      1.86310E-03
  199.50      1.83260E-03
  200.50      1.87100E-03
  201.50      1.87020E-03
  202.50      1.86530E-03
  203.50      1.83590E-03
  204.50      1.82050E-03
  205.50      1.45460E-03
  206.50      1.41650E-03
  207.40      1.48800E-03
  207.80      1.50670E-03
  208.50      1.64130E-03
  209.50      1.73990E-03
  210.50      1.75680E-03
  211.50      1.78570E-03
  212.50      1.75660E-03
  213.50      1.76740E-03
  214.50      1.75590E-03
  215.50      1.76590E-03
  216.50      1.69820E-03
  217.50      1.75120E-03
  218.50      1.71100E-03
  219.50      1.75070E-03
  220.50      1.73790E-03
  221.50      1.68600E-03
  222.50      1.71520E-03
  223.50      1.70700E-03
  224.50      1.69420E-03
  225.50      1.65550E-03
  226.50      1.67810E-03
  227.50      1.67580E-03
  228.50      1.64270E-03
  229.50      1.54350E-03
  230.50      1.60440E-03
  231.50      1.61130E-03
  232.50      1.61990E-03
  233.50      1.61270E-03
  234.50      1.60040E-03
  235.50      1.58450E-03
  236.50      1.57180E-03
  237.50      1.55270E-03
  238.50      1.49960E-03
  239.50      1.52270E-03
  240.50      1.53290E-03
  241.50      1.52030E-03
  242.50      1.52370E-03
  243.50      1.50980E-03
  244.50      1.50430E-03
  245.50      1.49180E-03
  246.50      1.48730E-03
  247.50      1.47960E-03
  248.50      1.43930E-03
  249.50      1.06010E-03
  250.50      1.38970E-03
  251.30      1.37280E-03
  251.80      1.40040E-03
  252.50      1.43710E-03
  253.50      1.43870E-03
  254.50      1.42350E-03
  255.50      1.41890E-03
  256.50      1.41150E-03
  257.50      1.40820E-03
  258.50      1.40200E-03
  259.50      1.38050E-03
  260.50      1.38870E-03
  261.50      1.37080E-03
  262.50      1.37260E-03
  263.50      1.36900E-03
  264.50      1.35630E-03
  265.50      1.35360E-03
  266.50      1.33900E-03
  267.50      1.31530E-03
  268.50      1.32680E-03
  269.50      1.31660E-03
  270.50      1.31770E-03
  271.50      1.30670E-03
  272.50      1.29930E-03
  273.50      1.27370E-03
  274.50      1.29400E-03
  275.50      1.28360E-03
  276.50      1.27530E-03
  277.50      1.27470E-03
  278.50      1.25970E-03
  279.50      1.23380E-03
  280.50      1.24820E-03
  281.50      1.24670E-03
  282.50      1.23900E-03
  283.50      1.23080E-03
  284.50      1.23240E-03
  285.50      1.22280E-03
  286.50      1.21250E-03
  287.50      1.20670E-03
  288.50      1.20320E-03
  289.50      1.19670E-03
  291.00      1.18100E-03
  293.00      1.17780E-03
  295.00      1.16350E-03
  297.00      1.15140E-03
  299.00      1.13240E-03
  301.00      1.11680E-03
  303.00      1.09970E-03
  305.00      1.10000E-03
  307.00      1.09290E-03
  309.00      1.07890E-03
  311.00      1.07600E-03
  313.00      1.06130E-03
  315.00      1.05650E-03
  317.00      1.04540E-03
  319.00      1.03720E-03
  321.00      1.01700E-03
  323.00      1.01630E-03
  325.00      1.01130E-03
  327.00      9.91330E-04
  329.00      9.88640E-04
  331.00      9.78340E-04
  333.00      9.67260E-04
  335.00      9.53590E-04
  337.00      9.48550E-04
  339.00      9.45690E-04
  341.00      9.36250E-04
  343.00      9.31590E-04
  345.00      9.16310E-04
  347.00      9.13440E-04
  349.00      9.06610E-04
  351.00      8.99480E-04
  353.00      8.91960E-04
  355.00      8.83510E-04
  357.00      8.76800E-04
  359.00      8.67800E-04
  361.00      8.59830E-04
  363.00      8.51960E-04
  364.00      8.41950E-04
  365.00      7.92610E-04
  367.00      7.88090E-04
  369.00      7.82260E-04
  371.00      7.70320E-04
  373.00      7.71630E-04
  375.00      7.87500E-04
  377.00      7.87930E-04
  379.00      8.10920E-04
  381.00      8.28240E-04
  383.00      7.77980E-04
  385.00      8.32510E-04
  387.00      8.16370E-04
  389.00      7.57890E-04
  391.00      8.24630E-04
  393.00      8.07880E-04
  395.00      7.98630E-04
  397.00      7.26060E-04
  399.00      7.97180E-04
  401.00      7.88950E-04
  403.00      7.71370E-04
  405.00      7.80140E-04
  407.00      7.59770E-04
  409.00      7.35280E-04
  411.00      6.96200E-04
  413.00      7.45620E-04
  415.00      7.42680E-04
  417.00      7.43790E-04
  419.00      7.35440E-04
  421.00      7.25960E-04
  423.00      7.27560E-04
  425.00      7.16620E-04
  427.00      7.09510E-04
  429.00      7.02950E-04
  431.00      6.93520E-04
  433.00      6.72620E-04
  435.00      6.38880E-04
  437.00      6.81950E-04
  439.00      6.73190E-04
  441.00      6.69640E-04
  443.00      6.69970E-04
  445.00      6.63800E-04
  447.00      6.51870E-04
  449.00      6.55410E-04
  451.00      6.47040E-04
  453.00      6.45390E-04
  455.00      6.34900E-04
  457.00      6.37560E-04
  459.00      6.30470E-04
  461.00      6.25570E-04
  463.00      6.17870E-04
  465.00      5.95050E-04
  467.00      6.09690E-04
  469.00      5.97110E-04
  471.00      5.99300E-04
  473.00      6.05370E-04
  475.00      6.00410E-04
  477.00      5.97220E-04
  479.00      5.92990E-04
  481.00      5.87860E-04
  483.00      5.82740E-04
  485.00      5.67810E-04
  487.00      5.30220E-04
  489.00      5.70030E-04
  491.00      5.66230E-04
  493.00      5.57800E-04
  495.00      5.57080E-04
  497.00      5.56790E-04
  499.00      5.53040E-04
  501.00      5.42810E-04
  503.00      5.43110E-04
  505.00      5.39430E-04
  507.00      5.38020E-04
  509.00      5.34210E-04
  511.00      5.30550E-04
  513.00      5.26770E-04
  515.00      5.23280E-04
  517.00      5.19250E-04
  519.00      5.16270E-04
  521.00      5.13070E-04
  523.00      5.09900E-04
  525.00      5.05390E-04
  527.00      5.01560E-04
  529.00      4.99880E-04
  531.00      4.96430E-04
  533.00      4.93280E-04
  535.00      4.90210E-04
  537.00      4.86990E-04
  539.00      4.83510E-04
  541.00      4.75260E-04
  543.00      4.77700E-04
  545.00      4.74590E-04
  547.00      4.71440E-04
  549.00      4.68520E-04
  551.00      4.65050E-04
  553.00      4.62610E-04
  555.00      4.59820E-04
  557.00      4.56660E-04
  559.00      4.52360E-04
  561.00      4.51230E-04
  563.00      4.48420E-04
  565.00      4.45560E-04
  567.00      4.42530E-04
  569.00      4.34110E-04
  571.00      4.20930E-04
  573.00      4.18670E-04
  575.00      4.15800E-04
  577.00      4.14020E-04
  579.00      4.11680E-04
  581.00      4.08720E-04
  583.00      4.07390E-04
  585.00      4.07020E-04
  587.00      3.99610E-04
  589.00      4.04500E-04
  591.00      4.03800E-04
  593.00      4.03040E-04
  595.00      4.02570E-04
  597.00      4.02230E-04
  599.00      4.01080E-04
  601.00      3.99620E-04
  603.00      3.97010E-04
  605.00      3.94840E-04
  607.00      3.92580E-04
  609.00      3.90560E-04
  611.00      3.87910E-04
  613.00      3.85730E-04
  615.00      3.83400E-04
  617.00      3.80600E-04
  619.00      3.79400E-04
  621.00      3.77360E-04
  623.00      3.74320E-04
  625.00      3.72710E-04
  627.00      3.70860E-04
  629.00      3.68770E-04
  631.00      3.65330E-04
  633.00      3.64620E-04
  635.00      3.62340E-04
  637.00      3.60570E-04
  639.00      3.58540E-04
  641.00      3.55360E-04
  643.00      3.54570E-04
  645.00      3.52400E-04
  647.00      3.50150E-04
  649.00      3.48230E-04
  651.00      3.45870E-04
  653.00      3.42600E-04
  655.00      3.38570E-04
  657.00      3.13020E-04
  659.00      3.38120E-04
  661.00      3.37200E-04
  663.00      3.35550E-04
  665.00      3.33550E-04
  667.00      3.28950E-04
  669.00      3.26180E-04
  671.00      3.27450E-04
  673.00      3.25690E-04
  675.00      3.24410E-04
  677.00      3.23080E-04
  679.00      3.21270E-04
  681.00      3.19780E-04
  683.00      3.18010E-04
  685.00      3.16320E-04
  687.00      3.14530E-04
  689.00      3.10850E-04
  691.00      3.10680E-04
  693.00      3.09860E-04
  695.00      3.08230E-04
  697.00      3.06650E-04
  699.00      3.05030E-04
  701.00      3.03080E-04
  703.00      3.01270E-04
  705.00      2.99850E-04
  707.00      2.95380E-04
  709.00      2.97270E-04
  711.00      2.95590E-04
  713.00      2.94150E-04
  715.00      2.92780E-04
  717.00      2.90020E-04
  719.00      2.89250E-04
  721.00      2.88360E-04
  723.00      2.86190E-04
  725.00      2.85200E-04
  727.00      2.84040E-04
  729.00      2.81190E-04
  731.00      2.81000E-04
  733.00      2.79800E-04
  735.00      2.78400E-04
  737.00      2.76960E-04
  739.00      2.75690E-04
  741.00      2.74230E-04
  743.00      2.72980E-04
  745.00      2.71410E-04
  747.00      2.69970E-04
  749.00      2.68300E-04
  751.00      2.67550E-04
  753.00      2.66270E-04
  755.00      2.65070E-04
  757.00      2.63750E-04
  759.00      2.60620E-04
  761.00      2.60820E-04
  763.00      2.59840E-04
  765.00      2.58580E-04
  767.00      2.57540E-04
  769.00      2.55640E-04
  771.00      2.54830E-04
  773.00      2.53040E-04
  775.00      2.52560E-04
  777.00      2.51500E-04
  779.00      2.50310E-04
  781.00      2.49090E-04
  783.00      2.47950E-04
  785.00      2.46540E-04
  787.00      2.45270E-04
  789.00      2.44220E-04
  791.00      2.43390E-04
  793.00      2.42260E-04
  795.00      2.41240E-04
  797.00      2.39840E-04
  799.00      2.38930E-04
  801.00      2.37870E-04
  803.00      2.36630E-04
  805.00      2.35710E-04
  807.00      2.34630E-04
  809.00      2.33420E-04
  811.00      2.31820E-04
  813.00      2.31450E-04
  815.00      2.30220E-04
  817.00      2.29220E-04
  819.00      2.27450E-04
  821.00      2.22750E-04
  823.00      2.20980E-04
  825.00      2.20930E-04
  827.00      2.19410E-04
  829.00      2.19090E-04
  831.00      2.18300E-04
  833.00      2.16890E-04
  835.00      2.15600E-04
  837.00      2.15160E-04
  839.00      2.14600E-04
  841.00      2.13660E-04
  843.00      2.12870E-04
  845.00      2.11530E-04
  847.00      2.11150E-04
  849.00      2.10360E-04
  851.00      2.08650E-04
  853.00      2.08950E-04
  855.00      2.06920E-04
  857.00      2.08280E-04
  859.00      2.04790E-04
  861.00      2.04510E-04
  863.00      2.06940E-04
  865.00      2.04530E-04
  867.00      1.98220E-04
  869.00      2.04940E-04
  871.00      2.05210E-04
  873.00      2.02730E-04
  875.00      1.92290E-04
  877.00      2.00100E-04
  879.00      2.02830E-04
  881.00      2.02360E-04
  883.00      2.01080E-04
  885.00      1.95100E-04
  887.00      1.86130E-04
  889.00      1.97950E-04
  891.00      1.98300E-04
  893.00      1.97490E-04
  895.00      1.96810E-04
  897.00      1.96080E-04
  899.00      1.93540E-04
  901.00      1.80620E-04
  903.00      1.86710E-04
  905.00      1.92350E-04
  907.00      1.91180E-04
  909.00      1.91100E-04
  911.00      1.90670E-04
  913.00      1.90010E-04
  915.00      1.89340E-04
  917.00      1.88170E-04
  919.00      1.87280E-04
  921.00      1.83180E-04
  923.00      1.69210E-04
  925.00      1.81880E-04
  927.00      1.84140E-04
  929.00      1.83770E-04
  931.00      1.82750E-04
  933.00      1.82220E-04
  935.00      1.79870E-04
  937.00      1.80580E-04
  939.00      1.80200E-04
  941.00      1.79270E-04
  943.00      1.78680E-04
  945.00      1.78000E-04
  947.00      1.76900E-04
  949.00      1.76510E-04
  951.00      1.74550E-04
  953.00      1.70940E-04
  955.00      1.58310E-04
  957.00      1.71590E-04
  959.00      1.72910E-04
  961.00      1.72210E-04
  963.00      1.71210E-04
  965.00      1.71270E-04
  967.00      1.70670E-04
  969.00      1.69950E-04
  971.00      1.66620E-04
  973.00      1.68260E-04
  975.00      1.68020E-04
  977.00      1.67020E-04
  979.00      1.66720E-04
  981.00      1.66030E-04
  983.00      1.65390E-04
  985.00      1.64750E-04
  987.00      1.64180E-04
  989.00      1.63380E-04
  991.00      1.62580E-04
  993.00      1.62310E-04
  995.00      1.61730E-04
  997.00      1.61080E-04
  999.00      1.60490E-04
  1002.5      1.55640E-04
  1007.5      1.52510E-04
  1012.5      1.54620E-04
  1017.5      1.55040E-04
  1022.5      1.53530E-04
  1027.5      1.52130E-04
  1032.5      1.50360E-04
  1037.5      1.49430E-04
  1042.5      1.47880E-04
  1047.5      1.46750E-04
  1052.5      1.45410E-04
  1057.5      1.44130E-04
  1062.5      1.42840E-04
  1067.5      1.41470E-04
  1072.5      1.40330E-04
  1077.5      1.39090E-04
  1082.5      1.36830E-04
  1087.5      1.36550E-04
  1092.5      1.28690E-04
  1097.5      1.32850E-04
  1102.5      1.32800E-04
  1107.5      1.32000E-04
  1112.5      1.30870E-04
  1117.5      1.29810E-04
  1122.5      1.28660E-04
  1127.5      1.27600E-04
  1132.5      1.26450E-04
  1137.5      1.25430E-04
  1142.5      1.24420E-04
  1147.5      1.23390E-04
  1152.5      1.22400E-04
  1157.5      1.21360E-04
  1162.5      1.19830E-04
  1167.5      1.19010E-04
  1172.5      1.18450E-04
  1177.5      1.17490E-04
  1182.5      1.16470E-04
  1187.5      1.15570E-04
  1192.5      1.14650E-04
  1197.5      1.12970E-04
  1202.5      1.12870E-04
  1207.5      1.11940E-04
  1212.5      1.11010E-04
  1217.5      1.10220E-04
  1222.5      1.09350E-04
  1227.5      1.08510E-04
  1232.5      1.07640E-04
  1237.5      1.06820E-04
  1242.5      1.06020E-04
  1247.5      1.05190E-04
  1252.5      1.04220E-04
  1257.5      1.03570E-04
  1262.5      1.02800E-04
  1267.5      1.02040E-04
  1272.5      1.01270E-04
  1277.5      9.94950E-05
  1282.5      9.47040E-05
  1287.5      9.87990E-05
  1292.5      9.82880E-05
  1297.5      9.71970E-05
  1302.5      9.67830E-05
  1307.5      9.61350E-05
  1312.5      9.54330E-05
  1317.5      9.47370E-05
  1322.5      9.40500E-05
  1327.5      9.33700E-05
  1332.5      9.26880E-05
  1337.5      9.20020E-05
  1342.5      9.13130E-05
  1347.5      9.07040E-05
  1352.5      9.00330E-05
  1357.5      8.94340E-05
  1362.5      8.87570E-05
  1367.5      8.81790E-05
  1372.5      8.74880E-05
  1377.5      8.69530E-05
  1382.5      8.63500E-05
  1387.5      8.57500E-05
  1392.5      8.51180E-05
  1397.5      8.45680E-05
