 Castelli and Kurucz 2004-2012 Atmosphere
 T     32000.     G    5.00000 [0.0a] VTURB=2  L/H=1.25 NOVER NEW ODF          
 Wavelength  Eddington Hnu
   (nm)    (ergs/s/cm2/Hz/sr)
  9.0900      2.66340E-33
  9.3500      1.61640E-32
  9.6100      8.92560E-32
  9.7700      2.44670E-31
  9.9600      7.77960E-31
  10.200      3.16270E-30
  10.380      8.70550E-30
  10.560      2.31890E-29
  10.770      6.99370E-29
  11.040      2.72750E-28
  11.400      1.52420E-27
  11.780      8.44610E-27
  12.130      3.74320E-26
  12.480      1.53560E-25
  12.710      3.73440E-25
  12.840      6.09160E-25
  13.050      1.31710E-24
  13.240      2.59770E-24
  13.390      4.38430E-24
  13.660      1.09690E-23
  13.980      3.12020E-23
  14.330      9.32070E-23
  14.720      2.98310E-22
  15.100      8.79660E-22
  15.520      2.74640E-21
  15.880      6.97740E-21
  16.200      1.54940E-20
  16.600      4.04040E-20
  17.030      1.07730E-19
  17.340      2.13660E-19
  17.680      4.39780E-19
  18.020      8.82520E-19
  18.170      1.19210E-18
  18.610      2.80030E-18
  19.100      6.95160E-18
  19.390      1.16630E-17
  19.840      2.53260E-17
  20.180      4.45250E-17
  20.500      7.45110E-17
  21.050      1.74680E-16
  21.620      4.03670E-16
  21.980      6.73010E-16
  22.300      1.04500E-15
  22.680      1.78900E-15
  23.000      2.22990E-13
  23.400      4.91080E-13
  24.000      9.02240E-13
  24.650      1.72210E-12
  25.240      3.06870E-12
  25.680      4.42700E-12
  26.000      6.74310E-12
  26.400      9.39300E-12
  26.850      1.44770E-11
  27.350      2.18470E-11
  27.850      3.11290E-11
  28.400      6.33210E-11
  29.000      9.78280E-11
  29.600      1.44320E-10
  30.100      1.98510E-10
  30.800      4.10470E-10
  31.800      8.57770E-10
  32.800      1.42120E-09
  33.800      2.58240E-09
  34.800      4.28980E-09
  35.700      1.21560E-08
  36.600      2.51890E-08
  37.500      3.39350E-08
  38.500      5.37900E-08
  39.500      1.09160E-07
  40.500      1.45360E-07
  41.400      2.16710E-07
  42.200      2.57650E-07
  43.000      3.24370E-07
  44.100      4.31760E-07
  45.100      5.43350E-07
  46.000      6.34860E-07
  47.000      8.10710E-07
  48.000      1.00360E-06
  49.000      1.22210E-06
  50.000      1.52590E-06
  50.600      3.20110E-06
  51.200      2.40530E-05
  52.000      2.33040E-05
  53.000      2.35630E-05
  54.000      2.26910E-05
  55.000      2.95700E-05
  56.000      3.59890E-05
  57.000      3.88640E-05
  58.000      3.66220E-05
  59.000      4.24920E-05
  60.000      3.83080E-05
  61.000      4.69150E-05
  62.000      5.40920E-05
  63.000      5.54850E-05
  64.000      5.46090E-05
  65.000      5.93590E-05
  65.800      5.52440E-05
  66.500      6.23820E-05
  67.500      6.65350E-05
  68.500      6.01260E-05
  69.500      7.83850E-05
  70.500      6.92340E-05
  71.600      8.83710E-05
  72.600      8.83100E-05
  73.500      9.18300E-05
  74.500      9.66170E-05
  75.500      9.93740E-05
  76.500      1.06290E-04
  77.500      1.12020E-04
  78.500      1.19040E-04
  79.500      1.21230E-04
  80.500      1.22190E-04
  81.500      1.25000E-04
  82.500      1.35050E-04
  83.500      1.15630E-04
  84.500      1.38070E-04
  85.500      1.40870E-04
  86.500      1.48720E-04
  87.500      1.54280E-04
  88.500      1.62370E-04
  89.500      1.68370E-04
  90.500      1.67930E-04
  91.500      1.77440E-04
  92.500      5.48440E-04
  93.500      1.02110E-03
  94.500      1.78460E-03
  95.500      2.14910E-03
  96.500      2.73300E-03
  97.500      9.21680E-04
  98.500      2.49490E-03
  99.500      2.24240E-03
  100.50      2.43220E-03
  101.50      2.54480E-03
  102.50      1.50730E-03
  103.50      2.41590E-03
  104.50      3.04930E-03
  105.50      2.92760E-03
  106.50      2.40340E-03
  107.50      2.66550E-03
  108.50      2.47820E-03
  109.50      2.76750E-03
  110.50      2.62560E-03
  111.50      2.60280E-03
  112.50      2.00270E-03
  113.50      2.59770E-03
  114.50      2.41850E-03
  115.50      2.39930E-03
  116.50      2.42230E-03
  117.50      1.63770E-03
  118.50      2.29750E-03
  119.50      2.21330E-03
  120.50      1.97850E-03
  121.50      1.33500E-03
  122.50      2.10760E-03
  123.50      2.34840E-03
  124.50      2.30420E-03
  125.50      2.32500E-03
  126.50      2.38930E-03
  127.50      2.46500E-03
  128.50      2.48180E-03
  129.50      2.15080E-03
  130.50      2.25890E-03
  131.50      2.50160E-03
  132.50      2.40320E-03
  133.50      2.37800E-03
  134.50      2.34330E-03
  135.50      2.38790E-03
  136.50      2.26340E-03
  137.50      2.23150E-03
  138.50      2.17650E-03
  139.50      1.54140E-03
  140.50      1.69650E-03
  141.50      2.11750E-03
  142.50      1.97080E-03
  143.50      2.09920E-03
  144.20      2.14280E-03
  144.70      2.13010E-03
  145.50      2.05810E-03
  146.50      2.00240E-03
  147.50      2.03060E-03
  148.50      2.03590E-03
  149.50      2.00200E-03
  150.50      1.89770E-03
  151.20      1.84400E-03
  151.70      1.87250E-03
  152.50      1.86370E-03
  153.50      1.63010E-03
  154.50      1.51260E-03
  155.50      1.50030E-03
  156.50      1.64040E-03
  157.50      1.73640E-03
  158.50      1.74230E-03
  159.50      1.77070E-03
  160.50      1.72290E-03
  161.50      1.66190E-03
  162.50      1.70100E-03
  163.50      1.74500E-03
  164.50      1.75020E-03
  165.50      1.77640E-03
  166.50      1.76560E-03
  167.20      1.68310E-03
  167.70      1.89830E-03
  168.50      1.83500E-03
  169.50      1.78000E-03
  170.50      1.75510E-03
  171.50      1.71200E-03
  172.50      1.64770E-03
  173.50      1.72320E-03
  174.50      1.72440E-03
  175.50      1.72060E-03
  176.50      1.70520E-03
  177.50      1.65380E-03
  178.50      1.68550E-03
  179.50      1.68880E-03
  180.50      1.70580E-03
  181.50      1.64080E-03
  182.50      1.65500E-03
  183.50      1.64620E-03
  184.50      1.53740E-03
  185.50      1.57470E-03
  186.50      1.60280E-03
  187.50      1.59870E-03
  188.50      1.50420E-03
  189.50      1.45170E-03
  190.50      1.53080E-03
  191.50      1.48180E-03
  192.50      1.41160E-03
  193.50      1.50550E-03
  194.50      1.54710E-03
  195.50      1.41860E-03
  196.70      1.50090E-03
  197.60      1.57210E-03
  198.40      1.48800E-03
  199.50      1.47530E-03
  200.50      1.50710E-03
  201.50      1.51840E-03
  202.50      1.53500E-03
  203.50      1.46550E-03
  204.50      1.46990E-03
  205.50      1.30880E-03
  206.50      1.29550E-03
  207.40      1.33530E-03
  207.80      1.29350E-03
  208.50      1.32880E-03
  209.50      1.33460E-03
  210.50      1.42660E-03
  211.50      1.45210E-03
  212.50      1.44690E-03
  213.50      1.44030E-03
  214.50      1.41560E-03
  215.50      1.43690E-03
  216.50      1.41050E-03
  217.50      1.41970E-03
  218.50      1.40040E-03
  219.50      1.41940E-03
  220.50      1.41260E-03
  221.50      1.38570E-03
  222.50      1.38790E-03
  223.50      1.37640E-03
  224.50      1.37700E-03
  225.50      1.34610E-03
  226.50      1.36200E-03
  227.50      1.35530E-03
  228.50      1.33280E-03
  229.50      1.23310E-03
  230.50      1.30430E-03
  231.50      1.30390E-03
  232.50      1.30430E-03
  233.50      1.29210E-03
  234.50      1.29790E-03
  235.50      1.28730E-03
  236.50      1.28030E-03
  237.50      1.26310E-03
  238.50      1.23770E-03
  239.50      1.24130E-03
  240.50      1.24570E-03
  241.50      1.23170E-03
  242.50      1.23230E-03
  243.50      1.21510E-03
  244.50      1.21440E-03
  245.50      1.20900E-03
  246.50      1.20530E-03
  247.50      1.19430E-03
  248.50      1.17550E-03
  249.50      9.33360E-04
  250.50      1.14110E-03
  251.30      1.11060E-03
  251.80      1.12740E-03
  252.50      1.16040E-03
  253.50      1.16090E-03
  254.50      1.13150E-03
  255.50      1.13640E-03
  256.50      1.12780E-03
  257.50      1.13070E-03
  258.50      1.12760E-03
  259.50      1.11940E-03
  260.50      1.11920E-03
  261.50      1.10870E-03
  262.50      1.10620E-03
  263.50      1.09960E-03
  264.50      1.09160E-03
  265.50      1.08560E-03
  266.50      1.06410E-03
  267.50      1.05900E-03
  268.50      1.06710E-03
  269.50      1.04400E-03
  270.50      1.03970E-03
  271.50      1.03850E-03
  272.50      1.03170E-03
  273.50      1.02270E-03
  274.50      1.02640E-03
  275.50      1.02270E-03
  276.50      1.01100E-03
  277.50      1.02050E-03
  278.50      1.00900E-03
  279.50      9.78160E-04
  280.50      9.92800E-04
  281.50      9.98720E-04
  282.50      9.87360E-04
  283.50      9.69920E-04
  284.50      9.83560E-04
  285.50      9.71860E-04
  286.50      9.68160E-04
  287.50      9.61880E-04
  288.50      9.58080E-04
  289.50      9.51410E-04
  291.00      9.35950E-04
  293.00      9.37740E-04
  295.00      9.20240E-04
  297.00      9.17030E-04
  299.00      9.03300E-04
  301.00      8.82760E-04
  303.00      8.77760E-04
  305.00      8.77420E-04
  307.00      8.76000E-04
  309.00      8.50620E-04
  311.00      8.57150E-04
  313.00      8.42380E-04
  315.00      8.38530E-04
  317.00      8.28340E-04
  319.00      8.19430E-04
  321.00      8.14620E-04
  323.00      8.04600E-04
  325.00      8.02300E-04
  327.00      7.90300E-04
  329.00      7.84900E-04
  331.00      7.77770E-04
  333.00      7.67840E-04
  335.00      7.61640E-04
  337.00      7.53880E-04
  339.00      7.52210E-04
  341.00      7.44870E-04
  343.00      7.39580E-04
  345.00      7.28880E-04
  347.00      7.23350E-04
  349.00      7.16480E-04
  351.00      7.11650E-04
  353.00      7.08470E-04
  355.00      7.01120E-04
  357.00      6.97380E-04
  359.00      6.85150E-04
  361.00      6.83680E-04
  363.00      6.75200E-04
  364.00      6.76460E-04
  365.00      6.66110E-04
  367.00      6.64390E-04
  369.00      6.59540E-04
  371.00      6.40550E-04
  373.00      6.33320E-04
  375.00      6.28800E-04
  377.00      6.12110E-04
  379.00      6.33590E-04
  381.00      6.57100E-04
  383.00      5.90540E-04
  385.00      6.75980E-04
  387.00      6.74540E-04
  389.00      5.68770E-04
  391.00      6.91810E-04
  393.00      6.84350E-04
  395.00      6.68980E-04
  397.00      5.47120E-04
  399.00      6.64490E-04
  401.00      6.70070E-04
  403.00      6.40040E-04
  405.00      6.64140E-04
  407.00      6.34990E-04
  409.00      5.89890E-04
  411.00      5.37060E-04
  413.00      6.26350E-04
  415.00      6.28750E-04
  417.00      6.34650E-04
  419.00      6.28420E-04
  421.00      6.26840E-04
  423.00      6.20900E-04
  425.00      6.05850E-04
  427.00      5.96750E-04
  429.00      5.90930E-04
  431.00      5.77450E-04
  433.00      5.33740E-04
  435.00      4.96480E-04
  437.00      5.66790E-04
  439.00      5.62760E-04
  441.00      5.67150E-04
  443.00      5.69320E-04
  445.00      5.62280E-04
  447.00      5.38080E-04
  449.00      5.54680E-04
  451.00      5.54220E-04
  453.00      5.52180E-04
  455.00      5.46410E-04
  457.00      5.43160E-04
  459.00      5.37190E-04
  461.00      5.29310E-04
  463.00      5.24020E-04
  465.00      5.06840E-04
  467.00      5.17830E-04
  469.00      5.14470E-04
  471.00      5.01020E-04
  473.00      5.12810E-04
  475.00      5.07510E-04
  477.00      5.08730E-04
  479.00      5.04350E-04
  481.00      4.97010E-04
  483.00      4.88170E-04
  485.00      4.54840E-04
  487.00      4.13470E-04
  489.00      4.77840E-04
  491.00      4.78270E-04
  493.00      4.65280E-04
  495.00      4.70880E-04
  497.00      4.73070E-04
  499.00      4.69360E-04
  501.00      4.55020E-04
  503.00      4.60450E-04
  505.00      4.55840E-04
  507.00      4.56660E-04
  509.00      4.52080E-04
  511.00      4.48730E-04
  513.00      4.44960E-04
  515.00      4.42190E-04
  517.00      4.39270E-04
  519.00      4.37230E-04
  521.00      4.34210E-04
  523.00      4.31730E-04
  525.00      4.28540E-04
  527.00      4.25100E-04
  529.00      4.23160E-04
  531.00      4.20150E-04
  533.00      4.17480E-04
  535.00      4.14480E-04
  537.00      4.12030E-04
  539.00      4.08650E-04
  541.00      4.05170E-04
  543.00      4.03940E-04
  545.00      4.00900E-04
  547.00      3.98330E-04
  549.00      3.95930E-04
  551.00      3.93660E-04
  553.00      3.90810E-04
  555.00      3.88690E-04
  557.00      3.86150E-04
  559.00      3.83390E-04
  561.00      3.81240E-04
  563.00      3.79000E-04
  565.00      3.76040E-04
  567.00      3.72780E-04
  569.00      3.68260E-04
  571.00      3.67010E-04
  573.00      3.65470E-04
  575.00      3.61910E-04
  577.00      3.61320E-04
  579.00      3.58890E-04
  581.00      3.56660E-04
  583.00      3.53850E-04
  585.00      3.52250E-04
  587.00      3.39730E-04
  589.00      3.45920E-04
  591.00      3.45290E-04
  593.00      3.43420E-04
  595.00      3.41480E-04
  597.00      3.40800E-04
  599.00      3.37970E-04
  601.00      3.36630E-04
  603.00      3.34270E-04
  605.00      3.32570E-04
  607.00      3.30840E-04
  609.00      3.28950E-04
  611.00      3.26950E-04
  613.00      3.25170E-04
  615.00      3.22310E-04
  617.00      3.20730E-04
  619.00      3.19360E-04
  621.00      3.17690E-04
  623.00      3.15910E-04
  625.00      3.13680E-04
  627.00      3.12060E-04
  629.00      3.10430E-04
  631.00      3.08370E-04
  633.00      3.06940E-04
  635.00      3.04720E-04
  637.00      3.03510E-04
  639.00      3.01700E-04
  641.00      2.99970E-04
  643.00      2.98430E-04
  645.00      2.96700E-04
  647.00      2.94040E-04
  649.00      2.92620E-04
  651.00      2.90630E-04
  653.00      2.87490E-04
  655.00      2.75840E-04
  657.00      2.47250E-04
  659.00      2.80500E-04
  661.00      2.82570E-04
  663.00      2.81980E-04
  665.00      2.80240E-04
  667.00      2.75690E-04
  669.00      2.74380E-04
  671.00      2.75840E-04
  673.00      2.73830E-04
  675.00      2.73250E-04
  677.00      2.71870E-04
  679.00      2.69240E-04
  681.00      2.68770E-04
  683.00      2.67030E-04
  685.00      2.66020E-04
  687.00      2.64530E-04
  689.00      2.62640E-04
  691.00      2.60700E-04
  693.00      2.60540E-04
  695.00      2.59220E-04
  697.00      2.57880E-04
  699.00      2.56480E-04
  701.00      2.55060E-04
  703.00      2.53620E-04
  705.00      2.52400E-04
  707.00      2.47310E-04
  709.00      2.49910E-04
  711.00      2.48230E-04
  713.00      2.47130E-04
  715.00      2.46130E-04
  717.00      2.44850E-04
  719.00      2.43660E-04
  721.00      2.42430E-04
  723.00      2.38980E-04
  725.00      2.39390E-04
  727.00      2.38770E-04
  729.00      2.35720E-04
  731.00      2.36340E-04
  733.00      2.35150E-04
  735.00      2.33990E-04
  737.00      2.32880E-04
  739.00      2.31730E-04
  741.00      2.30590E-04
  743.00      2.29430E-04
  745.00      2.28280E-04
  747.00      2.25970E-04
  749.00      2.25790E-04
  751.00      2.24910E-04
  753.00      2.23680E-04
  755.00      2.22810E-04
  757.00      2.21740E-04
  759.00      2.20560E-04
  761.00      2.19080E-04
  763.00      2.18490E-04
  765.00      2.17380E-04
  767.00      2.16450E-04
  769.00      2.15270E-04
  771.00      2.14310E-04
  773.00      2.13010E-04
  775.00      2.12330E-04
  777.00      2.11140E-04
  779.00      2.10370E-04
  781.00      2.09310E-04
  783.00      2.08410E-04
  785.00      2.07530E-04
  787.00      2.06010E-04
  789.00      2.04890E-04
  791.00      2.04540E-04
  793.00      2.03520E-04
  795.00      2.02660E-04
  797.00      2.01620E-04
  799.00      2.00720E-04
  801.00      1.99850E-04
  803.00      1.98920E-04
  805.00      1.98040E-04
  807.00      1.97130E-04
  809.00      1.96000E-04
  811.00      1.93680E-04
  813.00      1.94390E-04
  815.00      1.93420E-04
  817.00      1.92710E-04
  819.00      1.90590E-04
  821.00      1.90050E-04
  823.00      1.89100E-04
  825.00      1.88930E-04
  827.00      1.86330E-04
  829.00      1.87050E-04
  831.00      1.86540E-04
  833.00      1.85620E-04
  835.00      1.84090E-04
  837.00      1.83620E-04
  839.00      1.83270E-04
  841.00      1.82310E-04
  843.00      1.81650E-04
  845.00      1.79830E-04
  847.00      1.80100E-04
  849.00      1.78980E-04
  851.00      1.78180E-04
  853.00      1.77320E-04
  855.00      1.76510E-04
  857.00      1.76340E-04
  859.00      1.73180E-04
  861.00      1.73840E-04
  863.00      1.74640E-04
  865.00      1.71880E-04
  867.00      1.68930E-04
  869.00      1.72240E-04
  871.00      1.72650E-04
  873.00      1.69200E-04
  875.00      1.62370E-04
  877.00      1.66340E-04
  879.00      1.70070E-04
  881.00      1.70370E-04
  883.00      1.68250E-04
  885.00      1.60590E-04
  887.00      1.54470E-04
  889.00      1.64640E-04
  891.00      1.66950E-04
  893.00      1.66890E-04
  895.00      1.66510E-04
  897.00      1.65180E-04
  899.00      1.60670E-04
  901.00      1.47830E-04
  903.00      1.52560E-04
  905.00      1.60770E-04
  907.00      1.60670E-04
  909.00      1.61630E-04
  911.00      1.61760E-04
  913.00      1.61170E-04
  915.00      1.60440E-04
  917.00      1.59030E-04
  919.00      1.57350E-04
  921.00      1.50440E-04
  923.00      1.36750E-04
  925.00      1.48820E-04
  927.00      1.54290E-04
  929.00      1.55320E-04
  931.00      1.54560E-04
  933.00      1.54300E-04
  935.00      1.54070E-04
  937.00      1.53730E-04
  939.00      1.53170E-04
  941.00      1.52390E-04
  943.00      1.51820E-04
  945.00      1.51020E-04
  947.00      1.49480E-04
  949.00      1.49050E-04
  951.00      1.46080E-04
  953.00      1.39370E-04
  955.00      1.26990E-04
  957.00      1.40970E-04
  959.00      1.45290E-04
  961.00      1.45390E-04
  963.00      1.44630E-04
  965.00      1.45490E-04
  967.00      1.45040E-04
  969.00      1.44360E-04
  971.00      1.42800E-04
  973.00      1.43240E-04
  975.00      1.42790E-04
  977.00      1.42240E-04
  979.00      1.41670E-04
  981.00      1.40920E-04
  983.00      1.40590E-04
  985.00      1.39930E-04
  987.00      1.39440E-04
  989.00      1.38610E-04
  991.00      1.37590E-04
  993.00      1.37860E-04
  995.00      1.37240E-04
  997.00      1.36420E-04
  999.00      1.35580E-04
  1002.5      1.28350E-04
  1007.5      1.25340E-04
  1012.5      1.31690E-04
  1017.5      1.31690E-04
  1022.5      1.30410E-04
  1027.5      1.29290E-04
  1032.5      1.27560E-04
  1037.5      1.26960E-04
  1042.5      1.25810E-04
  1047.5      1.24670E-04
  1052.5      1.23510E-04
  1057.5      1.22430E-04
  1062.5      1.21330E-04
  1067.5      1.20050E-04
  1072.5      1.19200E-04
  1077.5      1.18130E-04
  1082.5      1.15860E-04
  1087.5      1.15270E-04
  1092.5      1.04930E-04
  1097.5      1.10310E-04
  1102.5      1.12160E-04
  1107.5      1.11960E-04
  1112.5      1.11130E-04
  1117.5      1.10220E-04
  1122.5      1.09250E-04
  1127.5      1.08330E-04
  1132.5      1.07250E-04
  1137.5      1.06490E-04
  1142.5      1.05600E-04
  1147.5      1.04760E-04
  1152.5      1.03930E-04
  1157.5      1.03030E-04
  1162.5      1.02140E-04
  1167.5      1.01210E-04
  1172.5      1.00580E-04
  1177.5      9.97510E-05
  1182.5      9.89280E-05
  1187.5      9.81550E-05
  1192.5      9.73670E-05
  1197.5      9.53970E-05
  1202.5      9.58290E-05
  1207.5      9.50720E-05
  1212.5      9.43140E-05
  1217.5      9.35810E-05
  1222.5      9.28470E-05
  1227.5      9.21310E-05
  1232.5      9.13920E-05
  1237.5      9.06850E-05
  1242.5      9.00140E-05
  1247.5      8.92550E-05
  1252.5      8.83610E-05
  1257.5      8.78970E-05
  1262.5      8.72340E-05
  1267.5      8.66340E-05
  1272.5      8.57780E-05
  1277.5      8.33290E-05
  1282.5      7.70990E-05
  1287.5      8.30770E-05
  1292.5      8.32920E-05
  1297.5      8.21500E-05
  1302.5      8.21360E-05
  1307.5      8.16240E-05
  1312.5      8.10290E-05
  1317.5      8.04350E-05
  1322.5      7.98550E-05
  1327.5      7.92780E-05
  1332.5      7.86850E-05
  1337.5      7.80520E-05
  1342.5      7.74790E-05
  1347.5      7.70040E-05
  1352.5      7.63900E-05
  1357.5      7.59170E-05
  1362.5      7.52490E-05
  1367.5      7.48570E-05
  1372.5      7.42540E-05
  1377.5      7.38310E-05
  1382.5      7.33200E-05
  1387.5      7.28060E-05
  1392.5      7.22340E-05
  1397.5      7.17980E-05
