 Castelli and Kurucz 2004-2012 Atmosphere
 T     38000.     G    4.50000 [0.0a] VTURB=2  L/H=1.25 NOVER NEW ODF          
 Wavelength  Eddington Hnu
   (nm)    (ergs/s/cm2/Hz/sr)
  9.0900      6.73370E-27
  9.3500      2.78040E-26
  9.6100      1.05510E-25
  9.7700      2.36350E-25
  9.9600      5.89200E-25
  10.200      1.78550E-24
  10.380      3.98010E-24
  10.560      8.64810E-24
  10.770      2.07550E-23
  11.040      6.11470E-23
  11.400      2.39940E-22
  11.780      9.34900E-22
  12.130      3.05930E-21
  12.480      9.40010E-21
  12.710      1.90570E-20
  12.840      2.81090E-20
  13.050      5.18530E-20
  13.240      8.88300E-20
  13.390      1.34790E-19
  13.660      2.77940E-19
  13.980      6.40650E-19
  14.330      1.52270E-18
  14.720      3.76300E-18
  15.100      9.05570E-18
  15.520      2.23360E-17
  15.880      4.67630E-17
  16.200      8.73970E-17
  16.600      1.88340E-16
  17.030      4.09020E-16
  17.340      7.04370E-16
  17.680      1.26170E-15
  18.020      2.19440E-15
  18.170      2.79780E-15
  18.610      5.54920E-15
  19.100      1.14570E-14
  19.390      1.73340E-14
  19.840      3.23010E-14
  20.180      5.05180E-14
  20.500      7.61810E-14
  21.050      1.50150E-13
  21.620      2.90330E-13
  21.980      4.39620E-13
  22.300      6.23200E-13
  22.680      9.48940E-13
  23.000      6.66330E-10
  23.400      1.87390E-09
  24.000      2.67370E-09
  24.650      4.11410E-09
  25.240      7.80990E-09
  25.680      1.07040E-08
  26.000      1.47120E-08
  26.400      2.88470E-08
  26.850      4.76160E-08
  27.350      6.03880E-08
  27.850      6.06710E-08
  28.400      1.29400E-07
  29.000      1.80820E-07
  29.600      2.01420E-07
  30.100      3.22030E-07
  30.800      1.25670E-06
  31.800      1.16970E-06
  32.800      1.93520E-06
  33.800      2.82440E-06
  34.800      3.95370E-06
  35.700      8.88280E-06
  36.600      2.15040E-05
  37.500      2.88450E-05
  38.500      3.70530E-05
  39.500      6.86090E-05
  40.500      1.10870E-04
  41.400      1.12140E-04
  42.200      1.14590E-04
  43.000      1.08490E-04
  44.100      1.28870E-04
  45.100      1.42260E-04
  46.000      1.21890E-04
  47.000      1.37560E-04
  48.000      1.63970E-04
  49.000      1.21370E-04
  50.000      1.80880E-04
  50.600      1.55840E-04
  51.200      4.77910E-04
  52.000      4.50310E-04
  53.000      4.14550E-04
  54.000      3.92020E-04
  55.000      3.61350E-04
  56.000      5.13460E-04
  57.000      6.29090E-04
  58.000      6.18040E-04
  59.000      6.47580E-04
  60.000      4.73810E-04
  61.000      5.36340E-04
  62.000      7.31290E-04
  63.000      7.12110E-04
  64.000      7.96930E-04
  65.000      7.52300E-04
  65.800      5.89790E-04
  66.500      7.71490E-04
  67.500      8.95000E-04
  68.500      7.35610E-04
  69.500      9.10710E-04
  70.500      6.86770E-04
  71.600      9.94320E-04
  72.600      1.01310E-03
  73.500      1.04250E-03
  74.500      9.57730E-04
  75.500      9.72130E-04
  76.500      9.62570E-04
  77.500      1.04280E-03
  78.500      9.54060E-04
  79.500      1.07530E-03
  80.500      1.06450E-03
  81.500      1.09150E-03
  82.500      1.14540E-03
  83.500      9.28590E-04
  84.500      1.14260E-03
  85.500      1.12020E-03
  86.500      1.19080E-03
  87.500      1.20880E-03
  88.500      1.21550E-03
  89.500      1.22950E-03
  90.500      1.21060E-03
  91.500      1.04580E-03
  92.500      1.98120E-03
  93.500      2.80280E-03
  94.500      3.36630E-03
  95.500      3.85090E-03
  96.500      4.30420E-03
  97.500      2.86870E-03
  98.500      3.85900E-03
  99.500      3.49430E-03
  100.50      3.54770E-03
  101.50      3.78000E-03
  102.50      3.30990E-03
  103.50      3.92030E-03
  104.50      4.23960E-03
  105.50      4.16310E-03
  106.50      3.85810E-03
  107.50      3.98420E-03
  108.50      3.72910E-03
  109.50      3.98790E-03
  110.50      3.88560E-03
  111.50      3.87830E-03
  112.50      3.50240E-03
  113.50      3.86680E-03
  114.50      3.85880E-03
  115.50      3.60720E-03
  116.50      3.57040E-03
  117.50      2.91440E-03
  118.50      3.42750E-03
  119.50      3.31320E-03
  120.50      3.29560E-03
  121.50      2.77180E-03
  122.50      3.22820E-03
  123.50      3.37400E-03
  124.50      3.33300E-03
  125.50      3.37520E-03
  126.50      3.44570E-03
  127.50      3.54640E-03
  128.50      3.56370E-03
  129.50      3.49180E-03
  130.50      3.45510E-03
  131.50      3.56220E-03
  132.50      3.52140E-03
  133.50      3.48310E-03
  134.50      3.47940E-03
  135.50      3.41380E-03
  136.50      3.33770E-03
  137.50      3.26300E-03
  138.50      3.25920E-03
  139.50      2.94200E-03
  140.50      2.89500E-03
  141.50      3.27390E-03
  142.50      3.01330E-03
  143.50      3.19540E-03
  144.20      3.13070E-03
  144.70      3.14310E-03
  145.50      3.04570E-03
  146.50      3.05580E-03
  147.50      3.07170E-03
  148.50      3.11660E-03
  149.50      3.05830E-03
  150.50      3.07210E-03
  151.20      3.07710E-03
  151.70      3.06090E-03
  152.50      3.01600E-03
  153.50      2.77070E-03
  154.50      2.34060E-03
  155.50      2.41490E-03
  156.50      2.66990E-03
  157.50      2.78510E-03
  158.50      2.76820E-03
  159.50      2.80900E-03
  160.50      2.67970E-03
  161.50      2.61490E-03
  162.50      2.66640E-03
  163.50      2.67640E-03
  164.50      2.64250E-03
  165.50      2.73790E-03
  166.50      2.68400E-03
  167.20      2.55370E-03
  167.70      2.85140E-03
  168.50      2.78800E-03
  169.50      2.75540E-03
  170.50      2.72390E-03
  171.50      2.64530E-03
  172.50      2.59990E-03
  173.50      2.69780E-03
  174.50      2.69740E-03
  175.50      2.66210E-03
  176.50      2.64450E-03
  177.50      2.60930E-03
  178.50      2.64910E-03
  179.50      2.59590E-03
  180.50      2.59790E-03
  181.50      2.57990E-03
  182.50      2.54950E-03
  183.50      2.56730E-03
  184.50      2.54540E-03
  185.50      2.54750E-03
  186.50      2.54580E-03
  187.50      2.49270E-03
  188.50      2.46890E-03
  189.50      2.49660E-03
  190.50      2.50320E-03
  191.50      2.47890E-03
  192.50      2.38050E-03
  193.50      2.46900E-03
  194.50      2.47090E-03
  195.50      2.36960E-03
  196.70      2.41890E-03
  197.60      2.41630E-03
  198.40      2.41040E-03
  199.50      2.38170E-03
  200.50      2.40300E-03
  201.50      2.38970E-03
  202.50      2.37490E-03
  203.50      2.35030E-03
  204.50      2.32520E-03
  205.50      1.76960E-03
  206.50      1.70920E-03
  207.40      1.77170E-03
  207.80      1.80920E-03
  208.50      1.95770E-03
  209.50      2.17200E-03
  210.50      2.23030E-03
  211.50      2.25500E-03
  212.50      2.21470E-03
  213.50      2.22630E-03
  214.50      2.21380E-03
  215.50      2.22610E-03
  216.50      2.11830E-03
  217.50      2.21360E-03
  218.50      2.13450E-03
  219.50      2.20500E-03
  220.50      2.18870E-03
  221.50      2.09600E-03
  222.50      2.16000E-03
  223.50      2.15010E-03
  224.50      2.13120E-03
  225.50      2.05730E-03
  226.50      2.10720E-03
  227.50      2.10520E-03
  228.50      2.06050E-03
  229.50      1.98730E-03
  230.50      1.99250E-03
  231.50      2.01890E-03
  232.50      2.02950E-03
  233.50      2.02240E-03
  234.50      2.00200E-03
  235.50      1.98080E-03
  236.50      1.96400E-03
  237.50      1.93710E-03
  238.50      1.85080E-03
  239.50      1.89910E-03
  240.50      1.90900E-03
  241.50      1.89410E-03
  242.50      1.90080E-03
  243.50      1.88230E-03
  244.50      1.87460E-03
  245.50      1.85560E-03
  246.50      1.85340E-03
  247.50      1.84870E-03
  248.50      1.81170E-03
  249.50      1.44790E-03
  250.50      1.76710E-03
  251.30      1.68470E-03
  251.80      1.74210E-03
  252.50      1.78200E-03
  253.50      1.78570E-03
  254.50      1.77230E-03
  255.50      1.76150E-03
  256.50      1.75100E-03
  257.50      1.74480E-03
  258.50      1.73630E-03
  259.50      1.70240E-03
  260.50      1.71660E-03
  261.50      1.69210E-03
  262.50      1.69750E-03
  263.50      1.69260E-03
  264.50      1.67420E-03
  265.50      1.67320E-03
  266.50      1.65700E-03
  267.50      1.62480E-03
  268.50      1.63500E-03
  269.50      1.62610E-03
  270.50      1.62890E-03
  271.50      1.61470E-03
  272.50      1.60350E-03
  273.50      1.55680E-03
  274.50      1.59490E-03
  275.50      1.58090E-03
  276.50      1.57230E-03
  277.50      1.56610E-03
  278.50      1.54670E-03
  279.50      1.52200E-03
  280.50      1.53470E-03
  281.50      1.53010E-03
  282.50      1.51960E-03
  283.50      1.51290E-03
  284.50      1.51170E-03
  285.50      1.50120E-03
  286.50      1.48760E-03
  287.50      1.48060E-03
  288.50      1.47620E-03
  289.50      1.46560E-03
  291.00      1.44910E-03
  293.00      1.44210E-03
  295.00      1.42550E-03
  297.00      1.40780E-03
  299.00      1.38430E-03
  301.00      1.36730E-03
  303.00      1.34390E-03
  305.00      1.34220E-03
  307.00      1.32950E-03
  309.00      1.31850E-03
  311.00      1.31010E-03
  313.00      1.29330E-03
  315.00      1.28670E-03
  317.00      1.27250E-03
  319.00      1.26180E-03
  321.00      1.22990E-03
  323.00      1.23700E-03
  325.00      1.22830E-03
  327.00      1.20250E-03
  329.00      1.19980E-03
  331.00      1.18690E-03
  333.00      1.17360E-03
  335.00      1.15500E-03
  337.00      1.15020E-03
  339.00      1.14330E-03
  341.00      1.13180E-03
  343.00      1.12610E-03
  345.00      1.10620E-03
  347.00      1.10480E-03
  349.00      1.09680E-03
  351.00      1.08740E-03
  353.00      1.07570E-03
  355.00      1.06570E-03
  357.00      1.05770E-03
  359.00      1.04740E-03
  361.00      1.03670E-03
  363.00      1.02680E-03
  364.00      1.00850E-03
  365.00      9.28840E-04
  367.00      9.22730E-04
  369.00      9.15940E-04
  371.00      9.05810E-04
  373.00      9.14100E-04
  375.00      9.26190E-04
  377.00      9.29900E-04
  379.00      9.57760E-04
  381.00      9.77060E-04
  383.00      9.21670E-04
  385.00      9.81970E-04
  387.00      9.70170E-04
  389.00      8.90970E-04
  391.00      9.76130E-04
  393.00      9.58470E-04
  395.00      9.47140E-04
  397.00      8.53470E-04
  399.00      9.42980E-04
  401.00      9.34650E-04
  403.00      9.10300E-04
  405.00      9.24960E-04
  407.00      9.03880E-04
  409.00      8.69920E-04
  411.00      8.21460E-04
  413.00      8.84800E-04
  415.00      8.80920E-04
  417.00      8.80330E-04
  419.00      8.68400E-04
  421.00      8.53270E-04
  423.00      8.60310E-04
  425.00      8.49210E-04
  427.00      8.42190E-04
  429.00      8.34210E-04
  431.00      8.23020E-04
  433.00      7.91020E-04
  435.00      7.53840E-04
  437.00      8.06960E-04
  439.00      7.95350E-04
  441.00      7.91490E-04
  443.00      7.90560E-04
  445.00      7.83570E-04
  447.00      7.69130E-04
  449.00      7.72790E-04
  451.00      7.62840E-04
  453.00      7.58990E-04
  455.00      7.42360E-04
  457.00      7.50230E-04
  459.00      7.42190E-04
  461.00      7.36930E-04
  463.00      7.26880E-04
  465.00      7.03690E-04
  467.00      7.18000E-04
  469.00      6.96090E-04
  471.00      7.07090E-04
  473.00      7.10920E-04
  475.00      7.05380E-04
  477.00      7.00540E-04
  479.00      6.95370E-04
  481.00      6.89680E-04
  483.00      6.83570E-04
  485.00      6.61450E-04
  487.00      6.19120E-04
  489.00      6.67330E-04
  491.00      6.63810E-04
  493.00      6.54540E-04
  495.00      6.53800E-04
  497.00      6.51880E-04
  499.00      6.47460E-04
  501.00      6.37310E-04
  503.00      6.36030E-04
  505.00      6.31820E-04
  507.00      6.29360E-04
  509.00      6.24990E-04
  511.00      6.20640E-04
  513.00      6.16230E-04
  515.00      6.12000E-04
  517.00      6.07450E-04
  519.00      6.03580E-04
  521.00      5.99670E-04
  523.00      5.95810E-04
  525.00      5.90610E-04
  527.00      5.85950E-04
  529.00      5.83820E-04
  531.00      5.79730E-04
  533.00      5.75900E-04
  535.00      5.72250E-04
  537.00      5.68380E-04
  539.00      5.64490E-04
  541.00      5.50950E-04
  543.00      5.57240E-04
  545.00      5.53650E-04
  547.00      5.49890E-04
  549.00      5.46400E-04
  551.00      5.42040E-04
  553.00      5.39350E-04
  555.00      5.35980E-04
  557.00      5.32220E-04
  559.00      5.26930E-04
  561.00      5.25760E-04
  563.00      5.22400E-04
  565.00      5.19060E-04
  567.00      5.15670E-04
  569.00      5.04880E-04
  571.00      4.80820E-04
  573.00      4.78080E-04
  575.00      4.75110E-04
  577.00      4.72700E-04
  579.00      4.70090E-04
  581.00      4.66140E-04
  583.00      4.65460E-04
  585.00      4.65070E-04
  587.00      4.58270E-04
  589.00      4.63310E-04
  591.00      4.63030E-04
  593.00      4.62860E-04
  595.00      4.63040E-04
  597.00      4.63450E-04
  599.00      4.63800E-04
  601.00      4.62780E-04
  603.00      4.60600E-04
  605.00      4.59080E-04
  607.00      4.56300E-04
  609.00      4.54040E-04
  611.00      4.50800E-04
  613.00      4.48290E-04
  615.00      4.45840E-04
  617.00      4.42180E-04
  619.00      4.40980E-04
  621.00      4.38560E-04
  623.00      4.34590E-04
  625.00      4.33010E-04
  627.00      4.30910E-04
  629.00      4.28420E-04
  631.00      4.23920E-04
  633.00      4.23420E-04
  635.00      4.20910E-04
  637.00      4.18740E-04
  639.00      4.16290E-04
  641.00      4.11590E-04
  643.00      4.11660E-04
  645.00      4.09060E-04
  647.00      4.06620E-04
  649.00      4.04430E-04
  651.00      4.01330E-04
  653.00      3.96420E-04
  655.00      3.91360E-04
  657.00      3.62840E-04
  659.00      3.92220E-04
  661.00      3.91340E-04
  663.00      3.89270E-04
  665.00      3.87050E-04
  667.00      3.81650E-04
  669.00      3.77210E-04
  671.00      3.79740E-04
  673.00      3.78030E-04
  675.00      3.76220E-04
  677.00      3.74560E-04
  679.00      3.72640E-04
  681.00      3.70700E-04
  683.00      3.68680E-04
  685.00      3.66640E-04
  687.00      3.64550E-04
  689.00      3.58590E-04
  691.00      3.60270E-04
  693.00      3.59010E-04
  695.00      3.57110E-04
  697.00      3.55240E-04
  699.00      3.53330E-04
  701.00      3.51070E-04
  703.00      3.49010E-04
  705.00      3.47260E-04
  707.00      3.42810E-04
  709.00      3.44240E-04
  711.00      3.42350E-04
  713.00      3.40610E-04
  715.00      3.38960E-04
  717.00      3.34550E-04
  719.00      3.34000E-04
  721.00      3.33780E-04
  723.00      3.31870E-04
  725.00      3.30290E-04
  727.00      3.28720E-04
  729.00      3.25830E-04
  731.00      3.25080E-04
  733.00      3.23770E-04
  735.00      3.22130E-04
  737.00      3.20370E-04
  739.00      3.18930E-04
  741.00      3.17160E-04
  743.00      3.15770E-04
  745.00      3.13830E-04
  747.00      3.12490E-04
  749.00      3.10340E-04
  751.00      3.09380E-04
  753.00      3.07990E-04
  755.00      3.06490E-04
  757.00      3.04970E-04
  759.00      2.99540E-04
  761.00      3.01530E-04
  763.00      3.00430E-04
  765.00      2.98970E-04
  767.00      2.97690E-04
  769.00      2.95420E-04
  771.00      2.94520E-04
  773.00      2.92410E-04
  775.00      2.91890E-04
  777.00      2.90660E-04
  779.00      2.89270E-04
  781.00      2.87860E-04
  783.00      2.86490E-04
  785.00      2.84660E-04
  787.00      2.83430E-04
  789.00      2.82290E-04
  791.00      2.81200E-04
  793.00      2.79930E-04
  795.00      2.78640E-04
  797.00      2.76950E-04
  799.00      2.75970E-04
  801.00      2.74740E-04
  803.00      2.73310E-04
  805.00      2.72230E-04
  807.00      2.70960E-04
  809.00      2.69680E-04
  811.00      2.68240E-04
  813.00      2.67250E-04
  815.00      2.65940E-04
  817.00      2.64530E-04
  819.00      2.62520E-04
  821.00      2.53990E-04
  823.00      2.51360E-04
  825.00      2.51560E-04
  827.00      2.50490E-04
  829.00      2.49740E-04
  831.00      2.48780E-04
  833.00      2.47160E-04
  835.00      2.46040E-04
  837.00      2.45380E-04
  839.00      2.44610E-04
  841.00      2.43610E-04
  843.00      2.42720E-04
  845.00      2.41470E-04
  847.00      2.40910E-04
  849.00      2.40060E-04
  851.00      2.38680E-04
  853.00      2.38500E-04
  855.00      2.37320E-04
  857.00      2.37320E-04
  859.00      2.35170E-04
  861.00      2.34900E-04
  863.00      2.35780E-04
  865.00      2.33930E-04
  867.00      2.30180E-04
  869.00      2.33790E-04
  871.00      2.33940E-04
  873.00      2.31860E-04
  875.00      2.24630E-04
  877.00      2.29450E-04
  879.00      2.31790E-04
  881.00      2.31540E-04
  883.00      2.30330E-04
  885.00      2.24390E-04
  887.00      2.16970E-04
  889.00      2.26670E-04
  891.00      2.27390E-04
  893.00      2.26500E-04
  895.00      2.25650E-04
  897.00      2.24810E-04
  899.00      2.21900E-04
  901.00      2.09450E-04
  903.00      2.14350E-04
  905.00      2.20380E-04
  907.00      2.19580E-04
  909.00      2.19480E-04
  911.00      2.18640E-04
  913.00      2.18140E-04
  915.00      2.17370E-04
  917.00      2.15990E-04
  919.00      2.14640E-04
  921.00      2.09980E-04
  923.00      1.96020E-04
  925.00      2.08010E-04
  927.00      2.11020E-04
  929.00      2.10850E-04
  931.00      2.09900E-04
  933.00      2.09180E-04
  935.00      2.04710E-04
  937.00      2.06910E-04
  939.00      2.06800E-04
  941.00      2.05790E-04
  943.00      2.05100E-04
  945.00      2.04330E-04
  947.00      2.03160E-04
  949.00      2.02490E-04
  951.00      2.00260E-04
  953.00      1.95670E-04
  955.00      1.82670E-04
  957.00      1.96100E-04
  959.00      1.98090E-04
  961.00      1.97660E-04
  963.00      1.96670E-04
  965.00      1.96480E-04
  967.00      1.95790E-04
  969.00      1.94970E-04
  971.00      1.91860E-04
  973.00      1.93110E-04
  975.00      1.92600E-04
  977.00      1.91210E-04
  979.00      1.91230E-04
  981.00      1.90470E-04
  983.00      1.89650E-04
  985.00      1.88990E-04
  987.00      1.88320E-04
  989.00      1.87470E-04
  991.00      1.86680E-04
  993.00      1.86150E-04
  995.00      1.85460E-04
  997.00      1.84720E-04
  999.00      1.83980E-04
  1002.5      1.78250E-04
  1007.5      1.74730E-04
  1012.5      1.76440E-04
  1017.5      1.77740E-04
  1022.5      1.76020E-04
  1027.5      1.74350E-04
  1032.5      1.72400E-04
  1037.5      1.71260E-04
  1042.5      1.69170E-04
  1047.5      1.68180E-04
  1052.5      1.66640E-04
  1057.5      1.65150E-04
  1062.5      1.63670E-04
  1067.5      1.62130E-04
  1072.5      1.60780E-04
  1077.5      1.59350E-04
  1082.5      1.56970E-04
  1087.5      1.56320E-04
  1092.5      1.47410E-04
  1097.5      1.51860E-04
  1102.5      1.52230E-04
  1107.5      1.51180E-04
  1112.5      1.49900E-04
  1117.5      1.48690E-04
  1122.5      1.47370E-04
  1127.5      1.46130E-04
  1132.5      1.44850E-04
  1137.5      1.43670E-04
  1142.5      1.42500E-04
  1147.5      1.41310E-04
  1152.5      1.40160E-04
  1157.5      1.38970E-04
  1162.5      1.36680E-04
  1167.5      1.35940E-04
  1172.5      1.35610E-04
  1177.5      1.34510E-04
  1182.5      1.33330E-04
  1187.5      1.32300E-04
  1192.5      1.31250E-04
  1197.5      1.29450E-04
  1202.5      1.29190E-04
  1207.5      1.28120E-04
  1212.5      1.27060E-04
  1217.5      1.26140E-04
  1222.5      1.25150E-04
  1227.5      1.24180E-04
  1232.5      1.23190E-04
  1237.5      1.22250E-04
  1242.5      1.21310E-04
  1247.5      1.20370E-04
  1252.5      1.19340E-04
  1257.5      1.18520E-04
  1262.5      1.17630E-04
  1267.5      1.16750E-04
  1272.5      1.15850E-04
  1277.5      1.13830E-04
  1282.5      1.08130E-04
  1287.5      1.12920E-04
  1292.5      1.12430E-04
  1297.5      1.11310E-04
  1302.5      1.10740E-04
  1307.5      1.09960E-04
  1312.5      1.09150E-04
  1317.5      1.08350E-04
  1322.5      1.07570E-04
  1327.5      1.06790E-04
  1332.5      1.06010E-04
  1337.5      1.05240E-04
  1342.5      1.04450E-04
  1347.5      1.03730E-04
  1352.5      1.02980E-04
  1357.5      1.02270E-04
  1362.5      1.01530E-04
  1367.5      1.00830E-04
  1372.5      1.00070E-04
  1377.5      9.94180E-05
  1382.5      9.87260E-05
  1387.5      9.80370E-05
  1392.5      9.73370E-05
  1397.5      9.66840E-05
