 Castelli and Kurucz 2004-2012 Atmosphere
 T     36000.     G    4.00000 [0.0a] VTURB=2  L/H=1.25 NOVER NEW ODF          
 Wavelength  Eddington Hnu
   (nm)    (ergs/s/cm2/Hz/sr)
  9.0900      5.58770E-29
  9.3500      2.58660E-28
  9.6100      1.09610E-27
  9.7700      2.62010E-27
  9.9600      7.03750E-27
  10.200      2.33630E-26
  10.380      5.56070E-26
  10.560      1.28810E-25
  10.770      3.32080E-25
  11.040      1.06840E-24
  11.400      4.68470E-24
  11.780      2.03940E-23
  12.130      7.34570E-23
  12.480      2.47310E-22
  12.710      5.31230E-22
  12.840      8.09190E-22
  13.050      1.57030E-21
  13.240      2.81360E-21
  13.390      4.41960E-21
  13.660      9.69490E-21
  13.980      2.39580E-20
  14.330      6.13770E-20
  14.720      1.64620E-19
  15.100      4.26180E-19
  15.520      1.13950E-18
  15.880      2.55180E-18
  16.200      5.04840E-18
  16.600      1.16480E-17
  17.030      2.71740E-17
  17.340      4.91740E-17
  17.680      9.28070E-17
  18.020      1.69760E-16
  18.170      2.21470E-16
  18.610      4.66680E-16
  19.100      1.02860E-15
  19.390      1.61480E-15
  19.840      3.18120E-15
  20.180      5.18010E-15
  20.500      8.09900E-15
  21.050      1.69490E-14
  21.620      3.47610E-14
  21.980      5.45250E-14
  22.300      7.96840E-14
  22.680      1.25630E-13
  23.000      1.42950E-10
  23.400      3.66960E-10
  24.000      5.30280E-10
  24.650      8.37960E-10
  25.240      1.60360E-09
  25.680      2.22690E-09
  26.000      3.27600E-09
  26.400      6.97130E-09
  26.850      1.19470E-08
  27.350      1.54010E-08
  27.850      1.57930E-08
  28.400      3.50640E-08
  29.000      4.97280E-08
  29.600      5.74140E-08
  30.100      9.43800E-08
  30.800      2.71290E-07
  31.800      4.17230E-07
  32.800      6.92280E-07
  33.800      1.15650E-06
  34.800      1.69320E-06
  35.700      3.76340E-06
  36.600      9.63660E-06
  37.500      1.23770E-05
  38.500      1.67590E-05
  39.500      3.37770E-05
  40.500      5.77610E-05
  41.400      6.06940E-05
  42.200      6.26480E-05
  43.000      5.96310E-05
  44.100      7.32180E-05
  45.100      7.99140E-05
  46.000      6.86220E-05
  47.000      7.90590E-05
  48.000      9.61950E-05
  49.000      6.79880E-05
  50.000      1.08820E-04
  50.600      9.24050E-05
  51.200      3.08690E-04
  52.000      2.95080E-04
  53.000      2.72290E-04
  54.000      2.59720E-04
  55.000      2.30280E-04
  56.000      3.39520E-04
  57.000      4.49830E-04
  58.000      4.41840E-04
  59.000      4.62880E-04
  60.000      3.13350E-04
  61.000      3.67180E-04
  62.000      5.30830E-04
  63.000      5.17980E-04
  64.000      5.93030E-04
  65.000      5.53970E-04
  65.800      4.05360E-04
  66.500      5.65950E-04
  67.500      6.81600E-04
  68.500      5.35360E-04
  69.500      6.92480E-04
  70.500      4.86380E-04
  71.600      7.71730E-04
  72.600      7.89680E-04
  73.500      8.14790E-04
  74.500      7.27680E-04
  75.500      7.45080E-04
  76.500      7.33520E-04
  77.500      8.17050E-04
  78.500      7.22560E-04
  79.500      8.46820E-04
  80.500      8.34030E-04
  81.500      8.58190E-04
  82.500      9.12010E-04
  83.500      7.03150E-04
  84.500      9.08250E-04
  85.500      8.87520E-04
  86.500      9.54880E-04
  87.500      9.73060E-04
  88.500      9.81550E-04
  89.500      9.94250E-04
  90.500      9.78830E-04
  91.500      9.05500E-04
  92.500      1.75070E-03
  93.500      2.40830E-03
  94.500      2.70450E-03
  95.500      3.03740E-03
  96.500      3.27490E-03
  97.500      2.24270E-03
  98.500      2.92820E-03
  99.500      2.69380E-03
  100.50      2.72090E-03
  101.50      2.90990E-03
  102.50      2.69780E-03
  103.50      3.02820E-03
  104.50      3.26420E-03
  105.50      3.21140E-03
  106.50      3.01310E-03
  107.50      3.08530E-03
  108.50      2.95030E-03
  109.50      3.10170E-03
  110.50      3.03850E-03
  111.50      3.02250E-03
  112.50      2.72110E-03
  113.50      3.03150E-03
  114.50      3.03780E-03
  115.50      2.85170E-03
  116.50      2.84800E-03
  117.50      2.28210E-03
  118.50      2.71910E-03
  119.50      2.63850E-03
  120.50      2.63610E-03
  121.50      2.33190E-03
  122.50      2.59540E-03
  123.50      2.71540E-03
  124.50      2.67850E-03
  125.50      2.71420E-03
  126.50      2.78000E-03
  127.50      2.86790E-03
  128.50      2.88270E-03
  129.50      2.83360E-03
  130.50      2.80310E-03
  131.50      2.89590E-03
  132.50      2.86870E-03
  133.50      2.83580E-03
  134.50      2.85400E-03
  135.50      2.79120E-03
  136.50      2.73900E-03
  137.50      2.67890E-03
  138.50      2.68180E-03
  139.50      2.39130E-03
  140.50      2.36490E-03
  141.50      2.70050E-03
  142.50      2.48930E-03
  143.50      2.63970E-03
  144.20      2.59040E-03
  144.70      2.60340E-03
  145.50      2.52320E-03
  146.50      2.53320E-03
  147.50      2.55720E-03
  148.50      2.59230E-03
  149.50      2.54630E-03
  150.50      2.56630E-03
  151.20      2.56830E-03
  151.70      2.56160E-03
  152.50      2.52130E-03
  153.50      2.31690E-03
  154.50      1.92530E-03
  155.50      1.99870E-03
  156.50      2.24400E-03
  157.50      2.35340E-03
  158.50      2.34670E-03
  159.50      2.37370E-03
  160.50      2.26170E-03
  161.50      2.21280E-03
  162.50      2.25740E-03
  163.50      2.28010E-03
  164.50      2.25820E-03
  165.50      2.32690E-03
  166.50      2.28700E-03
  167.20      2.16890E-03
  167.70      2.43600E-03
  168.50      2.37860E-03
  169.50      2.35040E-03
  170.50      2.33060E-03
  171.50      2.25720E-03
  172.50      2.22960E-03
  173.50      2.31690E-03
  174.50      2.31610E-03
  175.50      2.28780E-03
  176.50      2.27880E-03
  177.50      2.25040E-03
  178.50      2.28450E-03
  179.50      2.24020E-03
  180.50      2.24690E-03
  181.50      2.23170E-03
  182.50      2.20870E-03
  183.50      2.22730E-03
  184.50      2.20960E-03
  185.50      2.21440E-03
  186.50      2.21320E-03
  187.50      2.16940E-03
  188.50      2.14960E-03
  189.50      2.17520E-03
  190.50      2.18460E-03
  191.50      2.16570E-03
  192.50      2.08200E-03
  193.50      2.15910E-03
  194.50      2.16170E-03
  195.50      2.07240E-03
  196.70      2.11960E-03
  197.60      2.11810E-03
  198.40      2.11490E-03
  199.50      2.08920E-03
  200.50      2.11220E-03
  201.50      2.10220E-03
  202.50      2.09060E-03
  203.50      2.07040E-03
  204.50      2.04860E-03
  205.50      1.59420E-03
  206.50      1.55510E-03
  207.40      1.63170E-03
  207.80      1.67360E-03
  208.50      1.84440E-03
  209.50      1.97040E-03
  210.50      1.97040E-03
  211.50      1.99710E-03
  212.50      1.96480E-03
  213.50      1.97680E-03
  214.50      1.96470E-03
  215.50      1.97410E-03
  216.50      1.89160E-03
  217.50      1.95880E-03
  218.50      1.90850E-03
  219.50      1.95330E-03
  220.50      1.93840E-03
  221.50      1.87750E-03
  222.50      1.91460E-03
  223.50      1.90640E-03
  224.50      1.89240E-03
  225.50      1.84630E-03
  226.50      1.87180E-03
  227.50      1.87060E-03
  228.50      1.83540E-03
  229.50      1.76390E-03
  230.50      1.79090E-03
  231.50      1.80000E-03
  232.50      1.80950E-03
  233.50      1.80270E-03
  234.50      1.78520E-03
  235.50      1.76830E-03
  236.50      1.75410E-03
  237.50      1.73240E-03
  238.50      1.66950E-03
  239.50      1.70040E-03
  240.50      1.70810E-03
  241.50      1.69540E-03
  242.50      1.70110E-03
  243.50      1.68550E-03
  244.50      1.67890E-03
  245.50      1.66270E-03
  246.50      1.65930E-03
  247.50      1.65570E-03
  248.50      1.61720E-03
  249.50      1.24250E-03
  250.50      1.57450E-03
  251.30      1.53320E-03
  251.80      1.56980E-03
  252.50      1.60160E-03
  253.50      1.60450E-03
  254.50      1.59420E-03
  255.50      1.58530E-03
  256.50      1.57680E-03
  257.50      1.57090E-03
  258.50      1.56380E-03
  259.50      1.53440E-03
  260.50      1.54710E-03
  261.50      1.52570E-03
  262.50      1.53060E-03
  263.50      1.52730E-03
  264.50      1.51080E-03
  265.50      1.51040E-03
  266.50      1.49710E-03
  267.50      1.46960E-03
  268.50      1.47860E-03
  269.50      1.47130E-03
  270.50      1.47360E-03
  271.50      1.46080E-03
  272.50      1.45300E-03
  273.50      1.41860E-03
  274.50      1.44470E-03
  275.50      1.43210E-03
  276.50      1.42550E-03
  277.50      1.41960E-03
  278.50      1.40200E-03
  279.50      1.38180E-03
  280.50      1.39300E-03
  281.50      1.38860E-03
  282.50      1.38000E-03
  283.50      1.37430E-03
  284.50      1.37310E-03
  285.50      1.36400E-03
  286.50      1.35250E-03
  287.50      1.34570E-03
  288.50      1.34220E-03
  289.50      1.33440E-03
  291.00      1.32000E-03
  293.00      1.31320E-03
  295.00      1.29940E-03
  297.00      1.28350E-03
  299.00      1.26270E-03
  301.00      1.24850E-03
  303.00      1.22760E-03
  305.00      1.22630E-03
  307.00      1.21470E-03
  309.00      1.20590E-03
  311.00      1.19840E-03
  313.00      1.18380E-03
  315.00      1.17800E-03
  317.00      1.16580E-03
  319.00      1.15680E-03
  321.00      1.13000E-03
  323.00      1.13430E-03
  325.00      1.12680E-03
  327.00      1.10390E-03
  329.00      1.10160E-03
  331.00      1.09020E-03
  333.00      1.07850E-03
  335.00      1.06190E-03
  337.00      1.05770E-03
  339.00      1.05180E-03
  341.00      1.04140E-03
  343.00      1.03750E-03
  345.00      1.02000E-03
  347.00      1.01800E-03
  349.00      1.01040E-03
  351.00      1.00230E-03
  353.00      9.91650E-04
  355.00      9.82890E-04
  357.00      9.75460E-04
  359.00      9.66630E-04
  361.00      9.56940E-04
  363.00      9.48130E-04
  364.00      9.32100E-04
  365.00      8.62200E-04
  367.00      8.56660E-04
  369.00      8.51960E-04
  371.00      8.44920E-04
  373.00      8.53060E-04
  375.00      8.70950E-04
  377.00      8.75560E-04
  379.00      8.94260E-04
  381.00      9.08860E-04
  383.00      8.65520E-04
  385.00      9.09560E-04
  387.00      8.95970E-04
  389.00      8.41830E-04
  391.00      8.98400E-04
  393.00      8.81060E-04
  395.00      8.73410E-04
  397.00      8.07050E-04
  399.00      8.69260E-04
  401.00      8.60160E-04
  403.00      8.41970E-04
  405.00      8.49900E-04
  407.00      8.32680E-04
  409.00      8.09660E-04
  411.00      7.71960E-04
  413.00      8.15890E-04
  415.00      8.11540E-04
  417.00      8.10130E-04
  419.00      8.01060E-04
  421.00      7.88650E-04
  423.00      7.92320E-04
  425.00      7.82790E-04
  427.00      7.76610E-04
  429.00      7.70010E-04
  431.00      7.60750E-04
  433.00      7.40110E-04
  435.00      7.08460E-04
  437.00      7.46130E-04
  439.00      7.36130E-04
  441.00      7.31170E-04
  443.00      7.30500E-04
  445.00      7.24190E-04
  447.00      7.13400E-04
  449.00      7.14570E-04
  451.00      7.05480E-04
  453.00      7.02430E-04
  455.00      6.89710E-04
  457.00      6.94210E-04
  459.00      6.86990E-04
  461.00      6.82550E-04
  463.00      6.74070E-04
  465.00      6.52790E-04
  467.00      6.65700E-04
  469.00      6.47350E-04
  471.00      6.56030E-04
  473.00      6.58680E-04
  475.00      6.53750E-04
  477.00      6.49290E-04
  479.00      6.44640E-04
  481.00      6.39610E-04
  483.00      6.34880E-04
  485.00      6.21210E-04
  487.00      5.85170E-04
  489.00      6.20790E-04
  491.00      6.16490E-04
  493.00      6.08990E-04
  495.00      6.07400E-04
  497.00      6.05450E-04
  499.00      6.01500E-04
  501.00      5.92840E-04
  503.00      5.91390E-04
  505.00      5.87530E-04
  507.00      5.85110E-04
  509.00      5.81200E-04
  511.00      5.77310E-04
  513.00      5.73230E-04
  515.00      5.69400E-04
  517.00      5.65400E-04
  519.00      5.61800E-04
  521.00      5.58240E-04
  523.00      5.54750E-04
  525.00      5.50020E-04
  527.00      5.45810E-04
  529.00      5.43860E-04
  531.00      5.40190E-04
  533.00      5.36650E-04
  535.00      5.33350E-04
  537.00      5.29830E-04
  539.00      5.26280E-04
  541.00      5.15890E-04
  543.00      5.19760E-04
  545.00      5.16440E-04
  547.00      5.12980E-04
  549.00      5.09820E-04
  551.00      5.05840E-04
  553.00      5.03430E-04
  555.00      5.00340E-04
  557.00      4.96830E-04
  559.00      4.92000E-04
  561.00      4.91010E-04
  563.00      4.87940E-04
  565.00      4.84890E-04
  567.00      4.81800E-04
  569.00      4.72010E-04
  571.00      4.50890E-04
  573.00      4.48360E-04
  575.00      4.45600E-04
  577.00      4.43440E-04
  579.00      4.41250E-04
  581.00      4.38060E-04
  583.00      4.37980E-04
  585.00      4.37870E-04
  587.00      4.32060E-04
  589.00      4.36720E-04
  591.00      4.36600E-04
  593.00      4.36720E-04
  595.00      4.37290E-04
  597.00      4.37440E-04
  599.00      4.36730E-04
  601.00      4.34940E-04
  603.00      4.32330E-04
  605.00      4.30010E-04
  607.00      4.27210E-04
  609.00      4.25380E-04
  611.00      4.22360E-04
  613.00      4.19980E-04
  615.00      4.17900E-04
  617.00      4.14290E-04
  619.00      4.13460E-04
  621.00      4.11160E-04
  623.00      4.07240E-04
  625.00      4.06160E-04
  627.00      4.04130E-04
  629.00      4.01840E-04
  631.00      3.97460E-04
  633.00      3.97320E-04
  635.00      3.94970E-04
  637.00      3.92910E-04
  639.00      3.90700E-04
  641.00      3.86240E-04
  643.00      3.86400E-04
  645.00      3.84020E-04
  647.00      3.81760E-04
  649.00      3.79740E-04
  651.00      3.77200E-04
  653.00      3.72680E-04
  655.00      3.70100E-04
  657.00      3.45310E-04
  659.00      3.69200E-04
  661.00      3.67660E-04
  663.00      3.65760E-04
  665.00      3.63690E-04
  667.00      3.59060E-04
  669.00      3.55010E-04
  671.00      3.57020E-04
  673.00      3.55340E-04
  675.00      3.53670E-04
  677.00      3.52140E-04
  679.00      3.50390E-04
  681.00      3.48570E-04
  683.00      3.46710E-04
  685.00      3.44820E-04
  687.00      3.42910E-04
  689.00      3.37890E-04
  691.00      3.39040E-04
  693.00      3.37760E-04
  695.00      3.36000E-04
  697.00      3.34260E-04
  699.00      3.32510E-04
  701.00      3.30430E-04
  703.00      3.28490E-04
  705.00      3.26910E-04
  707.00      3.22850E-04
  709.00      3.24070E-04
  711.00      3.22320E-04
  713.00      3.20700E-04
  715.00      3.19180E-04
  717.00      3.15450E-04
  719.00      3.14950E-04
  721.00      3.14370E-04
  723.00      3.12620E-04
  725.00      3.11130E-04
  727.00      3.09670E-04
  729.00      3.07040E-04
  731.00      3.06280E-04
  733.00      3.05080E-04
  735.00      3.03560E-04
  737.00      3.01910E-04
  739.00      3.00570E-04
  741.00      2.98930E-04
  743.00      2.97650E-04
  745.00      2.95840E-04
  747.00      2.94600E-04
  749.00      2.92630E-04
  751.00      2.91700E-04
  753.00      2.90420E-04
  755.00      2.89020E-04
  757.00      2.87610E-04
  759.00      2.83220E-04
  761.00      2.84460E-04
  763.00      2.83390E-04
  765.00      2.82030E-04
  767.00      2.80860E-04
  769.00      2.78820E-04
  771.00      2.77900E-04
  773.00      2.76080E-04
  775.00      2.75430E-04
  777.00      2.74290E-04
  779.00      2.72990E-04
  781.00      2.71680E-04
  783.00      2.70410E-04
  785.00      2.68670E-04
  787.00      2.67550E-04
  789.00      2.66500E-04
  791.00      2.65470E-04
  793.00      2.64280E-04
  795.00      2.63090E-04
  797.00      2.61500E-04
  799.00      2.60600E-04
  801.00      2.59450E-04
  803.00      2.58120E-04
  805.00      2.57100E-04
  807.00      2.55930E-04
  809.00      2.54730E-04
  811.00      2.53390E-04
  813.00      2.52480E-04
  815.00      2.51230E-04
  817.00      2.49930E-04
  819.00      2.48090E-04
  821.00      2.40240E-04
  823.00      2.37990E-04
  825.00      2.38100E-04
  827.00      2.36960E-04
  829.00      2.36240E-04
  831.00      2.35330E-04
  833.00      2.33830E-04
  835.00      2.32790E-04
  837.00      2.32190E-04
  839.00      2.31500E-04
  841.00      2.30640E-04
  843.00      2.29870E-04
  845.00      2.28800E-04
  847.00      2.28240E-04
  849.00      2.27580E-04
  851.00      2.26020E-04
  853.00      2.26280E-04
  855.00      2.24550E-04
  857.00      2.25400E-04
  859.00      2.22890E-04
  861.00      2.22420E-04
  863.00      2.24150E-04
  865.00      2.22400E-04
  867.00      2.17120E-04
  869.00      2.22490E-04
  871.00      2.22620E-04
  873.00      2.20850E-04
  875.00      2.11840E-04
  877.00      2.18570E-04
  879.00      2.20410E-04
  881.00      2.19800E-04
  883.00      2.18720E-04
  885.00      2.13750E-04
  887.00      2.05340E-04
  889.00      2.15500E-04
  891.00      2.15630E-04
  893.00      2.14430E-04
  895.00      2.13800E-04
  897.00      2.13150E-04
  899.00      2.10880E-04
  901.00      1.99180E-04
  903.00      2.04610E-04
  905.00      2.09210E-04
  907.00      2.08170E-04
  909.00      2.07800E-04
  911.00      2.06880E-04
  913.00      2.06380E-04
  915.00      2.05660E-04
  917.00      2.04500E-04
  919.00      2.03640E-04
  921.00      2.00180E-04
  923.00      1.87180E-04
  925.00      1.98620E-04
  927.00      2.00260E-04
  929.00      1.99720E-04
  931.00      1.98740E-04
  933.00      1.98110E-04
  935.00      1.94490E-04
  937.00      1.95780E-04
  939.00      1.95780E-04
  941.00      1.94820E-04
  943.00      1.94190E-04
  945.00      1.93480E-04
  947.00      1.92430E-04
  949.00      1.91900E-04
  951.00      1.90180E-04
  953.00      1.87050E-04
  955.00      1.75070E-04
  957.00      1.87150E-04
  959.00      1.88100E-04
  961.00      1.87360E-04
  963.00      1.86340E-04
  965.00      1.86120E-04
  967.00      1.85440E-04
  969.00      1.84680E-04
  971.00      1.81630E-04
  973.00      1.82910E-04
  975.00      1.82480E-04
  977.00      1.81030E-04
  979.00      1.81170E-04
  981.00      1.80460E-04
  983.00      1.79690E-04
  985.00      1.79070E-04
  987.00      1.78430E-04
  989.00      1.77650E-04
  991.00      1.76900E-04
  993.00      1.76400E-04
  995.00      1.75760E-04
  997.00      1.75080E-04
  999.00      1.74430E-04
  1002.5      1.70090E-04
  1007.5      1.66820E-04
  1012.5      1.67630E-04
  1017.5      1.68510E-04
  1022.5      1.66900E-04
  1027.5      1.65310E-04
  1032.5      1.63510E-04
  1037.5      1.62420E-04
  1042.5      1.60480E-04
  1047.5      1.59520E-04
  1052.5      1.58070E-04
  1057.5      1.56680E-04
  1062.5      1.55280E-04
  1067.5      1.53840E-04
  1072.5      1.52570E-04
  1077.5      1.51220E-04
  1082.5      1.48970E-04
  1087.5      1.48520E-04
  1092.5      1.41180E-04
  1097.5      1.44890E-04
  1102.5      1.44560E-04
  1107.5      1.43550E-04
  1112.5      1.42330E-04
  1117.5      1.41190E-04
  1122.5      1.39950E-04
  1127.5      1.38780E-04
  1132.5      1.37580E-04
  1137.5      1.36460E-04
  1142.5      1.35360E-04
  1147.5      1.34240E-04
  1152.5      1.33150E-04
  1157.5      1.32030E-04
  1162.5      1.30050E-04
  1167.5      1.29270E-04
  1172.5      1.28860E-04
  1177.5      1.27820E-04
  1182.5      1.26720E-04
  1187.5      1.25750E-04
  1192.5      1.24740E-04
  1197.5      1.23130E-04
  1202.5      1.22800E-04
  1207.5      1.21800E-04
  1212.5      1.20800E-04
  1217.5      1.19930E-04
  1222.5      1.18990E-04
  1227.5      1.18070E-04
  1232.5      1.17140E-04
  1237.5      1.16250E-04
  1242.5      1.15360E-04
  1247.5      1.14480E-04
  1252.5      1.13500E-04
  1257.5      1.12720E-04
  1262.5      1.11890E-04
  1267.5      1.11050E-04
  1272.5      1.10210E-04
  1277.5      1.08560E-04
  1282.5      1.03880E-04
  1287.5      1.07630E-04
  1292.5      1.06970E-04
  1297.5      1.05930E-04
  1302.5      1.05370E-04
  1307.5      1.04630E-04
  1312.5      1.03870E-04
  1317.5      1.03110E-04
  1322.5      1.02370E-04
  1327.5      1.01630E-04
  1332.5      1.00900E-04
  1337.5      1.00170E-04
  1342.5      9.94240E-05
  1347.5      9.87420E-05
  1352.5      9.80340E-05
  1357.5      9.73610E-05
  1362.5      9.66600E-05
  1367.5      9.59960E-05
  1372.5      9.52730E-05
  1377.5      9.46600E-05
  1382.5      9.40050E-05
  1387.5      9.33530E-05
  1392.5      9.26890E-05
  1397.5      9.20720E-05
