 Castelli and Kurucz 2004-2012 Atmosphere
 T     44000.     G    4.50000 [0.0a] VTURB=2  L/H=1.25 NOVER NEW ODF          
 Wavelength  Eddington Hnu
   (nm)    (ergs/s/cm2/Hz/sr)
  9.0900      2.95060E-22
  9.3500      9.63770E-22
  9.6100      2.89690E-21
  9.7700      5.70950E-21
  9.9600      1.21760E-20
  10.200      3.04810E-20
  10.380      5.90880E-20
  10.560      1.12060E-19
  10.770      2.30310E-19
  11.040      5.59100E-19
  11.400      1.71150E-18
  11.780      5.17110E-18
  12.130      1.36070E-17
  12.480      3.37880E-17
  12.710      5.99040E-17
  12.840      8.25500E-17
  13.050      1.35100E-16
  13.240      2.07910E-16
  13.390      2.91810E-16
  13.660      5.20000E-16
  13.980      1.02700E-15
  14.330      2.04520E-15
  14.720      4.11970E-15
  15.100      8.58380E-15
  15.520      1.77200E-14
  15.880      3.23170E-14
  16.200      5.98280E-14
  16.600      1.11720E-13
  17.030      2.03890E-13
  17.340      3.12080E-13
  17.680      5.09280E-13
  18.020      7.96730E-13
  18.170      9.55710E-13
  18.610      1.69140E-12
  19.100      2.98570E-12
  19.390      4.25000E-12
  19.840      6.98550E-12
  20.180      9.77510E-12
  20.500      1.37820E-11
  21.050      2.35260E-11
  21.620      3.92880E-11
  21.980      5.49700E-11
  22.300      7.14520E-11
  22.680      9.97460E-11
  23.000      2.48680E-08
  23.400      8.85810E-08
  24.000      1.17680E-07
  24.650      2.26580E-07
  25.240      1.17570E-06
  25.680      3.26480E-06
  26.000      3.10610E-06
  26.400      1.79640E-05
  26.850      2.44190E-05
  27.350      3.22850E-05
  27.850      1.77950E-05
  28.400      4.78110E-05
  29.000      8.57270E-05
  29.600      6.57280E-05
  30.100      4.19810E-05
  30.800      8.42220E-05
  31.800      1.56100E-05
  32.800      2.68660E-05
  33.800      2.03820E-05
  34.800      2.44700E-05
  35.700      6.88450E-05
  36.600      1.77830E-04
  37.500      2.73350E-04
  38.500      2.83040E-04
  39.500      5.04960E-04
  40.500      9.16680E-04
  41.400      8.86210E-04
  42.200      8.31080E-04
  43.000      8.02950E-04
  44.100      1.00140E-03
  45.100      1.08440E-03
  46.000      8.67320E-04
  47.000      1.03600E-03
  48.000      1.27530E-03
  49.000      8.88780E-04
  50.000      1.58140E-03
  50.600      1.16310E-03
  51.200      1.71970E-03
  52.000      1.63070E-03
  53.000      1.53440E-03
  54.000      1.29470E-03
  55.000      1.00260E-03
  56.000      1.41710E-03
  57.000      1.93600E-03
  58.000      1.96940E-03
  59.000      2.02430E-03
  60.000      1.60770E-03
  61.000      1.35830E-03
  62.000      1.95710E-03
  63.000      1.78970E-03
  64.000      2.21640E-03
  65.000      2.05550E-03
  65.800      1.72350E-03
  66.500      2.20810E-03
  67.500      2.34090E-03
  68.500      2.07470E-03
  69.500      2.37570E-03
  70.500      1.94930E-03
  71.600      2.43570E-03
  72.600      2.53350E-03
  73.500      2.55110E-03
  74.500      2.43180E-03
  75.500      2.39490E-03
  76.500      2.20300E-03
  77.500      2.46480E-03
  78.500      2.02230E-03
  79.500      2.41510E-03
  80.500      2.52120E-03
  81.500      2.54500E-03
  82.500      2.60090E-03
  83.500      2.25830E-03
  84.500      2.57000E-03
  85.500      2.41500E-03
  86.500      2.62350E-03
  87.500      2.67070E-03
  88.500      2.62810E-03
  89.500      2.63570E-03
  90.500      2.58300E-03
  91.500      2.00690E-03
  92.500      3.26910E-03
  93.500      4.12510E-03
  94.500      4.60980E-03
  95.500      5.40880E-03
  96.500      5.70030E-03
  97.500      4.56920E-03
  98.500      5.27050E-03
  99.500      4.80370E-03
  100.50      4.87690E-03
  101.50      5.07890E-03
  102.50      4.79060E-03
  103.50      5.36080E-03
  104.50      5.60320E-03
  105.50      5.55560E-03
  106.50      5.27890E-03
  107.50      5.50640E-03
  108.50      5.14970E-03
  109.50      5.43110E-03
  110.50      5.36970E-03
  111.50      5.35210E-03
  112.50      5.17710E-03
  113.50      5.38780E-03
  114.50      5.42600E-03
  115.50      5.17270E-03
  116.50      4.99050E-03
  117.50      4.57980E-03
  118.50      4.96700E-03
  119.50      4.73160E-03
  120.50      4.74720E-03
  121.50      4.14540E-03
  122.50      4.66160E-03
  123.50      4.58450E-03
  124.50      4.49340E-03
  125.50      4.65980E-03
  126.50      4.69560E-03
  127.50      4.74620E-03
  128.50      4.73930E-03
  129.50      4.75630E-03
  130.50      4.64030E-03
  131.50      4.65070E-03
  132.50      4.61220E-03
  133.50      4.58300E-03
  134.50      4.53810E-03
  135.50      4.42920E-03
  136.50      4.28130E-03
  137.50      4.12940E-03
  138.50      4.24390E-03
  139.50      4.09420E-03
  140.50      3.93520E-03
  141.50      4.34660E-03
  142.50      4.11920E-03
  143.50      4.28140E-03
  144.20      4.11620E-03
  144.70      4.13830E-03
  145.50      4.06100E-03
  146.50      4.07190E-03
  147.50      4.08930E-03
  148.50      4.14350E-03
  149.50      4.07420E-03
  150.50      4.06850E-03
  151.20      4.07830E-03
  151.70      3.99560E-03
  152.50      4.02880E-03
  153.50      3.80490E-03
  154.50      3.29040E-03
  155.50      3.38060E-03
  156.50      3.68770E-03
  157.50      3.78660E-03
  158.50      3.71350E-03
  159.50      3.77060E-03
  160.50      3.65050E-03
  161.50      3.59480E-03
  162.50      3.62750E-03
  163.50      3.64080E-03
  164.50      3.51770E-03
  165.50      3.66620E-03
  166.50      3.61360E-03
  167.20      3.49570E-03
  167.70      3.71670E-03
  168.50      3.68930E-03
  169.50      3.68660E-03
  170.50      3.60610E-03
  171.50      3.48690E-03
  172.50      3.47740E-03
  173.50      3.58950E-03
  174.50      3.57020E-03
  175.50      3.53540E-03
  176.50      3.49550E-03
  177.50      3.47250E-03
  178.50      3.49670E-03
  179.50      3.43150E-03
  180.50      3.41720E-03
  181.50      3.38480E-03
  182.50      3.36460E-03
  183.50      3.35600E-03
  184.50      3.35020E-03
  185.50      3.32630E-03
  186.50      3.32250E-03
  187.50      3.26690E-03
  188.50      3.24300E-03
  189.50      3.27200E-03
  190.50      3.25300E-03
  191.50      3.23060E-03
  192.50      3.12540E-03
  193.50      3.19880E-03
  194.50      3.18620E-03
  195.50      3.12610E-03
  196.70      3.12750E-03
  197.60      3.09250E-03
  198.40      3.10450E-03
  199.50      3.07650E-03
  200.50      3.07030E-03
  201.50      3.05100E-03
  202.50      3.03470E-03
  203.50      3.00210E-03
  204.50      2.96570E-03
  205.50      2.23610E-03
  206.50      2.16790E-03
  207.40      2.24530E-03
  207.80      2.31520E-03
  208.50      2.51620E-03
  209.50      2.79560E-03
  210.50      2.83680E-03
  211.50      2.85470E-03
  212.50      2.81580E-03
  213.50      2.82320E-03
  214.50      2.80230E-03
  215.50      2.81260E-03
  216.50      2.67330E-03
  217.50      2.79530E-03
  218.50      2.69680E-03
  219.50      2.77720E-03
  220.50      2.75370E-03
  221.50      2.64060E-03
  222.50      2.72360E-03
  223.50      2.70830E-03
  224.50      2.69160E-03
  225.50      2.59520E-03
  226.50      2.65020E-03
  227.50      2.65130E-03
  228.50      2.60200E-03
  229.50      2.56400E-03
  230.50      2.51450E-03
  231.50      2.54590E-03
  232.50      2.55830E-03
  233.50      2.54790E-03
  234.50      2.51900E-03
  235.50      2.49470E-03
  236.50      2.47460E-03
  237.50      2.44440E-03
  238.50      2.33720E-03
  239.50      2.40030E-03
  240.50      2.39340E-03
  241.50      2.37430E-03
  242.50      2.39030E-03
  243.50      2.36540E-03
  244.50      2.35520E-03
  245.50      2.32170E-03
  246.50      2.32360E-03
  247.50      2.32830E-03
  248.50      2.29320E-03
  249.50      2.04100E-03
  250.50      2.26340E-03
  251.30      2.11910E-03
  251.80      2.20590E-03
  252.50      2.22780E-03
  253.50      2.23820E-03
  254.50      2.22940E-03
  255.50      2.21480E-03
  256.50      2.20350E-03
  257.50      2.18850E-03
  258.50      2.17700E-03
  259.50      2.12150E-03
  260.50      2.15240E-03
  261.50      2.11140E-03
  262.50      2.12970E-03
  263.50      2.12090E-03
  264.50      2.09460E-03
  265.50      2.09570E-03
  266.50      2.08000E-03
  267.50      2.04210E-03
  268.50      2.04810E-03
  269.50      2.03660E-03
  270.50      2.04110E-03
  271.50      2.02600E-03
  272.50      2.01190E-03
  273.50      1.94610E-03
  274.50      1.99500E-03
  275.50      1.97590E-03
  276.50      1.97040E-03
  277.50      1.95370E-03
  278.50      1.92470E-03
  279.50      1.91400E-03
  280.50      1.91790E-03
  281.50      1.90880E-03
  282.50      1.89140E-03
  283.50      1.89010E-03
  284.50      1.88380E-03
  285.50      1.87230E-03
  286.50      1.85330E-03
  287.50      1.84050E-03
  288.50      1.83960E-03
  289.50      1.82560E-03
  291.00      1.81250E-03
  293.00      1.79800E-03
  295.00      1.77960E-03
  297.00      1.75490E-03
  299.00      1.72740E-03
  301.00      1.71050E-03
  303.00      1.68010E-03
  305.00      1.67370E-03
  307.00      1.64620E-03
  309.00      1.64340E-03
  311.00      1.62840E-03
  313.00      1.60940E-03
  315.00      1.59980E-03
  317.00      1.58160E-03
  319.00      1.56850E-03
  321.00      1.52270E-03
  323.00      1.53810E-03
  325.00      1.52420E-03
  327.00      1.49250E-03
  329.00      1.48880E-03
  331.00      1.47320E-03
  333.00      1.45680E-03
  335.00      1.43200E-03
  337.00      1.42730E-03
  339.00      1.41080E-03
  341.00      1.39600E-03
  343.00      1.39280E-03
  345.00      1.36830E-03
  347.00      1.36520E-03
  349.00      1.35380E-03
  351.00      1.34430E-03
  353.00      1.32720E-03
  355.00      1.31600E-03
  357.00      1.30400E-03
  359.00      1.29360E-03
  361.00      1.28040E-03
  363.00      1.26680E-03
  364.00      1.23640E-03
  365.00      1.11530E-03
  367.00      1.10720E-03
  369.00      1.10130E-03
  371.00      1.09860E-03
  373.00      1.11430E-03
  375.00      1.13520E-03
  377.00      1.14990E-03
  379.00      1.17350E-03
  381.00      1.18900E-03
  383.00      1.14120E-03
  385.00      1.18740E-03
  387.00      1.18090E-03
  389.00      1.10190E-03
  391.00      1.17350E-03
  393.00      1.15170E-03
  395.00      1.14650E-03
  397.00      1.05640E-03
  399.00      1.13410E-03
  401.00      1.12550E-03
  403.00      1.09790E-03
  405.00      1.10960E-03
  407.00      1.09590E-03
  409.00      1.06180E-03
  411.00      1.00990E-03
  413.00      1.06910E-03
  415.00      1.06260E-03
  417.00      1.05580E-03
  419.00      1.04300E-03
  421.00      1.02140E-03
  423.00      1.03100E-03
  425.00      1.02170E-03
  427.00      1.01390E-03
  429.00      1.00550E-03
  431.00      9.94790E-04
  433.00      9.60830E-04
  435.00      9.24910E-04
  437.00      9.70130E-04
  439.00      9.59360E-04
  441.00      9.51290E-04
  443.00      9.48110E-04
  445.00      9.39300E-04
  447.00      9.29130E-04
  449.00      9.26320E-04
  451.00      9.17040E-04
  453.00      9.09470E-04
  455.00      8.87710E-04
  457.00      8.97560E-04
  459.00      8.90460E-04
  461.00      8.84180E-04
  463.00      8.72100E-04
  465.00      8.54280E-04
  467.00      8.62480E-04
  469.00      8.28970E-04
  471.00      8.52120E-04
  473.00      8.48090E-04
  475.00      8.41910E-04
  477.00      8.35370E-04
  479.00      8.27940E-04
  481.00      8.22650E-04
  483.00      8.16370E-04
  485.00      7.96160E-04
  487.00      7.53440E-04
  489.00      7.97640E-04
  491.00      7.92560E-04
  493.00      7.85880E-04
  495.00      7.81720E-04
  497.00      7.76530E-04
  499.00      7.71310E-04
  501.00      7.63540E-04
  503.00      7.59190E-04
  505.00      7.54050E-04
  507.00      7.49460E-04
  509.00      7.44480E-04
  511.00      7.39220E-04
  513.00      7.33720E-04
  515.00      7.28810E-04
  517.00      7.24000E-04
  519.00      7.18960E-04
  521.00      7.13780E-04
  523.00      7.09260E-04
  525.00      7.03550E-04
  527.00      6.97920E-04
  529.00      6.94880E-04
  531.00      6.90070E-04
  533.00      6.85370E-04
  535.00      6.81000E-04
  537.00      6.76280E-04
  539.00      6.71790E-04
  541.00      6.54220E-04
  543.00      6.62930E-04
  545.00      6.58660E-04
  547.00      6.54080E-04
  549.00      6.49960E-04
  551.00      6.44680E-04
  553.00      6.41510E-04
  555.00      6.37400E-04
  557.00      6.32680E-04
  559.00      6.26530E-04
  561.00      6.25120E-04
  563.00      6.21080E-04
  565.00      6.17090E-04
  567.00      6.13140E-04
  569.00      5.99420E-04
  571.00      5.60100E-04
  573.00      5.56830E-04
  575.00      5.53490E-04
  577.00      5.50620E-04
  579.00      5.47960E-04
  581.00      5.42700E-04
  583.00      5.44550E-04
  585.00      5.44310E-04
  587.00      5.41020E-04
  589.00      5.44250E-04
  591.00      5.44840E-04
  593.00      5.45950E-04
  595.00      5.47740E-04
  597.00      5.49260E-04
  599.00      5.51090E-04
  601.00      5.49510E-04
  603.00      5.47340E-04
  605.00      5.45320E-04
  607.00      5.41430E-04
  609.00      5.39330E-04
  611.00      5.35310E-04
  613.00      5.32210E-04
  615.00      5.30040E-04
  617.00      5.24660E-04
  619.00      5.23880E-04
  621.00      5.21080E-04
  623.00      5.15180E-04
  625.00      5.14290E-04
  627.00      5.11900E-04
  629.00      5.09010E-04
  631.00      5.02170E-04
  633.00      5.02840E-04
  635.00      5.00130E-04
  637.00      4.97350E-04
  639.00      4.94070E-04
  641.00      4.86950E-04
  643.00      4.88870E-04
  645.00      4.85910E-04
  647.00      4.83100E-04
  649.00      4.80530E-04
  651.00      4.77090E-04
  653.00      4.69130E-04
  655.00      4.66990E-04
  657.00      4.37310E-04
  659.00      4.66440E-04
  661.00      4.64690E-04
  663.00      4.62120E-04
  665.00      4.59550E-04
  667.00      4.54600E-04
  669.00      4.47130E-04
  671.00      4.51110E-04
  673.00      4.49290E-04
  675.00      4.46810E-04
  677.00      4.44520E-04
  679.00      4.42240E-04
  681.00      4.39840E-04
  683.00      4.37470E-04
  685.00      4.35060E-04
  687.00      4.32680E-04
  689.00      4.23530E-04
  691.00      4.27820E-04
  693.00      4.25870E-04
  695.00      4.23600E-04
  697.00      4.21360E-04
  699.00      4.19100E-04
  701.00      4.16560E-04
  703.00      4.14170E-04
  705.00      4.11970E-04
  707.00      4.08890E-04
  709.00      4.08230E-04
  711.00      4.05890E-04
  713.00      4.03790E-04
  715.00      4.01910E-04
  717.00      3.95250E-04
  719.00      3.95190E-04
  721.00      3.95720E-04
  723.00      3.93690E-04
  725.00      3.91670E-04
  727.00      3.89680E-04
  729.00      3.87360E-04
  731.00      3.85250E-04
  733.00      3.83770E-04
  735.00      3.81830E-04
  737.00      3.79640E-04
  739.00      3.77840E-04
  741.00      3.75810E-04
  743.00      3.74220E-04
  745.00      3.71800E-04
  747.00      3.70460E-04
  749.00      3.68130E-04
  751.00      3.66540E-04
  753.00      3.64990E-04
  755.00      3.63140E-04
  757.00      3.61350E-04
  759.00      3.53210E-04
  761.00      3.57250E-04
  763.00      3.56030E-04
  765.00      3.54270E-04
  767.00      3.52580E-04
  769.00      3.50260E-04
  771.00      3.48860E-04
  773.00      3.46730E-04
  775.00      3.45760E-04
  777.00      3.44260E-04
  779.00      3.42590E-04
  781.00      3.40950E-04
  783.00      3.39280E-04
  785.00      3.36960E-04
  787.00      3.35750E-04
  789.00      3.34370E-04
  791.00      3.32940E-04
  793.00      3.31410E-04
  795.00      3.29820E-04
  797.00      3.27760E-04
  799.00      3.26740E-04
  801.00      3.25220E-04
  803.00      3.23570E-04
  805.00      3.22220E-04
  807.00      3.20730E-04
  809.00      3.19240E-04
  811.00      3.17770E-04
  813.00      3.16310E-04
  815.00      3.14850E-04
  817.00      3.12970E-04
  819.00      3.10360E-04
  821.00      2.95360E-04
  823.00      2.91970E-04
  825.00      2.92410E-04
  827.00      2.91530E-04
  829.00      2.90330E-04
  831.00      2.89130E-04
  833.00      2.87450E-04
  835.00      2.86550E-04
  837.00      2.85500E-04
  839.00      2.84480E-04
  841.00      2.83530E-04
  843.00      2.82610E-04
  845.00      2.81650E-04
  847.00      2.80820E-04
  849.00      2.80130E-04
  851.00      2.79050E-04
  853.00      2.78760E-04
  855.00      2.77620E-04
  857.00      2.77430E-04
  859.00      2.76260E-04
  861.00      2.75610E-04
  863.00      2.76090E-04
  865.00      2.75030E-04
  867.00      2.71870E-04
  869.00      2.74620E-04
  871.00      2.74640E-04
  873.00      2.73580E-04
  875.00      2.67570E-04
  877.00      2.71690E-04
  879.00      2.72940E-04
  881.00      2.72590E-04
  883.00      2.71770E-04
  885.00      2.67030E-04
  887.00      2.59820E-04
  889.00      2.67740E-04
  891.00      2.67870E-04
  893.00      2.66560E-04
  895.00      2.65980E-04
  897.00      2.64840E-04
  899.00      2.62430E-04
  901.00      2.51040E-04
  903.00      2.55250E-04
  905.00      2.59860E-04
  907.00      2.59470E-04
  909.00      2.58580E-04
  911.00      2.56880E-04
  913.00      2.56530E-04
  915.00      2.55650E-04
  917.00      2.54350E-04
  919.00      2.52940E-04
  921.00      2.49350E-04
  923.00      2.35660E-04
  925.00      2.46610E-04
  927.00      2.48660E-04
  929.00      2.48250E-04
  931.00      2.47250E-04
  933.00      2.46000E-04
  935.00      2.39400E-04
  937.00      2.42780E-04
  939.00      2.43150E-04
  941.00      2.42200E-04
  943.00      2.41340E-04
  945.00      2.40380E-04
  947.00      2.39360E-04
  949.00      2.38390E-04
  951.00      2.36660E-04
  953.00      2.32650E-04
  955.00      2.19550E-04
  957.00      2.32060E-04
  959.00      2.33360E-04
  961.00      2.32810E-04
  963.00      2.31750E-04
  965.00      2.31060E-04
  967.00      2.30160E-04
  969.00      2.29260E-04
  971.00      2.27220E-04
  973.00      2.27260E-04
  975.00      2.26180E-04
  977.00      2.23740E-04
  979.00      2.24800E-04
  981.00      2.23930E-04
  983.00      2.22900E-04
  985.00      2.22210E-04
  987.00      2.21360E-04
  989.00      2.20490E-04
  991.00      2.19580E-04
  993.00      2.18810E-04
  995.00      2.17980E-04
  997.00      2.17140E-04
  999.00      2.16310E-04
  1002.5      2.11200E-04
  1007.5      2.07220E-04
  1012.5      2.06790E-04
  1017.5      2.08870E-04
  1022.5      2.06900E-04
  1027.5      2.04840E-04
  1032.5      2.02860E-04
  1037.5      2.01210E-04
  1042.5      1.98150E-04
  1047.5      1.97580E-04
  1052.5      1.95780E-04
  1057.5      1.94020E-04
  1062.5      1.92280E-04
  1067.5      1.90540E-04
  1072.5      1.88860E-04
  1077.5      1.87190E-04
  1082.5      1.85040E-04
  1087.5      1.83780E-04
  1092.5      1.75370E-04
  1097.5      1.79240E-04
  1102.5      1.79090E-04
  1107.5      1.77590E-04
  1112.5      1.76060E-04
  1117.5      1.74670E-04
  1122.5      1.73150E-04
  1127.5      1.71650E-04
  1132.5      1.70180E-04
  1137.5      1.68800E-04
  1142.5      1.67390E-04
  1147.5      1.66000E-04
  1152.5      1.64620E-04
  1157.5      1.63220E-04
  1162.5      1.59950E-04
  1167.5      1.59150E-04
  1172.5      1.59250E-04
  1177.5      1.57960E-04
  1182.5      1.56600E-04
  1187.5      1.55380E-04
  1192.5      1.54130E-04
  1197.5      1.52640E-04
  1202.5      1.51690E-04
  1207.5      1.50450E-04
  1212.5      1.49220E-04
  1217.5      1.48100E-04
  1222.5      1.46930E-04
  1227.5      1.45780E-04
  1232.5      1.44630E-04
  1237.5      1.43510E-04
  1242.5      1.42400E-04
  1247.5      1.41300E-04
  1252.5      1.40190E-04
  1257.5      1.39120E-04
  1262.5      1.38070E-04
  1267.5      1.37020E-04
  1272.5      1.35970E-04
  1277.5      1.34300E-04
  1282.5      1.28270E-04
  1287.5      1.32710E-04
  1292.5      1.31930E-04
  1297.5      1.30900E-04
  1302.5      1.29970E-04
  1307.5      1.29020E-04
  1312.5      1.28070E-04
  1317.5      1.27120E-04
  1322.5      1.26200E-04
  1327.5      1.25280E-04
  1332.5      1.24370E-04
  1337.5      1.23470E-04
  1342.5      1.22570E-04
  1347.5      1.21700E-04
  1352.5      1.20820E-04
  1357.5      1.19960E-04
  1362.5      1.19110E-04
  1367.5      1.18270E-04
  1372.5      1.17420E-04
  1377.5      1.16600E-04
  1382.5      1.15790E-04
  1387.5      1.14980E-04
  1392.5      1.14180E-04
  1397.5      1.13390E-04
