 Castelli and Kurucz 2004-2012 Atmosphere
 T     43000.     G    5.00000 [0.0a] VTURB=2  L/H=1.25 NOVER NEW ODF          
 Wavelength  Eddington Hnu
   (nm)    (ergs/s/cm2/Hz/sr)
  9.0900      7.92010E-23
  9.3500      2.62710E-22
  9.6100      8.04890E-22
  9.7700      1.59570E-21
  9.9600      3.43790E-21
  10.200      8.71310E-21
  10.380      1.70440E-20
  10.560      3.26110E-20
  10.770      6.76980E-20
  11.040      1.66450E-19
  11.400      5.18080E-19
  11.780      1.59780E-18
  12.130      4.26840E-18
  12.480      1.07970E-17
  12.710      1.93680E-17
  12.840      2.67090E-17
  13.050      4.42860E-17
  13.240      6.90370E-17
  13.390      9.76620E-17
  13.660      1.77050E-16
  13.980      3.55300E-16
  14.330      7.26130E-16
  14.720      1.51880E-15
  15.100      3.19760E-15
  15.520      6.77340E-15
  15.880      1.25490E-14
  16.200      2.15050E-14
  16.600      4.09950E-14
  17.030      7.77330E-14
  17.340      1.21750E-13
  17.680      1.99750E-13
  18.020      3.17050E-13
  18.170      3.84450E-13
  18.610      6.87400E-13
  19.100      1.25450E-12
  19.390      1.78010E-12
  19.840      2.98030E-12
  20.180      4.30480E-12
  20.500      6.07920E-12
  21.050      1.06630E-11
  21.620      1.83410E-11
  21.980      2.59400E-11
  22.300      3.44860E-11
  22.680      4.89780E-11
  23.000      1.45550E-08
  23.400      5.22990E-08
  24.000      7.39590E-08
  24.650      1.19440E-07
  25.240      2.96140E-07
  25.680      5.04510E-07
  26.000      6.37440E-07
  26.400      3.88640E-06
  26.850      5.77940E-06
  27.350      7.77430E-06
  27.850      4.49000E-06
  28.400      1.34410E-05
  29.000      2.26910E-05
  29.600      1.61240E-05
  30.100      1.33270E-05
  30.800      4.89460E-05
  31.800      1.21570E-05
  32.800      2.19570E-05
  33.800      1.87560E-05
  34.800      2.30100E-05
  35.700      6.18900E-05
  36.600      1.45880E-04
  37.500      2.18410E-04
  38.500      2.45770E-04
  39.500      4.10250E-04
  40.500      6.86180E-04
  41.400      6.56540E-04
  42.200      6.33650E-04
  43.000      5.96930E-04
  44.100      7.03980E-04
  45.100      7.82600E-04
  46.000      6.37450E-04
  47.000      7.35470E-04
  48.000      8.77760E-04
  49.000      6.25290E-04
  50.000      9.79480E-04
  50.600      7.50940E-04
  51.200      1.35200E-03
  52.000      1.26550E-03
  53.000      1.17850E-03
  54.000      1.05690E-03
  55.000      9.14520E-04
  56.000      1.26620E-03
  57.000      1.53980E-03
  58.000      1.53290E-03
  59.000      1.58570E-03
  60.000      1.26480E-03
  61.000      1.22900E-03
  62.000      1.64830E-03
  63.000      1.56980E-03
  64.000      1.79280E-03
  65.000      1.67940E-03
  65.800      1.41170E-03
  66.500      1.76240E-03
  67.500      1.91280E-03
  68.500      1.68000E-03
  69.500      1.93330E-03
  70.500      1.58200E-03
  71.600      2.02380E-03
  72.600      2.07560E-03
  73.500      2.10990E-03
  74.500      2.00300E-03
  75.500      1.99350E-03
  76.500      1.91500E-03
  77.500      2.06060E-03
  78.500      1.82640E-03
  79.500      2.06280E-03
  80.500      2.09590E-03
  81.500      2.12890E-03
  82.500      2.18450E-03
  83.500      1.88200E-03
  84.500      2.17030E-03
  85.500      2.09270E-03
  86.500      2.22400E-03
  87.500      2.25230E-03
  88.500      2.23480E-03
  89.500      2.24880E-03
  90.500      2.20840E-03
  91.500      1.70400E-03
  92.500      2.83300E-03
  93.500      3.79800E-03
  94.500      4.59150E-03
  95.500      5.38480E-03
  96.500      6.08170E-03
  97.500      4.36430E-03
  98.500      5.55700E-03
  99.500      5.01830E-03
  100.50      5.14280E-03
  101.50      5.39080E-03
  102.50      4.64530E-03
  103.50      5.60980E-03
  104.50      5.96450E-03
  105.50      5.88080E-03
  106.50      5.44910E-03
  107.50      5.72020E-03
  108.50      5.21470E-03
  109.50      5.67210E-03
  110.50      5.53360E-03
  111.50      5.52970E-03
  112.50      5.20820E-03
  113.50      5.52650E-03
  114.50      5.53770E-03
  115.50      5.19530E-03
  116.50      5.01880E-03
  117.50      4.45100E-03
  118.50      4.95040E-03
  119.50      4.74960E-03
  120.50      4.72170E-03
  121.50      3.87830E-03
  122.50      4.61300E-03
  123.50      4.67780E-03
  124.50      4.61290E-03
  125.50      4.72430E-03
  126.50      4.77160E-03
  127.50      4.85010E-03
  128.50      4.85920E-03
  129.50      4.81100E-03
  130.50      4.72690E-03
  131.50      4.78530E-03
  132.50      4.73850E-03
  133.50      4.70800E-03
  134.50      4.64870E-03
  135.50      4.56110E-03
  136.50      4.43260E-03
  137.50      4.30720E-03
  138.50      4.34710E-03
  139.50      4.11270E-03
  140.50      3.98370E-03
  141.50      4.39440E-03
  142.50      4.10710E-03
  143.50      4.30460E-03
  144.20      4.17420E-03
  144.70      4.18840E-03
  145.50      4.08950E-03
  146.50      4.10400E-03
  147.50      4.10120E-03
  148.50      4.16340E-03
  149.50      4.09080E-03
  150.50      4.10040E-03
  151.20      4.10780E-03
  151.70      4.04610E-03
  152.50      4.03450E-03
  153.50      3.76430E-03
  154.50      3.24220E-03
  155.50      3.33270E-03
  156.50      3.61710E-03
  157.50      3.72390E-03
  158.50      3.66220E-03
  159.50      3.72770E-03
  160.50      3.58690E-03
  161.50      3.51080E-03
  162.50      3.55430E-03
  163.50      3.54190E-03
  164.50      3.45160E-03
  165.50      3.61080E-03
  166.50      3.54070E-03
  167.20      3.41220E-03
  167.70      3.68600E-03
  168.50      3.63900E-03
  169.50      3.61710E-03
  170.50      3.55000E-03
  171.50      3.44810E-03
  172.50      3.40710E-03
  173.50      3.51630E-03
  174.50      3.50710E-03
  175.50      3.46350E-03
  176.50      3.42660E-03
  177.50      3.39420E-03
  178.50      3.43140E-03
  179.50      3.36230E-03
  180.50      3.34910E-03
  181.50      3.32640E-03
  182.50      3.29150E-03
  183.50      3.29430E-03
  184.50      3.27960E-03
  185.50      3.26330E-03
  186.50      3.25700E-03
  187.50      3.19320E-03
  188.50      3.16960E-03
  189.50      3.20270E-03
  190.50      3.18750E-03
  191.50      3.16120E-03
  192.50      3.04800E-03
  193.50      3.13680E-03
  194.50      3.12680E-03
  195.50      3.04450E-03
  196.70      3.06370E-03
  197.60      3.04020E-03
  198.40      3.04210E-03
  199.50      3.01520E-03
  200.50      3.01360E-03
  201.50      2.99250E-03
  202.50      2.97370E-03
  203.50      2.94430E-03
  204.50      2.90990E-03
  205.50      2.15990E-03
  206.50      2.07550E-03
  207.40      2.12280E-03
  207.80      2.17050E-03
  208.50      2.31030E-03
  209.50      2.59160E-03
  210.50      2.76190E-03
  211.50      2.79990E-03
  212.50      2.75290E-03
  213.50      2.76190E-03
  214.50      2.74400E-03
  215.50      2.75390E-03
  216.50      2.60620E-03
  217.50      2.74560E-03
  218.50      2.62200E-03
  219.50      2.72750E-03
  220.50      2.70730E-03
  221.50      2.56400E-03
  222.50      2.67450E-03
  223.50      2.66270E-03
  224.50      2.63860E-03
  225.50      2.51440E-03
  226.50      2.60340E-03
  227.50      2.60300E-03
  228.50      2.54840E-03
  229.50      2.49640E-03
  230.50      2.43430E-03
  231.50      2.49180E-03
  232.50      2.50560E-03
  233.50      2.49700E-03
  234.50      2.47020E-03
  235.50      2.44400E-03
  236.50      2.42350E-03
  237.50      2.38850E-03
  238.50      2.25860E-03
  239.50      2.34170E-03
  240.50      2.34570E-03
  241.50      2.32750E-03
  242.50      2.34050E-03
  243.50      2.31570E-03
  244.50      2.30560E-03
  245.50      2.27640E-03
  246.50      2.27810E-03
  247.50      2.27700E-03
  248.50      2.24230E-03
  249.50      1.94400E-03
  250.50      2.19670E-03
  251.30      2.03400E-03
  251.80      2.14340E-03
  252.50      2.17930E-03
  253.50      2.18790E-03
  254.50      2.17490E-03
  255.50      2.15970E-03
  256.50      2.14740E-03
  257.50      2.13650E-03
  258.50      2.12510E-03
  259.50      2.07520E-03
  260.50      2.09860E-03
  261.50      2.06380E-03
  262.50      2.07580E-03
  263.50      2.06780E-03
  264.50      2.04330E-03
  265.50      2.04360E-03
  266.50      2.02550E-03
  267.50      1.98620E-03
  268.50      1.99360E-03
  269.50      1.98350E-03
  270.50      1.98780E-03
  271.50      1.97120E-03
  272.50      1.95500E-03
  273.50      1.87870E-03
  274.50      1.94170E-03
  275.50      1.92460E-03
  276.50      1.91650E-03
  277.50      1.90320E-03
  278.50      1.87800E-03
  279.50      1.85690E-03
  280.50      1.86580E-03
  281.50      1.85860E-03
  282.50      1.84310E-03
  283.50      1.83840E-03
  284.50      1.83420E-03
  285.50      1.82250E-03
  286.50      1.80590E-03
  287.50      1.79600E-03
  288.50      1.79110E-03
  289.50      1.77580E-03
  291.00      1.75960E-03
  293.00      1.74730E-03
  295.00      1.72830E-03
  297.00      1.70430E-03
  299.00      1.67640E-03
  301.00      1.65800E-03
  303.00      1.62830E-03
  305.00      1.62310E-03
  307.00      1.60200E-03
  309.00      1.59400E-03
  311.00      1.58060E-03
  313.00      1.56100E-03
  315.00      1.55170E-03
  317.00      1.53370E-03
  319.00      1.52050E-03
  321.00      1.47310E-03
  323.00      1.49040E-03
  325.00      1.47780E-03
  327.00      1.44620E-03
  329.00      1.44290E-03
  331.00      1.42740E-03
  333.00      1.41080E-03
  335.00      1.38740E-03
  337.00      1.38230E-03
  339.00      1.36930E-03
  341.00      1.35540E-03
  343.00      1.35050E-03
  345.00      1.32530E-03
  347.00      1.32340E-03
  349.00      1.31320E-03
  351.00      1.30250E-03
  353.00      1.28650E-03
  355.00      1.27470E-03
  357.00      1.26420E-03
  359.00      1.25280E-03
  361.00      1.23960E-03
  363.00      1.22690E-03
  364.00      1.19830E-03
  365.00      1.08430E-03
  367.00      1.07660E-03
  369.00      1.06830E-03
  371.00      1.05890E-03
  373.00      1.07070E-03
  375.00      1.08300E-03
  377.00      1.09230E-03
  379.00      1.12170E-03
  381.00      1.14570E-03
  383.00      1.08900E-03
  385.00      1.14870E-03
  387.00      1.14260E-03
  389.00      1.04440E-03
  391.00      1.14320E-03
  393.00      1.12710E-03
  395.00      1.11330E-03
  397.00      9.99430E-04
  399.00      1.10410E-03
  401.00      1.09790E-03
  403.00      1.06740E-03
  405.00      1.08600E-03
  407.00      1.06640E-03
  409.00      1.02050E-03
  411.00      9.62590E-04
  413.00      1.04120E-03
  415.00      1.03700E-03
  417.00      1.03320E-03
  419.00      1.01680E-03
  421.00      9.95600E-04
  423.00      1.00880E-03
  425.00      9.98160E-04
  427.00      9.90360E-04
  429.00      9.81360E-04
  431.00      9.68300E-04
  433.00      9.22850E-04
  435.00      8.82870E-04
  437.00      9.45970E-04
  439.00      9.34520E-04
  441.00      9.29040E-04
  443.00      9.26320E-04
  445.00      9.17740E-04
  447.00      9.02450E-04
  449.00      9.04840E-04
  451.00      8.94380E-04
  453.00      8.86660E-04
  455.00      8.62420E-04
  457.00      8.76640E-04
  459.00      8.68700E-04
  461.00      8.62310E-04
  463.00      8.49680E-04
  465.00      8.28120E-04
  467.00      8.40060E-04
  469.00      8.06610E-04
  471.00      8.28970E-04
  473.00      8.28790E-04
  475.00      8.22480E-04
  477.00      8.16280E-04
  479.00      8.09680E-04
  481.00      8.03590E-04
  483.00      7.95560E-04
  485.00      7.65790E-04
  487.00      7.19500E-04
  489.00      7.76150E-04
  491.00      7.73150E-04
  493.00      7.64180E-04
  495.00      7.62330E-04
  497.00      7.58310E-04
  499.00      7.53080E-04
  501.00      7.43380E-04
  503.00      7.40310E-04
  505.00      7.35480E-04
  507.00      7.31610E-04
  509.00      7.26530E-04
  511.00      7.21430E-04
  513.00      7.16220E-04
  515.00      7.11220E-04
  517.00      7.06170E-04
  519.00      7.01340E-04
  521.00      6.96480E-04
  523.00      6.91870E-04
  525.00      6.86130E-04
  527.00      6.80510E-04
  529.00      6.77720E-04
  531.00      6.72980E-04
  533.00      6.68400E-04
  535.00      6.64030E-04
  537.00      6.59500E-04
  539.00      6.54960E-04
  541.00      6.34620E-04
  543.00      6.45960E-04
  545.00      6.42100E-04
  547.00      6.37690E-04
  549.00      6.33560E-04
  551.00      6.28360E-04
  553.00      6.25240E-04
  555.00      6.21210E-04
  557.00      6.16810E-04
  559.00      6.10610E-04
  561.00      6.09160E-04
  563.00      6.05210E-04
  565.00      6.01280E-04
  567.00      5.97400E-04
  569.00      5.84050E-04
  571.00      5.47480E-04
  573.00      5.44290E-04
  575.00      5.41030E-04
  577.00      5.38070E-04
  579.00      5.35110E-04
  581.00      5.30050E-04
  583.00      5.29960E-04
  585.00      5.28960E-04
  587.00      5.23280E-04
  589.00      5.27250E-04
  591.00      5.27170E-04
  593.00      5.27340E-04
  595.00      5.27990E-04
  597.00      5.28910E-04
  599.00      5.30320E-04
  601.00      5.30320E-04
  603.00      5.29980E-04
  605.00      5.29670E-04
  607.00      5.26650E-04
  609.00      5.24030E-04
  611.00      5.20900E-04
  613.00      5.18210E-04
  615.00      5.15490E-04
  617.00      5.11160E-04
  619.00      5.09670E-04
  621.00      5.07050E-04
  623.00      5.02010E-04
  625.00      5.00280E-04
  627.00      4.98080E-04
  629.00      4.95070E-04
  631.00      4.89500E-04
  633.00      4.89040E-04
  635.00      4.86440E-04
  637.00      4.83820E-04
  639.00      4.80540E-04
  641.00      4.74680E-04
  643.00      4.75380E-04
  645.00      4.72540E-04
  647.00      4.69800E-04
  649.00      4.67220E-04
  651.00      4.63280E-04
  653.00      4.56460E-04
  655.00      4.50080E-04
  657.00      4.18610E-04
  659.00      4.52210E-04
  661.00      4.51710E-04
  663.00      4.49370E-04
  665.00      4.46830E-04
  667.00      4.40680E-04
  669.00      4.34410E-04
  671.00      4.38310E-04
  673.00      4.36600E-04
  675.00      4.34270E-04
  677.00      4.32160E-04
  679.00      4.29950E-04
  681.00      4.27610E-04
  683.00      4.25290E-04
  685.00      4.22900E-04
  687.00      4.20460E-04
  689.00      4.11620E-04
  691.00      4.15410E-04
  693.00      4.13960E-04
  695.00      4.11740E-04
  697.00      4.09560E-04
  699.00      4.07310E-04
  701.00      4.04800E-04
  703.00      4.02470E-04
  705.00      4.00340E-04
  707.00      3.96270E-04
  709.00      3.96730E-04
  711.00      3.94550E-04
  713.00      3.92490E-04
  715.00      3.90570E-04
  717.00      3.83880E-04
  719.00      3.83490E-04
  721.00      3.84530E-04
  723.00      3.82510E-04
  725.00      3.80550E-04
  727.00      3.78630E-04
  729.00      3.75890E-04
  731.00      3.74330E-04
  733.00      3.72870E-04
  735.00      3.70970E-04
  737.00      3.68860E-04
  739.00      3.67200E-04
  741.00      3.65130E-04
  743.00      3.63550E-04
  745.00      3.61220E-04
  747.00      3.59860E-04
  749.00      3.57420E-04
  751.00      3.56080E-04
  753.00      3.54550E-04
  755.00      3.52750E-04
  757.00      3.50920E-04
  759.00      3.42310E-04
  761.00      3.46630E-04
  763.00      3.45760E-04
  765.00      3.44070E-04
  767.00      3.42480E-04
  769.00      3.39980E-04
  771.00      3.38840E-04
  773.00      3.36460E-04
  775.00      3.35810E-04
  777.00      3.34360E-04
  779.00      3.32720E-04
  781.00      3.31130E-04
  783.00      3.29500E-04
  785.00      3.27250E-04
  787.00      3.26010E-04
  789.00      3.24680E-04
  791.00      3.23340E-04
  793.00      3.21850E-04
  795.00      3.20330E-04
  797.00      3.18320E-04
  799.00      3.17270E-04
  801.00      3.15820E-04
  803.00      3.14190E-04
  805.00      3.12900E-04
  807.00      3.11440E-04
  809.00      3.10000E-04
  811.00      3.08500E-04
  813.00      3.07140E-04
  815.00      3.05720E-04
  817.00      3.03900E-04
  819.00      3.01420E-04
  821.00      2.88260E-04
  823.00      2.84730E-04
  825.00      2.85150E-04
  827.00      2.84450E-04
  829.00      2.83370E-04
  831.00      2.82210E-04
  833.00      2.80490E-04
  835.00      2.79490E-04
  837.00      2.78510E-04
  839.00      2.77490E-04
  841.00      2.76390E-04
  843.00      2.75340E-04
  845.00      2.74150E-04
  847.00      2.73300E-04
  849.00      2.72430E-04
  851.00      2.71240E-04
  853.00      2.70740E-04
  855.00      2.69770E-04
  857.00      2.69150E-04
  859.00      2.67930E-04
  861.00      2.67430E-04
  863.00      2.67440E-04
  865.00      2.66180E-04
  867.00      2.63940E-04
  869.00      2.65500E-04
  871.00      2.65350E-04
  873.00      2.63920E-04
  875.00      2.59680E-04
  877.00      2.62020E-04
  879.00      2.63360E-04
  881.00      2.63190E-04
  883.00      2.62210E-04
  885.00      2.57460E-04
  887.00      2.52200E-04
  889.00      2.58580E-04
  891.00      2.59390E-04
  893.00      2.58680E-04
  895.00      2.57940E-04
  897.00      2.56770E-04
  899.00      2.53580E-04
  901.00      2.42920E-04
  903.00      2.46190E-04
  905.00      2.51540E-04
  907.00      2.51280E-04
  909.00      2.50850E-04
  911.00      2.49870E-04
  913.00      2.49280E-04
  915.00      2.48470E-04
  917.00      2.46670E-04
  919.00      2.45050E-04
  921.00      2.40140E-04
  923.00      2.27200E-04
  925.00      2.37490E-04
  927.00      2.40840E-04
  929.00      2.40720E-04
  931.00      2.40020E-04
  933.00      2.38720E-04
  935.00      2.31930E-04
  937.00      2.36300E-04
  939.00      2.36230E-04
  941.00      2.35320E-04
  943.00      2.34520E-04
  945.00      2.33610E-04
  947.00      2.32430E-04
  949.00      2.31220E-04
  951.00      2.28910E-04
  953.00      2.23520E-04
  955.00      2.10730E-04
  957.00      2.23470E-04
  959.00      2.26020E-04
  961.00      2.25880E-04
  963.00      2.25000E-04
  965.00      2.24550E-04
  967.00      2.23700E-04
  969.00      2.22820E-04
  971.00      2.20310E-04
  973.00      2.20800E-04
  975.00      2.19800E-04
  977.00      2.18060E-04
  979.00      2.18450E-04
  981.00      2.17610E-04
  983.00      2.16630E-04
  985.00      2.15940E-04
  987.00      2.15130E-04
  989.00      2.14240E-04
  991.00      2.13360E-04
  993.00      2.12640E-04
  995.00      2.11830E-04
  997.00      2.11020E-04
  999.00      2.09850E-04
  1002.5      2.03490E-04
  1007.5      1.99550E-04
  1012.5      2.00610E-04
  1017.5      2.02940E-04
  1022.5      2.01010E-04
  1027.5      1.99040E-04
  1032.5      1.96970E-04
  1037.5      1.95500E-04
  1042.5      1.92690E-04
  1047.5      1.91970E-04
  1052.5      1.90210E-04
  1057.5      1.88500E-04
  1062.5      1.86810E-04
  1067.5      1.85090E-04
  1072.5      1.83480E-04
  1077.5      1.81840E-04
  1082.5      1.79460E-04
  1087.5      1.78220E-04
  1092.5      1.68360E-04
  1097.5      1.72950E-04
  1102.5      1.73790E-04
  1107.5      1.72490E-04
  1112.5      1.71000E-04
  1117.5      1.69640E-04
  1122.5      1.68150E-04
  1127.5      1.66710E-04
  1132.5      1.65270E-04
  1137.5      1.63910E-04
  1142.5      1.62560E-04
  1147.5      1.61190E-04
  1152.5      1.59860E-04
  1157.5      1.58500E-04
  1162.5      1.55110E-04
  1167.5      1.54430E-04
  1172.5      1.54630E-04
  1177.5      1.53380E-04
  1182.5      1.52060E-04
  1187.5      1.50870E-04
  1192.5      1.49660E-04
  1197.5      1.47950E-04
  1202.5      1.47290E-04
  1207.5      1.46070E-04
  1212.5      1.44870E-04
  1217.5      1.43800E-04
  1222.5      1.42670E-04
  1227.5      1.41550E-04
  1232.5      1.40420E-04
  1237.5      1.39340E-04
  1242.5      1.38260E-04
  1247.5      1.37190E-04
  1252.5      1.36070E-04
  1257.5      1.35070E-04
  1262.5      1.34050E-04
  1267.5      1.33030E-04
  1272.5      1.31990E-04
  1277.5      1.29740E-04
  1282.5      1.23020E-04
  1287.5      1.28490E-04
  1292.5      1.28090E-04
  1297.5      1.26980E-04
  1302.5      1.26180E-04
  1307.5      1.25260E-04
  1312.5      1.24340E-04
  1317.5      1.23420E-04
  1322.5      1.22520E-04
  1327.5      1.21620E-04
  1332.5      1.20740E-04
  1337.5      1.19860E-04
  1342.5      1.18980E-04
  1347.5      1.18140E-04
  1352.5      1.17290E-04
  1357.5      1.16460E-04
  1362.5      1.15630E-04
  1367.5      1.14810E-04
  1372.5      1.13970E-04
  1377.5      1.13190E-04
  1382.5      1.12400E-04
  1387.5      1.11610E-04
  1392.5      1.10830E-04
  1397.5      1.10070E-04
