 Castelli and Kurucz 2004-2012 Atmosphere
 T     44000.     G    5.00000 [0.0a] VTURB=2  L/H=1.25 NOVER NEW ODF          
 Wavelength  Eddington Hnu
   (nm)    (ergs/s/cm2/Hz/sr)
  9.0900      3.75660E-22
  9.3500      1.20460E-21
  9.6100      3.57040E-21
  9.7700      6.95300E-21
  9.9600      1.46610E-20
  10.200      3.62010E-20
  10.380      6.94990E-20
  10.560      1.30570E-19
  10.770      2.65530E-19
  11.040      6.36320E-19
  11.400      1.91710E-18
  11.780      5.71500E-18
  12.130      1.48270E-17
  12.480      3.64260E-17
  12.710      6.41330E-17
  12.840      8.75090E-17
  13.050      1.42640E-16
  13.240      2.18970E-16
  13.390      3.06170E-16
  13.660      5.43060E-16
  13.980      1.06450E-15
  14.330      2.11700E-15
  14.720      4.28870E-15
  15.100      8.82520E-15
  15.520      1.81690E-14
  15.880      3.29310E-14
  16.200      5.62540E-14
  16.600      1.04740E-13
  17.030      1.93040E-13
  17.340      2.96730E-13
  17.680      4.79770E-13
  18.020      7.48690E-13
  18.170      8.99530E-13
  18.610      1.57880E-12
  19.100      2.81020E-12
  19.390      3.95190E-12
  19.840      6.48830E-12
  20.180      9.21920E-12
  20.500      1.28830E-11
  21.050      2.21180E-11
  21.620      3.71970E-11
  21.980      5.19980E-11
  22.300      6.82540E-11
  22.680      9.56710E-11
  23.000      2.36520E-08
  23.400      8.78230E-08
  24.000      1.23390E-07
  24.650      2.06370E-07
  25.240      6.35390E-07
  25.680      1.37630E-06
  26.000      1.56690E-06
  26.400      9.85710E-06
  26.850      1.43760E-05
  27.350      1.92320E-05
  27.850      1.10420E-05
  28.400      3.09610E-05
  29.000      5.21470E-05
  29.600      3.79530E-05
  30.100      2.70120E-05
  30.800      7.82980E-05
  31.800      1.69930E-05
  32.800      3.02420E-05
  33.800      2.38120E-05
  34.800      2.86630E-05
  35.700      7.94350E-05
  36.600      1.88710E-04
  37.500      2.85110E-04
  38.500      3.12670E-04
  39.500      5.21590E-04
  40.500      8.81210E-04
  41.400      8.41270E-04
  42.200      8.04550E-04
  43.000      7.59890E-04
  44.100      9.02520E-04
  45.100      9.98400E-04
  46.000      8.08330E-04
  47.000      9.41440E-04
  48.000      1.12560E-03
  49.000      8.04050E-04
  50.000      1.27980E-03
  50.600      9.76430E-04
  51.200      1.60920E-03
  52.000      1.51000E-03
  53.000      1.41110E-03
  54.000      1.24740E-03
  55.000      1.05900E-03
  56.000      1.46230E-03
  57.000      1.79710E-03
  58.000      1.79680E-03
  59.000      1.85340E-03
  60.000      1.49650E-03
  61.000      1.40260E-03
  62.000      1.88830E-03
  63.000      1.78420E-03
  64.000      2.06110E-03
  65.000      1.92680E-03
  65.800      1.63170E-03
  66.500      2.03160E-03
  67.500      2.17970E-03
  68.500      1.93130E-03
  69.500      2.20340E-03
  70.500      1.82350E-03
  71.600      2.28680E-03
  72.600      2.35180E-03
  73.500      2.38220E-03
  74.500      2.27000E-03
  75.500      2.25190E-03
  76.500      2.14610E-03
  77.500      2.31710E-03
  78.500      2.03070E-03
  79.500      2.30530E-03
  80.500      2.35580E-03
  81.500      2.38690E-03
  82.500      2.44290E-03
  83.500      2.12350E-03
  84.500      2.42310E-03
  85.500      2.32490E-03
  86.500      2.47620E-03
  87.500      2.50830E-03
  88.500      2.48180E-03
  89.500      2.49480E-03
  90.500      2.44840E-03
  91.500      1.86600E-03
  92.500      3.05870E-03
  93.500      4.03660E-03
  94.500      4.82470E-03
  95.500      5.67750E-03
  96.500      6.34820E-03
  97.500      4.66240E-03
  98.500      5.81200E-03
  99.500      5.25560E-03
  100.50      5.38890E-03
  101.50      5.62790E-03
  102.50      4.91630E-03
  103.50      5.87200E-03
  104.50      6.21910E-03
  105.50      6.13870E-03
  106.50      5.70220E-03
  107.50      6.00170E-03
  108.50      5.46360E-03
  109.50      5.93850E-03
  110.50      5.80630E-03
  111.50      5.80090E-03
  112.50      5.50920E-03
  113.50      5.80440E-03
  114.50      5.82380E-03
  115.50      5.48200E-03
  116.50      5.26970E-03
  117.50      4.74920E-03
  118.50      5.23060E-03
  119.50      5.00660E-03
  120.50      4.98260E-03
  121.50      4.11830E-03
  122.50      4.87290E-03
  123.50      4.89500E-03
  124.50      4.81930E-03
  125.50      4.95570E-03
  126.50      4.99650E-03
  127.50      5.06610E-03
  128.50      5.07130E-03
  129.50      5.03830E-03
  130.50      4.93910E-03
  131.50      4.98050E-03
  132.50      4.93410E-03
  133.50      4.90440E-03
  134.50      4.83680E-03
  135.50      4.74250E-03
  136.50      4.60090E-03
  137.50      4.46100E-03
  138.50      4.52150E-03
  139.50      4.30820E-03
  140.50      4.16360E-03
  141.50      4.58390E-03
  142.50      4.30280E-03
  143.50      4.49670E-03
  144.20      4.34830E-03
  144.70      4.36380E-03
  145.50      4.26870E-03
  146.50      4.28160E-03
  147.50      4.28020E-03
  148.50      4.34350E-03
  149.50      4.26890E-03
  150.50      4.27300E-03
  151.20      4.28080E-03
  151.70      4.20880E-03
  152.50      4.21000E-03
  153.50      3.94310E-03
  154.50      3.40870E-03
  155.50      3.50030E-03
  156.50      3.79410E-03
  157.50      3.89700E-03
  158.50      3.82540E-03
  159.50      3.89310E-03
  160.50      3.75440E-03
  161.50      3.67970E-03
  162.50      3.72030E-03
  163.50      3.70750E-03
  164.50      3.60210E-03
  165.50      3.76980E-03
  166.50      3.70090E-03
  167.20      3.57410E-03
  167.70      3.83530E-03
  168.50      3.79370E-03
  169.50      3.77570E-03
  170.50      3.70140E-03
  171.50      3.59220E-03
  172.50      3.55670E-03
  173.50      3.66750E-03
  174.50      3.65490E-03
  175.50      3.61230E-03
  176.50      3.57080E-03
  177.50      3.54030E-03
  178.50      3.57480E-03
  179.50      3.50400E-03
  180.50      3.48790E-03
  181.50      3.46300E-03
  182.50      3.42970E-03
  183.50      3.42760E-03
  184.50      3.41400E-03
  185.50      3.39410E-03
  186.50      3.38770E-03
  187.50      3.32340E-03
  188.50      3.29870E-03
  189.50      3.33100E-03
  190.50      3.31240E-03
  191.50      3.28570E-03
  192.50      3.17080E-03
  193.50      3.25780E-03
  194.50      3.24630E-03
  195.50      3.16930E-03
  196.70      3.18150E-03
  197.60      3.15290E-03
  198.40      3.15770E-03
  199.50      3.12960E-03
  200.50      3.12500E-03
  201.50      3.10350E-03
  202.50      3.08460E-03
  203.50      3.05310E-03
  204.50      3.01680E-03
  205.50      2.23880E-03
  206.50      2.15190E-03
  207.40      2.20080E-03
  207.80      2.25170E-03
  208.50      2.39720E-03
  209.50      2.69000E-03
  210.50      2.86230E-03
  211.50      2.90000E-03
  212.50      2.85320E-03
  213.50      2.86140E-03
  214.50      2.84200E-03
  215.50      2.85180E-03
  216.50      2.69790E-03
  217.50      2.84290E-03
  218.50      2.71490E-03
  219.50      2.82350E-03
  220.50      2.80200E-03
  221.50      2.65390E-03
  222.50      2.76890E-03
  223.50      2.75610E-03
  224.50      2.73240E-03
  225.50      2.60310E-03
  226.50      2.69410E-03
  227.50      2.69440E-03
  228.50      2.63880E-03
  229.50      2.59120E-03
  230.50      2.52040E-03
  231.50      2.57950E-03
  232.50      2.59380E-03
  233.50      2.58460E-03
  234.50      2.55650E-03
  235.50      2.52960E-03
  236.50      2.50860E-03
  237.50      2.47290E-03
  238.50      2.33880E-03
  239.50      2.42510E-03
  240.50      2.42610E-03
  241.50      2.40710E-03
  242.50      2.42180E-03
  243.50      2.39600E-03
  244.50      2.38540E-03
  245.50      2.35340E-03
  246.50      2.35600E-03
  247.50      2.35600E-03
  248.50      2.32130E-03
  249.50      2.04020E-03
  250.50      2.27700E-03
  251.30      2.10430E-03
  251.80      2.21980E-03
  252.50      2.25260E-03
  253.50      2.26270E-03
  254.50      2.25020E-03
  255.50      2.23450E-03
  256.50      2.22200E-03
  257.50      2.20970E-03
  258.50      2.19770E-03
  259.50      2.14430E-03
  260.50      2.17050E-03
  261.50      2.13280E-03
  262.50      2.14690E-03
  263.50      2.13820E-03
  264.50      2.11260E-03
  265.50      2.11300E-03
  266.50      2.09470E-03
  267.50      2.05460E-03
  268.50      2.06140E-03
  269.50      2.05060E-03
  270.50      2.05520E-03
  271.50      2.03860E-03
  272.50      2.02180E-03
  273.50      1.94190E-03
  274.50      2.00710E-03
  275.50      1.98930E-03
  276.50      1.98170E-03
  277.50      1.96670E-03
  278.50      1.94000E-03
  279.50      1.92100E-03
  280.50      1.92880E-03
  281.50      1.92060E-03
  282.50      1.90390E-03
  283.50      1.90030E-03
  284.50      1.89510E-03
  285.50      1.88320E-03
  286.50      1.86580E-03
  287.50      1.85510E-03
  288.50      1.85060E-03
  289.50      1.83470E-03
  291.00      1.81890E-03
  293.00      1.80540E-03
  295.00      1.78600E-03
  297.00      1.76100E-03
  299.00      1.73220E-03
  301.00      1.71380E-03
  303.00      1.68300E-03
  305.00      1.67710E-03
  307.00      1.65360E-03
  309.00      1.64670E-03
  311.00      1.63240E-03
  313.00      1.61230E-03
  315.00      1.60250E-03
  317.00      1.58380E-03
  319.00      1.57020E-03
  321.00      1.52040E-03
  323.00      1.53910E-03
  325.00      1.52580E-03
  327.00      1.49320E-03
  329.00      1.48960E-03
  331.00      1.47370E-03
  333.00      1.45660E-03
  335.00      1.43210E-03
  337.00      1.42700E-03
  339.00      1.41250E-03
  341.00      1.39800E-03
  343.00      1.39330E-03
  345.00      1.36740E-03
  347.00      1.36530E-03
  349.00      1.35460E-03
  351.00      1.34370E-03
  353.00      1.32710E-03
  355.00      1.31500E-03
  357.00      1.30380E-03
  359.00      1.29240E-03
  361.00      1.27880E-03
  363.00      1.26560E-03
  364.00      1.23500E-03
  365.00      1.11450E-03
  367.00      1.10650E-03
  369.00      1.09810E-03
  371.00      1.08950E-03
  373.00      1.10190E-03
  375.00      1.11550E-03
  377.00      1.12670E-03
  379.00      1.15630E-03
  381.00      1.18030E-03
  383.00      1.12440E-03
  385.00      1.18220E-03
  387.00      1.17680E-03
  389.00      1.07820E-03
  391.00      1.17540E-03
  393.00      1.15850E-03
  395.00      1.14580E-03
  397.00      1.03180E-03
  399.00      1.13530E-03
  401.00      1.12890E-03
  403.00      1.09800E-03
  405.00      1.11620E-03
  407.00      1.09750E-03
  409.00      1.05140E-03
  411.00      9.92670E-04
  413.00      1.07100E-03
  415.00      1.06650E-03
  417.00      1.06170E-03
  419.00      1.04500E-03
  421.00      1.02270E-03
  423.00      1.03650E-03
  425.00      1.02620E-03
  427.00      1.01810E-03
  429.00      1.00910E-03
  431.00      9.95980E-04
  433.00      9.50140E-04
  435.00      9.10090E-04
  437.00      9.72300E-04
  439.00      9.61130E-04
  441.00      9.54920E-04
  443.00      9.51790E-04
  445.00      9.42850E-04
  447.00      9.28480E-04
  449.00      9.29620E-04
  451.00      9.19250E-04
  453.00      9.11030E-04
  455.00      8.85740E-04
  457.00      9.00410E-04
  459.00      8.92640E-04
  461.00      8.86070E-04
  463.00      8.73200E-04
  465.00      8.52260E-04
  467.00      8.63270E-04
  469.00      8.28020E-04
  471.00      8.52460E-04
  473.00      8.50910E-04
  475.00      8.44550E-04
  477.00      8.38030E-04
  479.00      8.31080E-04
  481.00      8.25010E-04
  483.00      8.16920E-04
  485.00      7.87440E-04
  487.00      7.40840E-04
  489.00      7.97120E-04
  491.00      7.94010E-04
  493.00      7.85430E-04
  495.00      7.82880E-04
  497.00      7.78380E-04
  499.00      7.73020E-04
  501.00      7.63670E-04
  503.00      7.60120E-04
  505.00      7.55120E-04
  507.00      7.50920E-04
  509.00      7.45760E-04
  511.00      7.40470E-04
  513.00      7.35100E-04
  515.00      7.29970E-04
  517.00      7.24860E-04
  519.00      7.19850E-04
  521.00      7.14810E-04
  523.00      7.10080E-04
  525.00      7.04250E-04
  527.00      6.98470E-04
  529.00      6.95530E-04
  531.00      6.90670E-04
  533.00      6.85950E-04
  535.00      6.81460E-04
  537.00      6.76790E-04
  539.00      6.72140E-04
  541.00      6.51060E-04
  543.00      6.62870E-04
  545.00      6.58910E-04
  547.00      6.54380E-04
  549.00      6.50140E-04
  551.00      6.44790E-04
  553.00      6.41590E-04
  555.00      6.37440E-04
  557.00      6.32890E-04
  559.00      6.26560E-04
  561.00      6.25050E-04
  563.00      6.20990E-04
  565.00      6.16950E-04
  567.00      6.12970E-04
  569.00      5.99150E-04
  571.00      5.60300E-04
  573.00      5.57020E-04
  575.00      5.53690E-04
  577.00      5.50650E-04
  579.00      5.47640E-04
  581.00      5.42350E-04
  583.00      5.42580E-04
  585.00      5.41550E-04
  587.00      5.36390E-04
  589.00      5.40030E-04
  591.00      5.40020E-04
  593.00      5.40330E-04
  595.00      5.41170E-04
  597.00      5.42250E-04
  599.00      5.43900E-04
  601.00      5.43920E-04
  603.00      5.43730E-04
  605.00      5.43380E-04
  607.00      5.40240E-04
  609.00      5.37580E-04
  611.00      5.34380E-04
  613.00      5.31510E-04
  615.00      5.28880E-04
  617.00      5.24330E-04
  619.00      5.22870E-04
  621.00      5.20140E-04
  623.00      5.14870E-04
  625.00      5.13210E-04
  627.00      5.10970E-04
  629.00      5.07880E-04
  631.00      5.01980E-04
  633.00      5.01670E-04
  635.00      4.99030E-04
  637.00      4.96330E-04
  639.00      4.92910E-04
  641.00      4.86690E-04
  643.00      4.87640E-04
  645.00      4.84750E-04
  647.00      4.81950E-04
  649.00      4.79300E-04
  651.00      4.75260E-04
  653.00      4.68020E-04
  655.00      4.62070E-04
  657.00      4.30280E-04
  659.00      4.63980E-04
  661.00      4.63430E-04
  663.00      4.60930E-04
  665.00      4.58330E-04
  667.00      4.52250E-04
  669.00      4.45500E-04
  671.00      4.49620E-04
  673.00      4.47880E-04
  675.00      4.45470E-04
  677.00      4.43250E-04
  679.00      4.40980E-04
  681.00      4.38580E-04
  683.00      4.36190E-04
  685.00      4.33770E-04
  687.00      4.31240E-04
  689.00      4.21840E-04
  691.00      4.26090E-04
  693.00      4.24560E-04
  695.00      4.22280E-04
  697.00      4.20030E-04
  699.00      4.17740E-04
  701.00      4.15170E-04
  703.00      4.12790E-04
  705.00      4.10590E-04
  707.00      4.06750E-04
  709.00      4.06870E-04
  711.00      4.04620E-04
  713.00      4.02490E-04
  715.00      4.00530E-04
  717.00      3.93450E-04
  719.00      3.93120E-04
  721.00      3.94330E-04
  723.00      3.92270E-04
  725.00      3.90260E-04
  727.00      3.88270E-04
  729.00      3.85640E-04
  731.00      3.83850E-04
  733.00      3.82360E-04
  735.00      3.80410E-04
  737.00      3.78240E-04
  739.00      3.76490E-04
  741.00      3.74400E-04
  743.00      3.72790E-04
  745.00      3.70390E-04
  747.00      3.69000E-04
  749.00      3.66560E-04
  751.00      3.65120E-04
  753.00      3.63550E-04
  755.00      3.61700E-04
  757.00      3.59820E-04
  759.00      3.50710E-04
  761.00      3.55400E-04
  763.00      3.54570E-04
  765.00      3.52800E-04
  767.00      3.51150E-04
  769.00      3.48640E-04
  771.00      3.47420E-04
  773.00      3.45030E-04
  775.00      3.44310E-04
  777.00      3.42810E-04
  779.00      3.41140E-04
  781.00      3.39500E-04
  783.00      3.37820E-04
  785.00      3.35500E-04
  787.00      3.34260E-04
  789.00      3.32890E-04
  791.00      3.31500E-04
  793.00      3.29970E-04
  795.00      3.28400E-04
  797.00      3.26340E-04
  799.00      3.25270E-04
  801.00      3.23770E-04
  803.00      3.22110E-04
  805.00      3.20780E-04
  807.00      3.19280E-04
  809.00      3.17800E-04
  811.00      3.16280E-04
  813.00      3.14860E-04
  815.00      3.13400E-04
  817.00      3.11530E-04
  819.00      3.08950E-04
  821.00      2.94810E-04
  823.00      2.91180E-04
  825.00      2.91630E-04
  827.00      2.90940E-04
  829.00      2.89800E-04
  831.00      2.88600E-04
  833.00      2.86870E-04
  835.00      2.85890E-04
  837.00      2.84850E-04
  839.00      2.83790E-04
  841.00      2.82690E-04
  843.00      2.81620E-04
  845.00      2.80460E-04
  847.00      2.79570E-04
  849.00      2.78710E-04
  851.00      2.77560E-04
  853.00      2.77030E-04
  855.00      2.76040E-04
  857.00      2.75420E-04
  859.00      2.74300E-04
  861.00      2.73740E-04
  863.00      2.73720E-04
  865.00      2.72550E-04
  867.00      2.70320E-04
  869.00      2.71830E-04
  871.00      2.71680E-04
  873.00      2.70360E-04
  875.00      2.66200E-04
  877.00      2.68520E-04
  879.00      2.69760E-04
  881.00      2.69580E-04
  883.00      2.68670E-04
  885.00      2.64060E-04
  887.00      2.58790E-04
  889.00      2.65010E-04
  891.00      2.65750E-04
  893.00      2.65010E-04
  895.00      2.64260E-04
  897.00      2.63080E-04
  899.00      2.59960E-04
  901.00      2.49400E-04
  903.00      2.52580E-04
  905.00      2.57770E-04
  907.00      2.57540E-04
  909.00      2.56990E-04
  911.00      2.55920E-04
  913.00      2.55330E-04
  915.00      2.54550E-04
  917.00      2.52700E-04
  919.00      2.51080E-04
  921.00      2.46310E-04
  923.00      2.33340E-04
  925.00      2.43550E-04
  927.00      2.46770E-04
  929.00      2.46590E-04
  931.00      2.45930E-04
  933.00      2.44500E-04
  935.00      2.37350E-04
  937.00      2.41960E-04
  939.00      2.41950E-04
  941.00      2.41040E-04
  943.00      2.40210E-04
  945.00      2.39280E-04
  947.00      2.38150E-04
  949.00      2.36860E-04
  951.00      2.34630E-04
  953.00      2.29310E-04
  955.00      2.16420E-04
  957.00      2.29120E-04
  959.00      2.31550E-04
  961.00      2.31390E-04
  963.00      2.30500E-04
  965.00      2.29980E-04
  967.00      2.29110E-04
  969.00      2.28200E-04
  971.00      2.25860E-04
  973.00      2.26150E-04
  975.00      2.25040E-04
  977.00      2.23210E-04
  979.00      2.23720E-04
  981.00      2.22880E-04
  983.00      2.21860E-04
  985.00      2.21150E-04
  987.00      2.20320E-04
  989.00      2.19420E-04
  991.00      2.18520E-04
  993.00      2.17770E-04
  995.00      2.16940E-04
  997.00      2.16100E-04
  999.00      2.14970E-04
  1002.5      2.08650E-04
  1007.5      2.04610E-04
  1012.5      2.05380E-04
  1017.5      2.07830E-04
  1022.5      2.05870E-04
  1027.5      2.03830E-04
  1032.5      2.01750E-04
  1037.5      2.00200E-04
  1042.5      1.97200E-04
  1047.5      1.96580E-04
  1052.5      1.94780E-04
  1057.5      1.93020E-04
  1062.5      1.91290E-04
  1067.5      1.89540E-04
  1072.5      1.87880E-04
  1077.5      1.86200E-04
  1082.5      1.83850E-04
  1087.5      1.82520E-04
  1092.5      1.72690E-04
  1097.5      1.77220E-04
  1102.5      1.77980E-04
  1107.5      1.76620E-04
  1112.5      1.75100E-04
  1117.5      1.73710E-04
  1122.5      1.72180E-04
  1127.5      1.70700E-04
  1132.5      1.69230E-04
  1137.5      1.67840E-04
  1142.5      1.66450E-04
  1147.5      1.65050E-04
  1152.5      1.63680E-04
  1157.5      1.62290E-04
  1162.5      1.58730E-04
  1167.5      1.58030E-04
  1172.5      1.58320E-04
  1177.5      1.57040E-04
  1182.5      1.55690E-04
  1187.5      1.54470E-04
  1192.5      1.53230E-04
  1197.5      1.51590E-04
  1202.5      1.50800E-04
  1207.5      1.49560E-04
  1212.5      1.48320E-04
  1217.5      1.47220E-04
  1222.5      1.46060E-04
  1227.5      1.44910E-04
  1232.5      1.43760E-04
  1237.5      1.42650E-04
  1242.5      1.41550E-04
  1247.5      1.40450E-04
  1252.5      1.39320E-04
  1257.5      1.38280E-04
  1262.5      1.37230E-04
  1267.5      1.36190E-04
  1272.5      1.35140E-04
  1277.5      1.32930E-04
  1282.5      1.26110E-04
  1287.5      1.31570E-04
  1292.5      1.31130E-04
  1297.5      1.30040E-04
  1302.5      1.29170E-04
  1307.5      1.28220E-04
  1312.5      1.27280E-04
  1317.5      1.26340E-04
  1322.5      1.25420E-04
  1327.5      1.24500E-04
  1332.5      1.23590E-04
  1337.5      1.22700E-04
  1342.5      1.21800E-04
  1347.5      1.20930E-04
  1352.5      1.20060E-04
  1357.5      1.19210E-04
  1362.5      1.18360E-04
  1367.5      1.17520E-04
  1372.5      1.16670E-04
  1377.5      1.15860E-04
  1382.5      1.15050E-04
  1387.5      1.14240E-04
  1392.5      1.13440E-04
  1397.5      1.12660E-04
