 Castelli and Kurucz 2004-2012 Atmosphere
 T     37000.     G    5.00000 [0.0a] VTURB=2  L/H=1.25 NOVER NEW ODF          
 Wavelength  Eddington Hnu
   (nm)    (ergs/s/cm2/Hz/sr)
  9.0900      2.02700E-27
  9.3500      8.63770E-27
  9.6100      3.40570E-26
  9.7700      7.75590E-26
  9.9600      1.98250E-25
  10.200      6.20610E-25
  10.380      1.41720E-24
  10.560      3.15600E-24
  10.770      7.78940E-24
  11.040      2.37730E-23
  11.400      9.76510E-23
  11.780      3.98730E-22
  12.130      1.35680E-21
  12.480      4.32680E-21
  12.710      8.97560E-21
  12.840      1.34100E-20
  13.050      2.52280E-20
  13.240      4.39820E-20
  13.390      6.75310E-20
  13.660      1.42650E-19
  13.980      3.35480E-19
  14.330      8.17220E-19
  14.720      2.08450E-18
  15.100      5.06030E-18
  15.520      1.27100E-17
  15.880      2.69920E-17
  16.200      5.11180E-17
  16.600      1.10910E-16
  17.030      2.43380E-16
  17.340      4.21740E-16
  17.680      7.58660E-16
  18.020      1.32470E-15
  18.170      1.69960E-15
  18.610      3.37000E-15
  19.100      6.97980E-15
  19.390      1.05580E-14
  19.840      1.97180E-14
  20.180      3.08910E-14
  20.500      4.65700E-14
  21.050      9.18490E-14
  21.620      1.77630E-13
  21.980      2.69160E-13
  22.300      3.82180E-13
  22.680      5.84220E-13
  23.000      2.53980E-10
  23.400      6.68360E-10
  24.000      9.92160E-10
  24.650      1.53430E-09
  25.240      2.58780E-09
  25.680      3.48090E-09
  26.000      5.14930E-09
  26.400      8.41270E-09
  26.850      1.29880E-08
  27.350      1.68870E-08
  27.850      1.90810E-08
  28.400      3.69900E-08
  29.000      5.13430E-08
  29.600      6.26920E-08
  30.100      1.03710E-07
  30.800      2.16280E-07
  31.800      4.11750E-07
  32.800      5.80840E-07
  33.800      1.00120E-06
  34.800      1.47470E-06
  35.700      2.92360E-06
  36.600      6.52430E-06
  37.500      7.70430E-06
  38.500      1.03630E-05
  39.500      1.94590E-05
  40.500      2.54820E-05
  41.400      2.95010E-05
  42.200      3.10590E-05
  43.000      3.14600E-05
  44.100      3.68790E-05
  45.100      4.13590E-05
  46.000      3.95180E-05
  47.000      4.43540E-05
  48.000      5.13700E-05
  49.000      4.82000E-05
  50.000      6.09920E-05
  50.600      6.74130E-05
  51.200      3.19970E-04
  52.000      3.00980E-04
  53.000      2.80520E-04
  54.000      2.68180E-04
  55.000      2.83240E-04
  56.000      3.79720E-04
  57.000      4.21490E-04
  58.000      4.08690E-04
  59.000      4.35160E-04
  60.000      3.39130E-04
  61.000      4.08440E-04
  62.000      5.11190E-04
  63.000      5.05520E-04
  64.000      5.34470E-04
  65.000      5.20930E-04
  65.800      4.22600E-04
  66.500      5.24500E-04
  67.500      6.02990E-04
  68.500      5.01520E-04
  69.500      6.25420E-04
  70.500      4.96360E-04
  71.600      6.84910E-04
  72.600      6.89140E-04
  73.500      7.07720E-04
  74.500      6.62750E-04
  75.500      6.75440E-04
  76.500      6.96120E-04
  77.500      7.30640E-04
  78.500      7.26330E-04
  79.500      7.64670E-04
  80.500      7.47370E-04
  81.500      7.63470E-04
  82.500      8.08920E-04
  83.500      6.74550E-04
  84.500      8.08580E-04
  85.500      8.06590E-04
  86.500      8.45200E-04
  87.500      8.57300E-04
  88.500      8.70210E-04
  89.500      8.84050E-04
  90.500      8.71880E-04
  91.500      7.92840E-04
  92.500      1.55370E-03
  93.500      2.32180E-03
  94.500      3.16600E-03
  95.500      3.66590E-03
  96.500      4.40280E-03
  97.500      2.44170E-03
  98.500      3.96250E-03
  99.500      3.53980E-03
  100.50      3.67930E-03
  101.50      3.89270E-03
  102.50      2.98090E-03
  103.50      3.95180E-03
  104.50      4.43290E-03
  105.50      4.32990E-03
  106.50      3.84370E-03
  107.50      4.04830E-03
  108.50      3.72300E-03
  109.50      4.09640E-03
  110.50      3.95190E-03
  111.50      3.95310E-03
  112.50      3.37340E-03
  113.50      3.90450E-03
  114.50      3.81640E-03
  115.50      3.60160E-03
  116.50      3.57350E-03
  117.50      2.76740E-03
  118.50      3.41230E-03
  119.50      3.31340E-03
  120.50      3.24020E-03
  121.50      2.47870E-03
  122.50      3.18890E-03
  123.50      3.40930E-03
  124.50      3.36550E-03
  125.50      3.39810E-03
  126.50      3.47550E-03
  127.50      3.57410E-03
  128.50      3.60230E-03
  129.50      3.44570E-03
  130.50      3.45810E-03
  131.50      3.60870E-03
  132.50      3.53690E-03
  133.50      3.49650E-03
  134.50      3.47210E-03
  135.50      3.45280E-03
  136.50      3.35970E-03
  137.50      3.30940E-03
  138.50      3.26090E-03
  139.50      2.77160E-03
  140.50      2.80500E-03
  141.50      3.24070E-03
  142.50      2.96650E-03
  143.50      3.16070E-03
  144.20      3.13650E-03
  144.70      3.13780E-03
  145.50      3.03140E-03
  146.50      3.02430E-03
  147.50      3.03320E-03
  148.50      3.07410E-03
  149.50      3.01400E-03
  150.50      2.99100E-03
  151.20      2.99500E-03
  151.70      2.99400E-03
  152.50      2.93210E-03
  153.50      2.65940E-03
  154.50      2.30220E-03
  155.50      2.35070E-03
  156.50      2.57290E-03
  157.50      2.68380E-03
  158.50      2.68230E-03
  159.50      2.72480E-03
  160.50      2.60000E-03
  161.50      2.51930E-03
  162.50      2.57980E-03
  163.50      2.58600E-03
  164.50      2.56830E-03
  165.50      2.65640E-03
  166.50      2.60490E-03
  167.20      2.47400E-03
  167.70      2.78350E-03
  168.50      2.70940E-03
  169.50      2.66220E-03
  170.50      2.63540E-03
  171.50      2.57390E-03
  172.50      2.49570E-03
  173.50      2.59790E-03
  174.50      2.59980E-03
  175.50      2.56780E-03
  176.50      2.54850E-03
  177.50      2.50670E-03
  178.50      2.54720E-03
  179.50      2.50390E-03
  180.50      2.51020E-03
  181.50      2.48550E-03
  182.50      2.45780E-03
  183.50      2.47540E-03
  184.50      2.41970E-03
  185.50      2.43200E-03
  186.50      2.43860E-03
  187.50      2.39090E-03
  188.50      2.34750E-03
  189.50      2.35420E-03
  190.50      2.38460E-03
  191.50      2.34740E-03
  192.50      2.24420E-03
  193.50      2.34610E-03
  194.50      2.36280E-03
  195.50      2.23590E-03
  196.70      2.30380E-03
  197.60      2.32560E-03
  198.40      2.29490E-03
  199.50      2.25950E-03
  200.50      2.29640E-03
  201.50      2.29060E-03
  202.50      2.27920E-03
  203.50      2.24540E-03
  204.50      2.22620E-03
  205.50      1.75540E-03
  206.50      1.69400E-03
  207.40      1.73160E-03
  207.80      1.74070E-03
  208.50      1.82490E-03
  209.50      1.97400E-03
  210.50      2.11880E-03
  211.50      2.16130E-03
  212.50      2.11850E-03
  213.50      2.13030E-03
  214.50      2.11660E-03
  215.50      2.12180E-03
  216.50      2.03250E-03
  217.50      2.10820E-03
  218.50      2.03870E-03
  219.50      2.10040E-03
  220.50      2.08720E-03
  221.50      1.99730E-03
  222.50      2.05840E-03
  223.50      2.04920E-03
  224.50      2.02920E-03
  225.50      1.95300E-03
  226.50      2.00860E-03
  227.50      2.00360E-03
  228.50      1.95910E-03
  229.50      1.86230E-03
  230.50      1.88710E-03
  231.50      1.92070E-03
  232.50      1.92820E-03
  233.50      1.92080E-03
  234.50      1.90640E-03
  235.50      1.88570E-03
  236.50      1.87020E-03
  237.50      1.84520E-03
  238.50      1.75940E-03
  239.50      1.80510E-03
  240.50      1.81960E-03
  241.50      1.80370E-03
  242.50      1.80670E-03
  243.50      1.78790E-03
  244.50      1.78180E-03
  245.50      1.76570E-03
  246.50      1.76300E-03
  247.50      1.75330E-03
  248.50      1.72210E-03
  249.50      1.38040E-03
  250.50      1.67360E-03
  251.30      1.59050E-03
  251.80      1.64180E-03
  252.50      1.69450E-03
  253.50      1.69520E-03
  254.50      1.67530E-03
  255.50      1.66730E-03
  256.50      1.65710E-03
  257.50      1.65390E-03
  258.50      1.64590E-03
  259.50      1.62080E-03
  260.50      1.62880E-03
  261.50      1.60860E-03
  262.50      1.60940E-03
  263.50      1.60260E-03
  264.50      1.58830E-03
  265.50      1.58360E-03
  266.50      1.56500E-03
  267.50      1.53660E-03
  268.50      1.54920E-03
  269.50      1.53530E-03
  270.50      1.53610E-03
  271.50      1.52350E-03
  272.50      1.51000E-03
  273.50      1.46920E-03
  274.50      1.50500E-03
  275.50      1.49350E-03
  276.50      1.48100E-03
  277.50      1.48180E-03
  278.50      1.46550E-03
  279.50      1.43190E-03
  280.50      1.44780E-03
  281.50      1.44720E-03
  282.50      1.43580E-03
  283.50      1.42480E-03
  284.50      1.42820E-03
  285.50      1.41630E-03
  286.50      1.40390E-03
  287.50      1.39740E-03
  288.50      1.39210E-03
  289.50      1.38070E-03
  291.00      1.36270E-03
  293.00      1.35990E-03
  295.00      1.34050E-03
  297.00      1.32720E-03
  299.00      1.30500E-03
  301.00      1.28520E-03
  303.00      1.26560E-03
  305.00      1.26440E-03
  307.00      1.25700E-03
  309.00      1.23810E-03
  311.00      1.23420E-03
  313.00      1.21630E-03
  315.00      1.20950E-03
  317.00      1.19560E-03
  319.00      1.18470E-03
  321.00      1.15930E-03
  323.00      1.16170E-03
  325.00      1.15480E-03
  327.00      1.13130E-03
  329.00      1.12810E-03
  331.00      1.11580E-03
  333.00      1.10260E-03
  335.00      1.08720E-03
  337.00      1.08050E-03
  339.00      1.07610E-03
  341.00      1.06500E-03
  343.00      1.05860E-03
  345.00      1.04040E-03
  347.00      1.03670E-03
  349.00      1.02850E-03
  351.00      1.01950E-03
  353.00      1.01160E-03
  355.00      1.00090E-03
  357.00      9.93850E-04
  359.00      9.81550E-04
  361.00      9.73460E-04
  363.00      9.63250E-04
  364.00      9.53230E-04
  365.00      9.00060E-04
  367.00      8.94770E-04
  369.00      8.87150E-04
  371.00      8.68950E-04
  373.00      8.71300E-04
  375.00      8.71400E-04
  377.00      8.61520E-04
  379.00      8.87340E-04
  381.00      9.12280E-04
  383.00      8.44640E-04
  385.00      9.24550E-04
  387.00      9.15470E-04
  389.00      8.11580E-04
  391.00      9.29200E-04
  393.00      9.18880E-04
  395.00      8.98490E-04
  397.00      7.77000E-04
  399.00      8.95670E-04
  401.00      8.92590E-04
  403.00      8.63720E-04
  405.00      8.85350E-04
  407.00      8.58730E-04
  409.00      8.11270E-04
  411.00      7.54780E-04
  413.00      8.41960E-04
  415.00      8.40340E-04
  417.00      8.43520E-04
  419.00      8.31600E-04
  421.00      8.20180E-04
  423.00      8.24380E-04
  425.00      8.10210E-04
  427.00      8.02030E-04
  429.00      7.93790E-04
  431.00      7.80360E-04
  433.00      7.35330E-04
  435.00      6.94280E-04
  437.00      7.66480E-04
  439.00      7.54910E-04
  441.00      7.55680E-04
  443.00      7.55810E-04
  445.00      7.48660E-04
  447.00      7.26220E-04
  449.00      7.38110E-04
  451.00      7.29880E-04
  453.00      7.27140E-04
  455.00      7.12270E-04
  457.00      7.18290E-04
  459.00      7.10240E-04
  461.00      7.03120E-04
  463.00      6.92610E-04
  465.00      6.68020E-04
  467.00      6.84730E-04
  469.00      6.68330E-04
  471.00      6.71210E-04
  473.00      6.79890E-04
  475.00      6.73980E-04
  477.00      6.70500E-04
  479.00      6.65420E-04
  481.00      6.58710E-04
  483.00      6.50160E-04
  485.00      6.17030E-04
  487.00      5.70790E-04
  489.00      6.34440E-04
  491.00      6.32530E-04
  493.00      6.20580E-04
  495.00      6.23320E-04
  497.00      6.23190E-04
  499.00      6.18730E-04
  501.00      6.05690E-04
  503.00      6.06870E-04
  505.00      6.02640E-04
  507.00      6.01350E-04
  509.00      5.96760E-04
  511.00      5.92550E-04
  513.00      5.88240E-04
  515.00      5.84190E-04
  517.00      5.79480E-04
  519.00      5.76080E-04
  521.00      5.72340E-04
  523.00      5.68660E-04
  525.00      5.63620E-04
  527.00      5.59220E-04
  529.00      5.57070E-04
  531.00      5.53100E-04
  533.00      5.49480E-04
  535.00      5.45860E-04
  537.00      5.42170E-04
  539.00      5.38200E-04
  541.00      5.26130E-04
  543.00      5.31300E-04
  545.00      5.27840E-04
  547.00      5.24270E-04
  549.00      5.20890E-04
  551.00      5.17000E-04
  553.00      5.14080E-04
  555.00      5.10860E-04
  557.00      5.07370E-04
  559.00      5.02560E-04
  561.00      5.01000E-04
  563.00      4.97780E-04
  565.00      4.94500E-04
  567.00      4.91010E-04
  569.00      4.82070E-04
  571.00      4.68500E-04
  573.00      4.65940E-04
  575.00      4.62680E-04
  577.00      4.60560E-04
  579.00      4.57730E-04
  581.00      4.54100E-04
  583.00      4.51610E-04
  585.00      4.50280E-04
  587.00      4.39470E-04
  589.00      4.45570E-04
  591.00      4.44620E-04
  593.00      4.43220E-04
  595.00      4.41890E-04
  597.00      4.41040E-04
  599.00      4.39700E-04
  601.00      4.38670E-04
  603.00      4.37000E-04
  605.00      4.35960E-04
  607.00      4.33880E-04
  609.00      4.31460E-04
  611.00      4.28690E-04
  613.00      4.26310E-04
  615.00      4.23350E-04
  617.00      4.20840E-04
  619.00      4.18880E-04
  621.00      4.16530E-04
  623.00      4.13860E-04
  625.00      4.11330E-04
  627.00      4.09200E-04
  629.00      4.06770E-04
  631.00      4.03770E-04
  633.00      4.02120E-04
  635.00      3.99550E-04
  637.00      3.97540E-04
  639.00      3.95220E-04
  641.00      3.92310E-04
  643.00      3.90750E-04
  645.00      3.88320E-04
  647.00      3.85740E-04
  649.00      3.83590E-04
  651.00      3.80480E-04
  653.00      3.76650E-04
  655.00      3.66220E-04
  657.00      3.35190E-04
  659.00      3.70060E-04
  661.00      3.70640E-04
  663.00      3.69240E-04
  665.00      3.67050E-04
  667.00      3.60950E-04
  669.00      3.58430E-04
  671.00      3.60050E-04
  673.00      3.58330E-04
  675.00      3.56820E-04
  677.00      3.55280E-04
  679.00      3.53170E-04
  681.00      3.51530E-04
  683.00      3.49530E-04
  685.00      3.47660E-04
  687.00      3.45630E-04
  689.00      3.41780E-04
  691.00      3.41240E-04
  693.00      3.40390E-04
  695.00      3.38560E-04
  697.00      3.36780E-04
  699.00      3.34910E-04
  701.00      3.32770E-04
  703.00      3.30810E-04
  705.00      3.29130E-04
  707.00      3.23980E-04
  709.00      3.26260E-04
  711.00      3.24420E-04
  713.00      3.22780E-04
  715.00      3.21230E-04
  717.00      3.18320E-04
  719.00      3.17080E-04
  721.00      3.16280E-04
  723.00      3.13850E-04
  725.00      3.12780E-04
  727.00      3.11440E-04
  729.00      3.08180E-04
  731.00      3.08090E-04
  733.00      3.06700E-04
  735.00      3.05130E-04
  737.00      3.03550E-04
  739.00      3.02100E-04
  741.00      3.00500E-04
  743.00      2.99070E-04
  745.00      2.97370E-04
  747.00      2.95720E-04
  749.00      2.93810E-04
  751.00      2.93050E-04
  753.00      2.91620E-04
  755.00      2.90260E-04
  757.00      2.88780E-04
  759.00      2.85150E-04
  761.00      2.85460E-04
  763.00      2.84440E-04
  765.00      2.83000E-04
  767.00      2.81810E-04
  769.00      2.79630E-04
  771.00      2.78820E-04
  773.00      2.76640E-04
  775.00      2.76360E-04
  777.00      2.75110E-04
  779.00      2.73810E-04
  781.00      2.72440E-04
  783.00      2.71180E-04
  785.00      2.69730E-04
  787.00      2.68190E-04
  789.00      2.67030E-04
  791.00      2.66150E-04
  793.00      2.64860E-04
  795.00      2.63710E-04
  797.00      2.62230E-04
  799.00      2.61150E-04
  801.00      2.59980E-04
  803.00      2.58630E-04
  805.00      2.57610E-04
  807.00      2.56390E-04
  809.00      2.55120E-04
  811.00      2.53280E-04
  813.00      2.52840E-04
  815.00      2.51550E-04
  817.00      2.50390E-04
  819.00      2.48360E-04
  821.00      2.43820E-04
  823.00      2.41660E-04
  825.00      2.41550E-04
  827.00      2.40100E-04
  829.00      2.39750E-04
  831.00      2.38910E-04
  833.00      2.37350E-04
  835.00      2.35940E-04
  837.00      2.35420E-04
  839.00      2.34760E-04
  841.00      2.33650E-04
  843.00      2.32730E-04
  845.00      2.31140E-04
  847.00      2.30800E-04
  849.00      2.29690E-04
  851.00      2.28260E-04
  853.00      2.27750E-04
  855.00      2.26830E-04
  857.00      2.26280E-04
  859.00      2.23840E-04
  861.00      2.23950E-04
  863.00      2.24200E-04
  865.00      2.21990E-04
  867.00      2.19360E-04
  869.00      2.21670E-04
  871.00      2.21660E-04
  873.00      2.18880E-04
  875.00      2.13170E-04
  877.00      2.16170E-04
  879.00      2.18810E-04
  881.00      2.18780E-04
  883.00      2.16960E-04
  885.00      2.10260E-04
  887.00      2.04550E-04
  889.00      2.13170E-04
  891.00      2.14810E-04
  893.00      2.14460E-04
  895.00      2.13640E-04
  897.00      2.12490E-04
  899.00      2.08350E-04
  901.00      1.96090E-04
  903.00      2.00280E-04
  905.00      2.07550E-04
  907.00      2.07200E-04
  909.00      2.07680E-04
  911.00      2.07440E-04
  913.00      2.06770E-04
  915.00      2.05810E-04
  917.00      2.04300E-04
  919.00      2.02580E-04
  921.00      1.96070E-04
  923.00      1.82470E-04
  925.00      1.94120E-04
  927.00      1.99000E-04
  929.00      1.99390E-04
  931.00      1.98600E-04
  933.00      1.98150E-04
  935.00      1.95080E-04
  937.00      1.96710E-04
  939.00      1.96160E-04
  941.00      1.95140E-04
  943.00      1.94500E-04
  945.00      1.93680E-04
  947.00      1.92070E-04
  949.00      1.91430E-04
  951.00      1.88490E-04
  953.00      1.82020E-04
  955.00      1.69230E-04
  957.00      1.83090E-04
  959.00      1.86860E-04
  961.00      1.86810E-04
  963.00      1.85920E-04
  965.00      1.86280E-04
  967.00      1.85660E-04
  969.00      1.84840E-04
  971.00      1.81660E-04
  973.00      1.83090E-04
  975.00      1.82740E-04
  977.00      1.81910E-04
  979.00      1.81300E-04
  981.00      1.80550E-04
  983.00      1.79860E-04
  985.00      1.79130E-04
  987.00      1.78510E-04
  989.00      1.77610E-04
  991.00      1.76730E-04
  993.00      1.76440E-04
  995.00      1.75780E-04
  997.00      1.74880E-04
  999.00      1.73820E-04
  1002.5      1.66620E-04
  1007.5      1.63150E-04
  1012.5      1.67450E-04
  1017.5      1.68440E-04
  1022.5      1.66770E-04
  1027.5      1.65260E-04
  1032.5      1.63230E-04
  1037.5      1.62280E-04
  1042.5      1.60660E-04
  1047.5      1.59330E-04
  1052.5      1.57870E-04
  1057.5      1.56450E-04
  1062.5      1.55030E-04
  1067.5      1.53510E-04
  1072.5      1.52280E-04
  1077.5      1.50920E-04
  1082.5      1.48450E-04
  1087.5      1.47570E-04
  1092.5      1.37050E-04
  1097.5      1.42260E-04
  1102.5      1.43700E-04
  1107.5      1.43060E-04
  1112.5      1.41910E-04
  1117.5      1.40740E-04
  1122.5      1.39480E-04
  1127.5      1.38320E-04
  1132.5      1.37070E-04
  1137.5      1.35950E-04
  1142.5      1.34840E-04
  1147.5      1.33710E-04
  1152.5      1.32630E-04
  1157.5      1.31500E-04
  1162.5      1.29670E-04
  1167.5      1.28960E-04
  1172.5      1.28310E-04
  1177.5      1.27260E-04
  1182.5      1.26140E-04
  1187.5      1.25160E-04
  1192.5      1.24160E-04
  1197.5      1.22060E-04
  1202.5      1.22210E-04
  1207.5      1.21190E-04
  1212.5      1.20190E-04
  1217.5      1.19310E-04
  1222.5      1.18370E-04
  1227.5      1.17450E-04
  1232.5      1.16510E-04
  1237.5      1.15610E-04
  1242.5      1.14720E-04
  1247.5      1.13820E-04
  1252.5      1.12770E-04
  1257.5      1.12060E-04
  1262.5      1.11210E-04
  1267.5      1.10390E-04
  1272.5      1.09440E-04
  1277.5      1.06900E-04
  1282.5      1.00380E-04
  1287.5      1.06260E-04
  1292.5      1.06230E-04
  1297.5      1.05000E-04
  1302.5      1.04660E-04
  1307.5      1.03950E-04
  1312.5      1.03180E-04
  1317.5      1.02430E-04
  1322.5      1.01680E-04
  1327.5      1.00940E-04
  1332.5      1.00200E-04
  1337.5      9.94490E-05
  1342.5      9.87010E-05
  1347.5      9.80370E-05
  1352.5      9.73100E-05
  1357.5      9.66540E-05
  1362.5      9.59110E-05
  1367.5      9.52920E-05
  1372.5      9.45460E-05
  1377.5      9.39560E-05
  1382.5      9.32990E-05
  1387.5      9.26460E-05
  1392.5      9.19640E-05
  1397.5      9.13610E-05
