 Castelli and Kurucz 2004-2012 Atmosphere
 T     32000.     G    4.00000 [0.0a] VTURB=2  L/H=1.25 NOVER NEW ODF          
 Wavelength  Eddington Hnu
   (nm)    (ergs/s/cm2/Hz/sr)
  9.0900      1.28970E-33
  9.3500      7.83470E-33
  9.6100      4.36250E-32
  9.7700      1.20710E-31
  9.9600      3.88850E-31
  10.200      1.61230E-30
  10.380      4.51320E-30
  10.560      1.22470E-29
  10.770      3.77750E-29
  11.040      1.51880E-28
  11.400      8.84530E-28
  11.780      5.11810E-27
  12.130      2.35640E-26
  12.480      1.00180E-25
  12.710      2.49030E-25
  12.840      4.11070E-25
  13.050      9.05090E-25
  13.240      1.81270E-24
  13.390      3.09510E-24
  13.660      7.89210E-24
  13.980      2.29100E-23
  14.330      6.97790E-23
  14.720      2.27350E-22
  15.100      6.80640E-22
  15.520      2.15370E-21
  15.880      5.52330E-21
  16.200      1.23550E-20
  16.600      3.24550E-20
  17.030      8.70500E-20
  17.340      1.73220E-19
  17.680      3.59770E-19
  18.020      7.23720E-19
  18.170      9.85280E-19
  18.610      2.31910E-18
  19.100      5.77090E-18
  19.390      9.68730E-18
  19.840      2.11410E-17
  20.180      3.71740E-17
  20.500      6.22200E-17
  21.050      1.45890E-16
  21.620      3.35740E-16
  21.980      5.62360E-16
  22.300      8.73210E-16
  22.680      1.48810E-15
  23.000      6.38670E-13
  23.400      1.41900E-12
  24.000      2.44750E-12
  24.650      4.47910E-12
  25.240      7.96780E-12
  25.680      1.13250E-11
  26.000      1.93620E-11
  26.400      2.98010E-11
  26.850      4.71430E-11
  27.350      6.86990E-11
  27.850      9.14160E-11
  28.400      2.21190E-10
  29.000      3.37610E-10
  29.600      4.71790E-10
  30.100      6.91740E-10
  30.800      1.99340E-09
  31.800      4.58560E-09
  32.800      7.14490E-09
  33.800      1.35390E-08
  34.800      2.21710E-08
  35.700      5.11830E-08
  36.600      1.13060E-07
  37.500      1.42630E-07
  38.500      2.25260E-07
  39.500      4.52370E-07
  40.500      5.90350E-07
  41.400      8.60280E-07
  42.200      9.92220E-07
  43.000      1.17450E-06
  44.100      1.52580E-06
  45.100      1.82000E-06
  46.000      1.98580E-06
  47.000      2.48180E-06
  48.000      3.01840E-06
  49.000      3.33930E-06
  50.000      4.34720E-06
  50.600      7.03200E-06
  51.200      5.25110E-05
  52.000      5.08800E-05
  53.000      4.78140E-05
  54.000      4.80590E-05
  55.000      5.58470E-05
  56.000      7.67110E-05
  57.000      8.68480E-05
  58.000      8.18090E-05
  59.000      9.03720E-05
  60.000      6.65200E-05
  61.000      9.17040E-05
  62.000      1.15710E-04
  63.000      1.15710E-04
  64.000      1.17580E-04
  65.000      1.14700E-04
  65.800      8.91640E-05
  66.500      1.18420E-04
  67.500      1.42720E-04
  68.500      1.14170E-04
  69.500      1.56910E-04
  70.500      1.16900E-04
  71.600      1.79880E-04
  72.600      1.79580E-04
  73.500      1.85480E-04
  74.500      1.73700E-04
  75.500      1.80450E-04
  76.500      1.94900E-04
  77.500      2.09060E-04
  78.500      2.17240E-04
  79.500      2.25880E-04
  80.500      2.17980E-04
  81.500      2.21870E-04
  82.500      2.44980E-04
  83.500      1.91880E-04
  84.500      2.45730E-04
  85.500      2.49250E-04
  86.500      2.63460E-04
  87.500      2.70860E-04
  88.500      2.81970E-04
  89.500      2.90220E-04
  90.500      2.87200E-04
  91.500      3.34880E-04
  92.500      1.01940E-03
  93.500      1.56070E-03
  94.500      1.94840E-03
  95.500      2.14680E-03
  96.500      2.38800E-03
  97.500      1.09100E-03
  98.500      2.01310E-03
  99.500      1.87850E-03
  100.50      1.97720E-03
  101.50      2.12880E-03
  102.50      1.81470E-03
  103.50      2.13750E-03
  104.50      2.48610E-03
  105.50      2.40960E-03
  106.50      2.11390E-03
  107.50      2.24120E-03
  108.50      2.13300E-03
  109.50      2.29730E-03
  110.50      2.22860E-03
  111.50      2.21570E-03
  112.50      1.75050E-03
  113.50      2.20190E-03
  114.50      2.14360E-03
  115.50      2.06430E-03
  116.50      2.08280E-03
  117.50      1.42590E-03
  118.50      1.96070E-03
  119.50      1.91940E-03
  120.50      1.84710E-03
  121.50      1.57350E-03
  122.50      1.89540E-03
  123.50      2.04350E-03
  124.50      1.99330E-03
  125.50      2.02280E-03
  126.50      2.09050E-03
  127.50      2.17610E-03
  128.50      2.19590E-03
  129.50      2.04700E-03
  130.50      2.08480E-03
  131.50      2.23240E-03
  132.50      2.18340E-03
  133.50      2.14910E-03
  134.50      2.16150E-03
  135.50      2.15480E-03
  136.50      2.09500E-03
  137.50      2.06220E-03
  138.50      2.01490E-03
  139.50      1.47030E-03
  140.50      1.58980E-03
  141.50      2.00780E-03
  142.50      1.84280E-03
  143.50      1.97980E-03
  144.20      1.98340E-03
  144.70      1.98460E-03
  145.50      1.91020E-03
  146.50      1.88700E-03
  147.50      1.92560E-03
  148.50      1.94280E-03
  149.50      1.90720E-03
  150.50      1.87040E-03
  151.20      1.85400E-03
  151.70      1.87770E-03
  152.50      1.83340E-03
  153.50      1.63350E-03
  154.50      1.41890E-03
  155.50      1.43820E-03
  156.50      1.61790E-03
  157.50      1.71640E-03
  158.50      1.72980E-03
  159.50      1.74730E-03
  160.50      1.67220E-03
  161.50      1.61920E-03
  162.50      1.66720E-03
  163.50      1.70280E-03
  164.50      1.71100E-03
  165.50      1.73710E-03
  166.50      1.71830E-03
  167.20      1.61260E-03
  167.70      1.86880E-03
  168.50      1.80050E-03
  169.50      1.75630E-03
  170.50      1.75270E-03
  171.50      1.69650E-03
  172.50      1.65180E-03
  173.50      1.72420E-03
  174.50      1.72540E-03
  175.50      1.71630E-03
  176.50      1.70940E-03
  177.50      1.67120E-03
  178.50      1.70580E-03
  179.50      1.68820E-03
  180.50      1.70440E-03
  181.50      1.67150E-03
  182.50      1.66810E-03
  183.50      1.67940E-03
  184.50      1.60490E-03
  185.50      1.63930E-03
  186.50      1.65590E-03
  187.50      1.63310E-03
  188.50      1.57270E-03
  189.50      1.55180E-03
  190.50      1.60800E-03
  191.50      1.57310E-03
  192.50      1.50010E-03
  193.50      1.59320E-03
  194.50      1.62240E-03
  195.50      1.50070E-03
  196.70      1.57680E-03
  197.60      1.62370E-03
  198.40      1.57560E-03
  199.50      1.55190E-03
  200.50      1.58960E-03
  201.50      1.59920E-03
  202.50      1.60760E-03
  203.50      1.55860E-03
  204.50      1.55310E-03
  205.50      1.29630E-03
  206.50      1.26730E-03
  207.40      1.33380E-03
  207.80      1.32700E-03
  208.50      1.41960E-03
  209.50      1.47770E-03
  210.50      1.51150E-03
  211.50      1.53740E-03
  212.50      1.51970E-03
  213.50      1.52420E-03
  214.50      1.50880E-03
  215.50      1.52380E-03
  216.50      1.47660E-03
  217.50      1.50880E-03
  218.50      1.48250E-03
  219.50      1.51250E-03
  220.50      1.50230E-03
  221.50      1.46510E-03
  222.50      1.48110E-03
  223.50      1.47150E-03
  224.50      1.46480E-03
  225.50      1.43510E-03
  226.50      1.45110E-03
  227.50      1.44800E-03
  228.50      1.42020E-03
  229.50      1.30320E-03
  230.50      1.38980E-03
  231.50      1.39160E-03
  232.50      1.39850E-03
  233.50      1.38890E-03
  234.50      1.38570E-03
  235.50      1.37230E-03
  236.50      1.36220E-03
  237.50      1.34590E-03
  238.50      1.30790E-03
  239.50      1.31990E-03
  240.50      1.32930E-03
  241.50      1.31560E-03
  242.50      1.31810E-03
  243.50      1.30470E-03
  244.50      1.30170E-03
  245.50      1.29310E-03
  246.50      1.28790E-03
  247.50      1.27720E-03
  248.50      1.24020E-03
  249.50      8.89690E-04
  250.50      1.18980E-03
  251.30      1.18900E-03
  251.80      1.20950E-03
  252.50      1.24500E-03
  253.50      1.24640E-03
  254.50      1.22480E-03
  255.50      1.22590E-03
  256.50      1.21900E-03
  257.50      1.21880E-03
  258.50      1.21400E-03
  259.50      1.20020E-03
  260.50      1.20440E-03
  261.50      1.18990E-03
  262.50      1.18970E-03
  263.50      1.18500E-03
  264.50      1.17580E-03
  265.50      1.17130E-03
  266.50      1.15420E-03
  267.50      1.13840E-03
  268.50      1.15030E-03
  269.50      1.13510E-03
  270.50      1.13400E-03
  271.50      1.12720E-03
  272.50      1.12090E-03
  273.50      1.10540E-03
  274.50      1.11720E-03
  275.50      1.10980E-03
  276.50      1.10060E-03
  277.50      1.10510E-03
  278.50      1.09210E-03
  279.50      1.06370E-03
  280.50      1.07930E-03
  281.50      1.08110E-03
  282.50      1.07360E-03
  283.50      1.06120E-03
  284.50      1.06720E-03
  285.50      1.05690E-03
  286.50      1.04990E-03
  287.50      1.04410E-03
  288.50      1.04100E-03
  289.50      1.03540E-03
  291.00      1.01970E-03
  293.00      1.01990E-03
  295.00      1.00520E-03
  297.00      9.97140E-04
  299.00      9.80880E-04
  301.00      9.63750E-04
  303.00      9.52030E-04
  305.00      9.53070E-04
  307.00      9.49950E-04
  309.00      9.29940E-04
  311.00      9.33190E-04
  313.00      9.18780E-04
  315.00      9.15010E-04
  317.00      9.04900E-04
  319.00      8.97420E-04
  321.00      8.84740E-04
  323.00      8.78550E-04
  325.00      8.75960E-04
  327.00      8.60090E-04
  329.00      8.56660E-04
  331.00      8.47950E-04
  333.00      8.37350E-04
  335.00      8.27880E-04
  337.00      8.21760E-04
  339.00      8.20780E-04
  341.00      8.12710E-04
  343.00      8.08410E-04
  345.00      7.95790E-04
  347.00      7.91750E-04
  349.00      7.84680E-04
  351.00      7.79080E-04
  353.00      7.75200E-04
  355.00      7.67120E-04
  357.00      7.61260E-04
  359.00      7.52110E-04
  361.00      7.46790E-04
  363.00      7.39640E-04
  364.00      7.35180E-04
  365.00      7.07940E-04
  367.00      7.04880E-04
  369.00      6.98580E-04
  371.00      6.82520E-04
  373.00      6.76400E-04
  375.00      6.92020E-04
  377.00      6.88450E-04
  379.00      7.14460E-04
  381.00      7.33920E-04
  383.00      6.78350E-04
  385.00      7.41860E-04
  387.00      7.24930E-04
  389.00      6.61970E-04
  391.00      7.38410E-04
  393.00      7.22030E-04
  395.00      7.12610E-04
  397.00      6.34210E-04
  399.00      7.12550E-04
  401.00      7.06750E-04
  403.00      6.89050E-04
  405.00      6.98620E-04
  407.00      6.75960E-04
  409.00      6.50310E-04
  411.00      6.09950E-04
  413.00      6.65000E-04
  415.00      6.63480E-04
  417.00      6.66350E-04
  419.00      6.59490E-04
  421.00      6.53550E-04
  423.00      6.51690E-04
  425.00      6.40000E-04
  427.00      6.31880E-04
  429.00      6.25510E-04
  431.00      6.15920E-04
  433.00      5.93960E-04
  435.00      5.60110E-04
  437.00      6.06490E-04
  439.00      6.00860E-04
  441.00      5.98480E-04
  443.00      5.99440E-04
  445.00      5.93340E-04
  447.00      5.80720E-04
  449.00      5.86500E-04
  451.00      5.80280E-04
  453.00      5.79440E-04
  455.00      5.71670E-04
  457.00      5.71310E-04
  459.00      5.65140E-04
  461.00      5.59290E-04
  463.00      5.53010E-04
  465.00      5.31800E-04
  467.00      5.45480E-04
  469.00      5.38700E-04
  471.00      5.33850E-04
  473.00      5.42310E-04
  475.00      5.37110E-04
  477.00      5.36170E-04
  479.00      5.32210E-04
  481.00      5.26900E-04
  483.00      5.21140E-04
  485.00      5.05080E-04
  487.00      4.67470E-04
  489.00      5.10370E-04
  491.00      5.07580E-04
  493.00      4.98450E-04
  495.00      4.98510E-04
  497.00      4.99690E-04
  499.00      4.96160E-04
  501.00      4.84480E-04
  503.00      4.86750E-04
  505.00      4.83190E-04
  507.00      4.82740E-04
  509.00      4.78850E-04
  511.00      4.75490E-04
  513.00      4.71940E-04
  515.00      4.68900E-04
  517.00      4.65230E-04
  519.00      4.62920E-04
  521.00      4.60120E-04
  523.00      4.57250E-04
  525.00      4.53300E-04
  527.00      4.49870E-04
  529.00      4.48330E-04
  531.00      4.45180E-04
  533.00      4.42400E-04
  535.00      4.39570E-04
  537.00      4.36710E-04
  539.00      4.33350E-04
  541.00      4.27840E-04
  543.00      4.28400E-04
  545.00      4.25470E-04
  547.00      4.22670E-04
  549.00      4.20060E-04
  551.00      4.17290E-04
  553.00      4.14740E-04
  555.00      4.12370E-04
  557.00      4.09610E-04
  559.00      4.06080E-04
  561.00      4.04650E-04
  563.00      4.02180E-04
  565.00      3.99460E-04
  567.00      3.96400E-04
  569.00      3.89820E-04
  571.00      3.84090E-04
  573.00      3.82200E-04
  575.00      3.79030E-04
  577.00      3.77950E-04
  579.00      3.75600E-04
  581.00      3.73030E-04
  583.00      3.70790E-04
  585.00      3.70000E-04
  587.00      3.61360E-04
  589.00      3.65950E-04
  591.00      3.64920E-04
  593.00      3.63470E-04
  595.00      3.62100E-04
  597.00      3.61360E-04
  599.00      3.59540E-04
  601.00      3.58090E-04
  603.00      3.55690E-04
  605.00      3.53780E-04
  607.00      3.51870E-04
  609.00      3.49930E-04
  611.00      3.47710E-04
  613.00      3.45770E-04
  615.00      3.43200E-04
  617.00      3.41240E-04
  619.00      3.39870E-04
  621.00      3.38070E-04
  623.00      3.35830E-04
  625.00      3.33850E-04
  627.00      3.32190E-04
  629.00      3.30340E-04
  631.00      3.27840E-04
  633.00      3.26680E-04
  635.00      3.24540E-04
  637.00      3.23050E-04
  639.00      3.21220E-04
  641.00      3.19070E-04
  643.00      3.17700E-04
  645.00      3.15810E-04
  647.00      3.13470E-04
  649.00      3.11790E-04
  651.00      3.09680E-04
  653.00      3.07360E-04
  655.00      3.02130E-04
  657.00      2.76730E-04
  659.00      3.02030E-04
  661.00      3.01950E-04
  663.00      3.00600E-04
  665.00      2.98690E-04
  667.00      2.94550E-04
  669.00      2.92740E-04
  671.00      2.93520E-04
  673.00      2.91620E-04
  675.00      2.90800E-04
  677.00      2.89550E-04
  679.00      2.87450E-04
  681.00      2.86480E-04
  683.00      2.84780E-04
  685.00      2.83440E-04
  687.00      2.81830E-04
  689.00      2.79330E-04
  691.00      2.78040E-04
  693.00      2.77670E-04
  695.00      2.76220E-04
  697.00      2.74800E-04
  699.00      2.73330E-04
  701.00      2.71670E-04
  703.00      2.70070E-04
  705.00      2.68800E-04
  707.00      2.64250E-04
  709.00      2.66380E-04
  711.00      2.64530E-04
  713.00      2.63360E-04
  715.00      2.62380E-04
  717.00      2.60550E-04
  719.00      2.59540E-04
  721.00      2.58430E-04
  723.00      2.55540E-04
  725.00      2.55320E-04
  727.00      2.54560E-04
  729.00      2.51700E-04
  731.00      2.51900E-04
  733.00      2.50730E-04
  735.00      2.49480E-04
  737.00      2.48270E-04
  739.00      2.47080E-04
  741.00      2.45830E-04
  743.00      2.44650E-04
  745.00      2.43340E-04
  747.00      2.41490E-04
  749.00      2.40550E-04
  751.00      2.39810E-04
  753.00      2.38590E-04
  755.00      2.37600E-04
  757.00      2.36420E-04
  759.00      2.34540E-04
  761.00      2.33700E-04
  763.00      2.32920E-04
  765.00      2.31760E-04
  767.00      2.30850E-04
  769.00      2.29290E-04
  771.00      2.28480E-04
  773.00      2.26910E-04
  775.00      2.26420E-04
  777.00      2.25400E-04
  779.00      2.24380E-04
  781.00      2.23270E-04
  783.00      2.22290E-04
  785.00      2.21250E-04
  787.00      2.19820E-04
  789.00      2.18770E-04
  791.00      2.18190E-04
  793.00      2.17150E-04
  795.00      2.16260E-04
  797.00      2.15040E-04
  799.00      2.14180E-04
  801.00      2.13170E-04
  803.00      2.12140E-04
  805.00      2.11260E-04
  807.00      2.10330E-04
  809.00      2.09200E-04
  811.00      2.07210E-04
  813.00      2.07480E-04
  815.00      2.06330E-04
  817.00      2.05580E-04
  819.00      2.03780E-04
  821.00      2.01720E-04
  823.00      2.00510E-04
  825.00      2.00350E-04
  827.00      1.98240E-04
  829.00      1.98490E-04
  831.00      1.97850E-04
  833.00      1.96690E-04
  835.00      1.95210E-04
  837.00      1.94820E-04
  839.00      1.94400E-04
  841.00      1.93420E-04
  843.00      1.92670E-04
  845.00      1.91110E-04
  847.00      1.90930E-04
  849.00      1.90050E-04
  851.00      1.88430E-04
  853.00      1.88630E-04
  855.00      1.86340E-04
  857.00      1.88250E-04
  859.00      1.83930E-04
  861.00      1.83840E-04
  863.00      1.86950E-04
  865.00      1.83980E-04
  867.00      1.76950E-04
  869.00      1.84780E-04
  871.00      1.85220E-04
  873.00      1.82210E-04
  875.00      1.70860E-04
  877.00      1.79340E-04
  879.00      1.82760E-04
  881.00      1.82440E-04
  883.00      1.81020E-04
  885.00      1.74380E-04
  887.00      1.65250E-04
  889.00      1.78020E-04
  891.00      1.78650E-04
  893.00      1.78080E-04
  895.00      1.77520E-04
  897.00      1.76640E-04
  899.00      1.73960E-04
  901.00      1.60480E-04
  903.00      1.66870E-04
  905.00      1.73220E-04
  907.00      1.72060E-04
  909.00      1.72170E-04
  911.00      1.72040E-04
  913.00      1.71370E-04
  915.00      1.70770E-04
  917.00      1.69630E-04
  919.00      1.68690E-04
  921.00      1.64240E-04
  923.00      1.49960E-04
  925.00      1.63070E-04
  927.00      1.65840E-04
  929.00      1.65660E-04
  931.00      1.64630E-04
  933.00      1.64090E-04
  935.00      1.63020E-04
  937.00      1.63070E-04
  939.00      1.62520E-04
  941.00      1.61690E-04
  943.00      1.61140E-04
  945.00      1.60470E-04
  947.00      1.59360E-04
  949.00      1.59080E-04
  951.00      1.57040E-04
  953.00      1.53110E-04
  955.00      1.40410E-04
  957.00      1.54110E-04
  959.00      1.55800E-04
  961.00      1.55120E-04
  963.00      1.54170E-04
  965.00      1.54490E-04
  967.00      1.53950E-04
  969.00      1.53260E-04
  971.00      1.50530E-04
  973.00      1.51820E-04
  975.00      1.51570E-04
  977.00      1.50920E-04
  979.00      1.50380E-04
  981.00      1.49680E-04
  983.00      1.49210E-04
  985.00      1.48570E-04
  987.00      1.48070E-04
  989.00      1.47250E-04
  991.00      1.46390E-04
  993.00      1.46400E-04
  995.00      1.45860E-04
  997.00      1.45250E-04
  999.00      1.44720E-04
  1002.5      1.39650E-04
  1007.5      1.36700E-04
  1012.5      1.39910E-04
  1017.5      1.39860E-04
  1022.5      1.38470E-04
  1027.5      1.37260E-04
  1032.5      1.35600E-04
  1037.5      1.34810E-04
  1042.5      1.33540E-04
  1047.5      1.32380E-04
  1052.5      1.31160E-04
  1057.5      1.30020E-04
  1062.5      1.28850E-04
  1067.5      1.27580E-04
  1072.5      1.26600E-04
  1077.5      1.25480E-04
  1082.5      1.23310E-04
  1087.5      1.23110E-04
  1092.5      1.15140E-04
  1097.5      1.19520E-04
  1102.5      1.19660E-04
  1107.5      1.19070E-04
  1112.5      1.18060E-04
  1117.5      1.17100E-04
  1122.5      1.16070E-04
  1127.5      1.15110E-04
  1132.5      1.14020E-04
  1137.5      1.13150E-04
  1142.5      1.12220E-04
  1147.5      1.11300E-04
  1152.5      1.10430E-04
  1157.5      1.09490E-04
  1162.5      1.08370E-04
  1167.5      1.07500E-04
  1172.5      1.06870E-04
  1177.5      1.06000E-04
  1182.5      1.05100E-04
  1187.5      1.04290E-04
  1192.5      1.03460E-04
  1197.5      1.01840E-04
  1202.5      1.01840E-04
  1207.5      1.01020E-04
  1212.5      1.00200E-04
  1217.5      9.94530E-05
  1222.5      9.86760E-05
  1227.5      9.79160E-05
  1232.5      9.71290E-05
  1237.5      9.63850E-05
  1242.5      9.56700E-05
  1247.5      9.49030E-05
  1252.5      9.39890E-05
  1257.5      9.34440E-05
  1262.5      9.27460E-05
  1267.5      9.20880E-05
  1272.5      9.13900E-05
  1277.5      8.96010E-05
  1282.5      8.48280E-05
  1287.5      8.90860E-05
  1292.5      8.87010E-05
  1297.5      8.76110E-05
  1302.5      8.73240E-05
  1307.5      8.67650E-05
  1312.5      8.61340E-05
  1317.5      8.55070E-05
  1322.5      8.48880E-05
  1327.5      8.42750E-05
  1332.5      8.36510E-05
  1337.5      8.30060E-05
  1342.5      8.23950E-05
  1347.5      8.18670E-05
  1352.5      8.12320E-05
  1357.5      8.07180E-05
  1362.5      8.00680E-05
  1367.5      7.95930E-05
  1372.5      7.89510E-05
  1377.5      7.84940E-05
  1382.5      7.79500E-05
  1387.5      7.74060E-05
  1392.5      7.68150E-05
  1397.5      7.63400E-05
