 Castelli and Kurucz 2004-2012 Atmosphere
 T     41000.     G    4.50000 [0.0a] VTURB=2  L/H=1.25 NOVER NEW ODF          
 Wavelength  Eddington Hnu
   (nm)    (ergs/s/cm2/Hz/sr)
  9.0900      1.43320E-24
  9.3500      5.18520E-24
  9.6100      1.72620E-23
  9.7700      3.59460E-23
  9.9600      8.19970E-23
  10.200      2.22850E-22
  10.380      4.58810E-22
  10.560      9.22780E-22
  10.770      2.02760E-21
  11.040      5.35240E-21
  11.400      1.82580E-20
  11.780      6.17970E-20
  12.130      1.79190E-19
  12.480      4.90550E-19
  12.710      9.25260E-19
  12.840      1.31190E-18
  13.050      2.27280E-18
  13.240      3.68250E-18
  13.390      5.36500E-18
  13.660      1.02700E-17
  13.980      2.19080E-17
  14.330      4.77500E-17
  14.720      1.07120E-16
  15.100      2.39990E-16
  15.520      5.43930E-16
  15.880      1.06480E-15
  16.200      1.90490E-15
  16.600      3.84530E-15
  17.030      7.74910E-15
  17.340      1.26570E-14
  17.680      2.16770E-14
  18.020      3.58840E-14
  18.170      4.43610E-14
  18.610      8.35020E-14
  19.100      1.61320E-13
  19.390      2.35850E-13
  19.840      4.14450E-13
  20.180      6.19900E-13
  20.500      9.03260E-13
  21.050      1.66980E-12
  21.620      3.02470E-12
  21.980      4.41130E-12
  22.300      6.02690E-12
  22.680      8.82190E-12
  23.000      4.83690E-09
  23.400      1.56230E-08
  24.000      2.15800E-08
  24.650      3.54640E-08
  25.240      8.36950E-08
  25.680      1.23310E-07
  26.000      1.61850E-07
  26.400      8.84290E-07
  26.850      1.31220E-06
  27.350      1.77990E-06
  27.850      1.02610E-06
  28.400      3.35290E-06
  29.000      6.02070E-06
  29.600      4.24660E-06
  30.100      4.39260E-06
  30.800      1.87850E-05
  31.800      5.31070E-06
  32.800      9.97970E-06
  33.800      9.57150E-06
  34.800      1.21320E-05
  35.700      3.20510E-05
  36.600      8.03670E-05
  37.500      1.21240E-04
  38.500      1.39370E-04
  39.500      2.47620E-04
  40.500      4.43030E-04
  41.400      4.27240E-04
  42.200      4.15640E-04
  43.000      3.94020E-04
  44.100      4.79670E-04
  45.100      5.28960E-04
  46.000      4.27950E-04
  47.000      5.01220E-04
  48.000      6.14770E-04
  49.000      4.10500E-04
  50.000      7.09450E-04
  50.600      5.14400E-04
  51.200      9.78230E-04
  52.000      9.19090E-04
  53.000      8.51260E-04
  54.000      7.62040E-04
  55.000      6.28820E-04
  56.000      8.98750E-04
  57.000      1.17900E-03
  58.000      1.17660E-03
  59.000      1.21950E-03
  60.000      9.19990E-04
  61.000      8.92540E-04
  62.000      1.26900E-03
  63.000      1.20400E-03
  64.000      1.41560E-03
  65.000      1.31800E-03
  65.800      1.06980E-03
  66.500      1.39000E-03
  67.500      1.53710E-03
  68.500      1.31750E-03
  69.500      1.55570E-03
  70.500      1.21560E-03
  71.600      1.64750E-03
  72.600      1.69570E-03
  73.500      1.72910E-03
  74.500      1.62350E-03
  75.500      1.61980E-03
  76.500      1.53460E-03
  77.500      1.69100E-03
  78.500      1.44060E-03
  79.500      1.69210E-03
  80.500      1.72600E-03
  81.500      1.76010E-03
  82.500      1.81450E-03
  83.500      1.51630E-03
  84.500      1.80240E-03
  85.500      1.72620E-03
  86.500      1.85770E-03
  87.500      1.88810E-03
  88.500      1.87580E-03
  89.500      1.88870E-03
  90.500      1.85560E-03
  91.500      1.49210E-03
  92.500      2.59380E-03
  93.500      3.46700E-03
  94.500      3.98870E-03
  95.500      4.62060E-03
  96.500      5.01370E-03
  97.500      3.74510E-03
  98.500      4.57490E-03
  99.500      4.16150E-03
  100.50      4.20970E-03
  101.50      4.44520E-03
  102.50      4.05560E-03
  103.50      4.65820E-03
  104.50      4.92280E-03
  105.50      4.86180E-03
  106.50      4.58520E-03
  107.50      4.74700E-03
  108.50      4.44370E-03
  109.50      4.71050E-03
  110.50      4.62320E-03
  111.50      4.60760E-03
  112.50      4.35220E-03
  113.50      4.62400E-03
  114.50      4.64840E-03
  115.50      4.36930E-03
  116.50      4.26940E-03
  117.50      3.73020E-03
  118.50      4.17270E-03
  119.50      4.00360E-03
  120.50      4.00330E-03
  121.50      3.44380E-03
  122.50      3.91930E-03
  123.50      3.97480E-03
  124.50      3.91540E-03
  125.50      4.00630E-03
  126.50      4.06100E-03
  127.50      4.14260E-03
  128.50      4.14770E-03
  129.50      4.12480E-03
  130.50      4.04560E-03
  131.50      4.10380E-03
  132.50      4.06990E-03
  133.50      4.03980E-03
  134.50      4.01540E-03
  135.50      3.92330E-03
  136.50      3.81880E-03
  137.50      3.70810E-03
  138.50      3.75610E-03
  139.50      3.54750E-03
  140.50      3.43130E-03
  141.50      3.81090E-03
  142.50      3.55600E-03
  143.50      3.73340E-03
  144.20      3.61980E-03
  144.70      3.63750E-03
  145.50      3.54860E-03
  146.50      3.56640E-03
  147.50      3.57670E-03
  148.50      3.62940E-03
  149.50      3.56640E-03
  150.50      3.58330E-03
  151.20      3.59080E-03
  151.70      3.53940E-03
  152.50      3.53120E-03
  153.50      3.29060E-03
  154.50      2.79550E-03
  155.50      2.88660E-03
  156.50      3.17080E-03
  157.50      3.28250E-03
  158.50      3.23620E-03
  159.50      3.28770E-03
  160.50      3.15770E-03
  161.50      3.09570E-03
  162.50      3.13810E-03
  163.50      3.14740E-03
  164.50      3.07140E-03
  165.50      3.19870E-03
  166.50      3.13990E-03
  167.20      3.01540E-03
  167.70      3.28110E-03
  168.50      3.23580E-03
  169.50      3.21860E-03
  170.50      3.16170E-03
  171.50      3.06270E-03
  172.50      3.03870E-03
  173.50      3.14260E-03
  174.50      3.13460E-03
  175.50      3.09630E-03
  176.50      3.06800E-03
  177.50      3.04050E-03
  178.50      3.07470E-03
  179.50      3.01260E-03
  180.50      3.00590E-03
  181.50      2.98420E-03
  182.50      2.95560E-03
  183.50      2.96210E-03
  184.50      2.95350E-03
  185.50      2.94060E-03
  186.50      2.93580E-03
  187.50      2.87910E-03
  188.50      2.85960E-03
  189.50      2.89380E-03
  190.50      2.88310E-03
  191.50      2.86200E-03
  192.50      2.75990E-03
  193.50      2.84150E-03
  194.50      2.83240E-03
  195.50      2.75540E-03
  196.70      2.77790E-03
  197.60      2.75750E-03
  198.40      2.76200E-03
  199.50      2.73810E-03
  200.50      2.73910E-03
  201.50      2.72130E-03
  202.50      2.70550E-03
  203.50      2.67920E-03
  204.50      2.64730E-03
  205.50      1.98130E-03
  206.50      1.91610E-03
  207.40      1.98620E-03
  207.80      2.04450E-03
  208.50      2.22670E-03
  209.50      2.48640E-03
  210.50      2.53560E-03
  211.50      2.55710E-03
  212.50      2.51690E-03
  213.50      2.52700E-03
  214.50      2.51100E-03
  215.50      2.52390E-03
  216.50      2.39530E-03
  217.50      2.51060E-03
  218.50      2.41640E-03
  219.50      2.49690E-03
  220.50      2.47700E-03
  221.50      2.36970E-03
  222.50      2.44710E-03
  223.50      2.43470E-03
  224.50      2.41660E-03
  225.50      2.32850E-03
  226.50      2.38420E-03
  227.50      2.38380E-03
  228.50      2.33620E-03
  229.50      2.28530E-03
  230.50      2.25630E-03
  231.50      2.28670E-03
  232.50      2.29910E-03
  233.50      2.29070E-03
  234.50      2.26540E-03
  235.50      2.24270E-03
  236.50      2.22410E-03
  237.50      2.19390E-03
  238.50      2.09430E-03
  239.50      2.15320E-03
  240.50      2.15570E-03
  241.50      2.13880E-03
  242.50      2.15040E-03
  243.50      2.12860E-03
  244.50      2.11960E-03
  245.50      2.09400E-03
  246.50      2.09420E-03
  247.50      2.09460E-03
  248.50      2.05870E-03
  249.50      1.73730E-03
  250.50      2.02180E-03
  251.30      1.90270E-03
  251.80      1.97880E-03
  252.50      2.00940E-03
  253.50      2.01650E-03
  254.50      2.00590E-03
  255.50      1.99250E-03
  256.50      1.98140E-03
  257.50      1.97120E-03
  258.50      1.96140E-03
  259.50      1.91530E-03
  260.50      1.93790E-03
  261.50      1.90550E-03
  262.50      1.91730E-03
  263.50      1.91100E-03
  264.50      1.88790E-03
  265.50      1.88880E-03
  266.50      1.87310E-03
  267.50      1.83730E-03
  268.50      1.84470E-03
  269.50      1.83590E-03
  270.50      1.84000E-03
  271.50      1.82470E-03
  272.50      1.81240E-03
  273.50      1.75370E-03
  274.50      1.79940E-03
  275.50      1.78280E-03
  276.50      1.77630E-03
  277.50      1.76380E-03
  278.50      1.73930E-03
  279.50      1.72190E-03
  280.50      1.73040E-03
  281.50      1.72340E-03
  282.50      1.70960E-03
  283.50      1.70570E-03
  284.50      1.70190E-03
  285.50      1.69130E-03
  286.50      1.67590E-03
  287.50      1.66620E-03
  288.50      1.66260E-03
  289.50      1.65050E-03
  291.00      1.63530E-03
  293.00      1.62390E-03
  295.00      1.60710E-03
  297.00      1.58500E-03
  299.00      1.55920E-03
  301.00      1.54280E-03
  303.00      1.51520E-03
  305.00      1.51110E-03
  307.00      1.49130E-03
  309.00      1.48510E-03
  311.00      1.47290E-03
  313.00      1.45520E-03
  315.00      1.44710E-03
  317.00      1.43080E-03
  319.00      1.41920E-03
  321.00      1.37860E-03
  323.00      1.39110E-03
  325.00      1.37970E-03
  327.00      1.35050E-03
  329.00      1.34760E-03
  331.00      1.33340E-03
  333.00      1.31830E-03
  335.00      1.29640E-03
  337.00      1.29210E-03
  339.00      1.28050E-03
  341.00      1.26740E-03
  343.00      1.26320E-03
  345.00      1.24030E-03
  347.00      1.23850E-03
  349.00      1.22900E-03
  351.00      1.21940E-03
  353.00      1.20450E-03
  355.00      1.19380E-03
  357.00      1.18410E-03
  359.00      1.17390E-03
  361.00      1.16160E-03
  363.00      1.15000E-03
  364.00      1.12380E-03
  365.00      1.01820E-03
  367.00      1.01110E-03
  369.00      1.00490E-03
  371.00      9.99620E-04
  373.00      1.01330E-03
  375.00      1.03110E-03
  377.00      1.04210E-03
  379.00      1.06800E-03
  381.00      1.08520E-03
  383.00      1.03500E-03
  385.00      1.08660E-03
  387.00      1.07720E-03
  389.00      9.99450E-04
  391.00      1.07670E-03
  393.00      1.05640E-03
  395.00      1.04840E-03
  397.00      9.57590E-04
  399.00      1.04050E-03
  401.00      1.03180E-03
  403.00      1.00560E-03
  405.00      1.01920E-03
  407.00      1.00200E-03
  409.00      9.68400E-04
  411.00      9.18570E-04
  413.00      9.79070E-04
  415.00      9.73760E-04
  417.00      9.69660E-04
  419.00      9.57140E-04
  421.00      9.38050E-04
  423.00      9.47310E-04
  425.00      9.37510E-04
  427.00      9.30450E-04
  429.00      9.22370E-04
  431.00      9.11500E-04
  433.00      8.78350E-04
  435.00      8.42330E-04
  437.00      8.90670E-04
  439.00      8.79440E-04
  441.00      8.73180E-04
  443.00      8.70890E-04
  445.00      8.63110E-04
  447.00      8.51040E-04
  449.00      8.51230E-04
  451.00      8.41250E-04
  453.00      8.35230E-04
  455.00      8.15400E-04
  457.00      8.25090E-04
  459.00      8.17660E-04
  461.00      8.12020E-04
  463.00      8.00960E-04
  465.00      7.80460E-04
  467.00      7.91780E-04
  469.00      7.62600E-04
  471.00      7.81520E-04
  473.00      7.80830E-04
  475.00      7.75090E-04
  477.00      7.69200E-04
  479.00      7.63070E-04
  481.00      7.57490E-04
  483.00      7.51370E-04
  485.00      7.30490E-04
  487.00      6.88320E-04
  489.00      7.33900E-04
  491.00      7.29510E-04
  493.00      7.21740E-04
  495.00      7.19260E-04
  497.00      7.15410E-04
  499.00      7.10620E-04
  501.00      7.01820E-04
  503.00      6.98810E-04
  505.00      6.94230E-04
  507.00      6.90600E-04
  509.00      6.85920E-04
  511.00      6.81170E-04
  513.00      6.76270E-04
  515.00      6.71630E-04
  517.00      6.67000E-04
  519.00      6.62470E-04
  521.00      6.57950E-04
  523.00      6.53690E-04
  525.00      6.48240E-04
  527.00      6.43010E-04
  529.00      6.40490E-04
  531.00      6.36060E-04
  533.00      6.31770E-04
  535.00      6.27740E-04
  537.00      6.23490E-04
  539.00      6.19260E-04
  541.00      6.03100E-04
  543.00      6.11180E-04
  545.00      6.07270E-04
  547.00      6.03110E-04
  549.00      5.99290E-04
  551.00      5.94370E-04
  553.00      5.91520E-04
  555.00      5.87760E-04
  557.00      5.83540E-04
  559.00      5.77680E-04
  561.00      5.76500E-04
  563.00      5.72800E-04
  565.00      5.69140E-04
  567.00      5.65500E-04
  569.00      5.52880E-04
  571.00      5.18840E-04
  573.00      5.15840E-04
  575.00      5.12770E-04
  577.00      5.10080E-04
  579.00      5.07510E-04
  581.00      5.03070E-04
  583.00      5.03780E-04
  585.00      5.03590E-04
  587.00      4.98880E-04
  589.00      5.03110E-04
  591.00      5.03460E-04
  593.00      5.04200E-04
  595.00      5.05520E-04
  597.00      5.06780E-04
  599.00      5.08230E-04
  601.00      5.07070E-04
  603.00      5.04920E-04
  605.00      5.03210E-04
  607.00      4.99820E-04
  609.00      4.97700E-04
  611.00      4.94050E-04
  613.00      4.91220E-04
  615.00      4.89060E-04
  617.00      4.84350E-04
  619.00      4.83490E-04
  621.00      4.80930E-04
  623.00      4.75770E-04
  625.00      4.74680E-04
  627.00      4.72530E-04
  629.00      4.69780E-04
  631.00      4.63850E-04
  633.00      4.64160E-04
  635.00      4.61630E-04
  637.00      4.59110E-04
  639.00      4.56190E-04
  641.00      4.49980E-04
  643.00      4.51320E-04
  645.00      4.48530E-04
  647.00      4.45930E-04
  649.00      4.43530E-04
  651.00      4.40220E-04
  653.00      4.33490E-04
  655.00      4.30310E-04
  657.00      4.01520E-04
  659.00      4.30440E-04
  661.00      4.29070E-04
  663.00      4.26730E-04
  665.00      4.24340E-04
  667.00      4.19100E-04
  669.00      4.12760E-04
  671.00      4.16450E-04
  673.00      4.14690E-04
  675.00      4.12510E-04
  677.00      4.10520E-04
  679.00      4.08460E-04
  681.00      4.06260E-04
  683.00      4.04070E-04
  685.00      4.01820E-04
  687.00      3.99570E-04
  689.00      3.91560E-04
  691.00      3.95070E-04
  693.00      3.93410E-04
  695.00      3.91320E-04
  697.00      3.89250E-04
  699.00      3.87170E-04
  701.00      3.84770E-04
  703.00      3.82550E-04
  705.00      3.80570E-04
  707.00      3.76790E-04
  709.00      3.77170E-04
  711.00      3.75100E-04
  713.00      3.73160E-04
  715.00      3.71360E-04
  717.00      3.65560E-04
  719.00      3.65300E-04
  721.00      3.65670E-04
  723.00      3.63770E-04
  725.00      3.61920E-04
  727.00      3.60110E-04
  729.00      3.57560E-04
  731.00      3.56020E-04
  733.00      3.54670E-04
  735.00      3.52880E-04
  737.00      3.50870E-04
  739.00      3.49290E-04
  741.00      3.47340E-04
  743.00      3.45880E-04
  745.00      3.43650E-04
  747.00      3.42380E-04
  749.00      3.40100E-04
  751.00      3.38810E-04
  753.00      3.37380E-04
  755.00      3.35670E-04
  757.00      3.34020E-04
  759.00      3.26820E-04
  761.00      3.30190E-04
  763.00      3.29070E-04
  765.00      3.27470E-04
  767.00      3.25990E-04
  769.00      3.23690E-04
  771.00      3.22550E-04
  773.00      3.20430E-04
  775.00      3.19650E-04
  777.00      3.18300E-04
  779.00      3.16760E-04
  781.00      3.15250E-04
  783.00      3.13700E-04
  785.00      3.11530E-04
  787.00      3.10400E-04
  789.00      3.09150E-04
  791.00      3.07890E-04
  793.00      3.06480E-04
  795.00      3.05050E-04
  797.00      3.03130E-04
  799.00      3.02160E-04
  801.00      3.00780E-04
  803.00      2.99230E-04
  805.00      2.98020E-04
  807.00      2.96640E-04
  809.00      2.95280E-04
  811.00      2.93860E-04
  813.00      2.92570E-04
  815.00      2.91210E-04
  817.00      2.89500E-04
  819.00      2.87170E-04
  821.00      2.74630E-04
  823.00      2.71560E-04
  825.00      2.71910E-04
  827.00      2.71030E-04
  829.00      2.70000E-04
  831.00      2.68900E-04
  833.00      2.67260E-04
  835.00      2.66320E-04
  837.00      2.65440E-04
  839.00      2.64530E-04
  841.00      2.63580E-04
  843.00      2.62670E-04
  845.00      2.61640E-04
  847.00      2.60910E-04
  849.00      2.60190E-04
  851.00      2.59000E-04
  853.00      2.58790E-04
  855.00      2.57660E-04
  857.00      2.57550E-04
  859.00      2.56080E-04
  861.00      2.55580E-04
  863.00      2.56200E-04
  865.00      2.54890E-04
  867.00      2.51590E-04
  869.00      2.54590E-04
  871.00      2.54670E-04
  873.00      2.53280E-04
  875.00      2.46960E-04
  877.00      2.51290E-04
  879.00      2.52910E-04
  881.00      2.52600E-04
  883.00      2.51680E-04
  885.00      2.46570E-04
  887.00      2.39380E-04
  889.00      2.47880E-04
  891.00      2.48240E-04
  893.00      2.47110E-04
  895.00      2.46400E-04
  897.00      2.45410E-04
  899.00      2.42880E-04
  901.00      2.31210E-04
  903.00      2.35640E-04
  905.00      2.40760E-04
  907.00      2.40200E-04
  909.00      2.39650E-04
  911.00      2.38300E-04
  913.00      2.37900E-04
  915.00      2.37100E-04
  917.00      2.35780E-04
  919.00      2.34360E-04
  921.00      2.30440E-04
  923.00      2.16850E-04
  925.00      2.28050E-04
  927.00      2.30430E-04
  929.00      2.30160E-04
  931.00      2.29190E-04
  933.00      2.28150E-04
  935.00      2.22320E-04
  937.00      2.25330E-04
  939.00      2.25520E-04
  941.00      2.24540E-04
  943.00      2.23790E-04
  945.00      2.22940E-04
  947.00      2.21870E-04
  949.00      2.21080E-04
  951.00      2.19070E-04
  953.00      2.14930E-04
  955.00      2.02070E-04
  957.00      2.14750E-04
  959.00      2.16250E-04
  961.00      2.15860E-04
  963.00      2.14810E-04
  965.00      2.14320E-04
  967.00      2.13520E-04
  969.00      2.12680E-04
  971.00      2.10160E-04
  973.00      2.10740E-04
  975.00      2.09880E-04
  977.00      2.07870E-04
  979.00      2.08550E-04
  981.00      2.07750E-04
  983.00      2.06800E-04
  985.00      2.06150E-04
  987.00      2.05380E-04
  989.00      2.04540E-04
  991.00      2.03700E-04
  993.00      2.03010E-04
  995.00      2.02250E-04
  997.00      2.01480E-04
  999.00      2.00710E-04
  1002.5      1.95380E-04
  1007.5      1.91640E-04
  1012.5      1.91970E-04
  1017.5      1.93820E-04
  1022.5      1.91970E-04
  1027.5      1.90090E-04
  1032.5      1.88140E-04
  1037.5      1.86730E-04
  1042.5      1.84060E-04
  1047.5      1.83380E-04
  1052.5      1.81700E-04
  1057.5      1.80080E-04
  1062.5      1.78470E-04
  1067.5      1.76840E-04
  1072.5      1.75310E-04
  1077.5      1.73750E-04
  1082.5      1.71470E-04
  1087.5      1.70540E-04
  1092.5      1.62040E-04
  1097.5      1.66080E-04
  1102.5      1.66150E-04
  1107.5      1.64860E-04
  1112.5      1.63440E-04
  1117.5      1.62150E-04
  1122.5      1.60730E-04
  1127.5      1.59360E-04
  1132.5      1.57990E-04
  1137.5      1.56690E-04
  1142.5      1.55410E-04
  1147.5      1.54110E-04
  1152.5      1.52840E-04
  1157.5      1.51550E-04
  1162.5      1.48660E-04
  1167.5      1.47890E-04
  1172.5      1.47880E-04
  1177.5      1.46670E-04
  1182.5      1.45410E-04
  1187.5      1.44280E-04
  1192.5      1.43120E-04
  1197.5      1.41520E-04
  1202.5      1.40870E-04
  1207.5      1.39710E-04
  1212.5      1.38570E-04
  1217.5      1.37550E-04
  1222.5      1.36470E-04
  1227.5      1.35400E-04
  1232.5      1.34330E-04
  1237.5      1.33300E-04
  1242.5      1.32270E-04
  1247.5      1.31250E-04
  1252.5      1.30180E-04
  1257.5      1.29230E-04
  1262.5      1.28260E-04
  1267.5      1.27290E-04
  1272.5      1.26310E-04
  1277.5      1.24480E-04
  1282.5      1.18710E-04
  1287.5      1.23230E-04
  1292.5      1.22580E-04
  1297.5      1.21530E-04
  1302.5      1.20750E-04
  1307.5      1.19880E-04
  1312.5      1.19000E-04
  1317.5      1.18120E-04
  1322.5      1.17270E-04
  1327.5      1.16410E-04
  1332.5      1.15570E-04
  1337.5      1.14730E-04
  1342.5      1.13890E-04
  1347.5      1.13090E-04
  1352.5      1.12280E-04
  1357.5      1.11490E-04
  1362.5      1.10690E-04
  1367.5      1.09910E-04
  1372.5      1.09110E-04
  1377.5      1.08370E-04
  1382.5      1.07620E-04
  1387.5      1.06870E-04
  1392.5      1.06120E-04
  1397.5      1.05390E-04
