 Castelli and Kurucz 2004-2012 Atmosphere
 T     49000.     G    4.50000 [0.0a] VTURB=2  L/H=1.25 NOVER NEW ODF          
 Wavelength  Eddington Hnu
   (nm)    (ergs/s/cm2/Hz/sr)
  9.0900      2.40120E-19
  9.3500      6.82370E-19
  9.6100      1.78310E-18
  9.7700      3.26450E-18
  9.9600      6.36490E-18
  10.200      1.43130E-17
  10.380      2.56890E-17
  10.560      4.52530E-17
  10.770      8.56590E-17
  11.040      1.88060E-16
  11.400      5.08130E-16
  11.780      1.34690E-15
  12.130      3.21280E-15
  12.480      7.15760E-15
  12.710      1.20150E-14
  12.840      1.89050E-14
  13.050      2.97740E-14
  13.240      4.37380E-14
  13.390      5.93760E-14
  13.660      1.01340E-13
  13.980      1.83670E-13
  14.330      3.36370E-13
  14.720      5.99020E-13
  15.100      1.16010E-12
  15.520      2.18770E-12
  15.880      3.89630E-12
  16.200      1.20920E-11
  16.600      2.09520E-11
  17.030      3.38020E-11
  17.340      4.81690E-11
  17.680      7.60030E-11
  18.020      1.13740E-10
  18.170      1.29510E-10
  18.610      2.28680E-10
  19.100      3.63980E-10
  19.390      5.29830E-10
  19.840      8.46230E-10
  20.180      1.02820E-09
  20.500      1.48150E-09
  21.050      2.28840E-09
  21.620      3.50550E-09
  21.980      4.70310E-09
  22.300      5.59850E-09
  22.680      7.27100E-09
  23.000      2.64240E-07
  23.400      1.34940E-06
  24.000      2.27480E-06
  24.650      8.17230E-06
  25.240      4.62150E-05
  25.680      1.14730E-04
  26.000      8.29840E-05
  26.400      2.16700E-04
  26.850      2.39530E-04
  27.350      2.90380E-04
  27.850      1.96810E-04
  28.400      3.63790E-04
  29.000      5.50170E-04
  29.600      4.94270E-04
  30.100      3.45740E-04
  30.800      3.54300E-04
  31.800      7.31370E-05
  32.800      9.49750E-05
  33.800      6.50820E-05
  34.800      7.46490E-05
  35.700      1.95250E-04
  36.600      4.90860E-04
  37.500      7.04250E-04
  38.500      6.29730E-04
  39.500      1.11940E-03
  40.500      1.93570E-03
  41.400      1.89890E-03
  42.200      1.71710E-03
  43.000      1.70770E-03
  44.100      2.20530E-03
  45.100      2.28720E-03
  46.000      1.87420E-03
  47.000      2.21770E-03
  48.000      2.63290E-03
  49.000      2.24630E-03
  50.000      3.52280E-03
  50.600      2.91280E-03
  51.200      3.47270E-03
  52.000      3.41010E-03
  53.000      3.31930E-03
  54.000      2.63100E-03
  55.000      1.97740E-03
  56.000      2.68970E-03
  57.000      3.66760E-03
  58.000      3.89720E-03
  59.000      3.95020E-03
  60.000      3.37390E-03
  61.000      2.47960E-03
  62.000      3.48320E-03
  63.000      2.87660E-03
  64.000      3.96840E-03
  65.000      3.71760E-03
  65.800      3.28150E-03
  66.500      4.04720E-03
  67.500      4.09640E-03
  68.500      3.71360E-03
  69.500      4.16690E-03
  70.500      3.62770E-03
  71.600      4.04530E-03
  72.600      4.28630E-03
  73.500      4.24330E-03
  74.500      4.07140E-03
  75.500      3.90330E-03
  76.500      3.50120E-03
  77.500      4.03560E-03
  78.500      3.32160E-03
  79.500      3.92290E-03
  80.500      4.17430E-03
  81.500      4.14980E-03
  82.500      4.21110E-03
  83.500      3.83630E-03
  84.500      4.13210E-03
  85.500      3.83830E-03
  86.500      4.16730E-03
  87.500      4.23640E-03
  88.500      4.12080E-03
  89.500      4.09420E-03
  90.500      4.00430E-03
  91.500      3.08850E-03
  92.500      4.58500E-03
  93.500      5.24650E-03
  94.500      5.68590E-03
  95.500      6.78830E-03
  96.500      6.83020E-03
  97.500      5.90380E-03
  98.500      6.42520E-03
  99.500      5.83420E-03
  100.50      5.97580E-03
  101.50      6.07760E-03
  102.50      5.98420E-03
  103.50      6.44940E-03
  104.50      6.73060E-03
  105.50      6.68940E-03
  106.50      6.40830E-03
  107.50      6.74560E-03
  108.50      6.29590E-03
  109.50      6.59440E-03
  110.50      6.58430E-03
  111.50      6.57750E-03
  112.50      6.49590E-03
  113.50      6.64610E-03
  114.50      6.67750E-03
  115.50      6.51660E-03
  116.50      6.20770E-03
  117.50      6.00110E-03
  118.50      6.31810E-03
  119.50      5.96400E-03
  120.50      6.00310E-03
  121.50      5.33910E-03
  122.50      5.91030E-03
  123.50      5.59100E-03
  124.50      5.45160E-03
  125.50      5.77330E-03
  126.50      5.77220E-03
  127.50      5.75900E-03
  128.50      5.73420E-03
  129.50      5.78060E-03
  130.50      5.63740E-03
  131.50      5.58910E-03
  132.50      5.51160E-03
  133.50      5.46620E-03
  134.50      5.39180E-03
  135.50      5.26020E-03
  136.50      5.02100E-03
  137.50      4.78040E-03
  138.50      5.03510E-03
  139.50      4.93390E-03
  140.50      4.72810E-03
  141.50      5.21590E-03
  142.50      5.05630E-03
  143.50      5.18050E-03
  144.20      4.92730E-03
  144.70      4.95850E-03
  145.50      4.89030E-03
  146.50      4.86760E-03
  147.50      4.92770E-03
  148.50      4.97490E-03
  149.50      4.88300E-03
  150.50      4.80990E-03
  151.20      4.80780E-03
  151.70      4.70480E-03
  152.50      4.79660E-03
  153.50      4.61900E-03
  154.50      4.18710E-03
  155.50      4.23030E-03
  156.50      4.53960E-03
  157.50      4.61680E-03
  158.50      4.50900E-03
  159.50      4.57480E-03
  160.50      4.47610E-03
  161.50      4.44750E-03
  162.50      4.46670E-03
  163.50      4.48020E-03
  164.50      4.28130E-03
  165.50      4.44910E-03
  166.50      4.41270E-03
  167.20      4.30930E-03
  167.70      4.45200E-03
  168.50      4.44660E-03
  169.50      4.46290E-03
  170.50      4.34860E-03
  171.50      4.21330E-03
  172.50      4.19090E-03
  173.50      4.32830E-03
  174.50      4.29250E-03
  175.50      4.26980E-03
  176.50      4.21080E-03
  177.50      4.17950E-03
  178.50      4.17850E-03
  179.50      4.11640E-03
  180.50      4.09460E-03
  181.50      4.02000E-03
  182.50      4.02730E-03
  183.50      4.00360E-03
  184.50      3.99880E-03
  185.50      3.96580E-03
  186.50      3.96690E-03
  187.50      3.91730E-03
  188.50      3.88440E-03
  189.50      3.88990E-03
  190.50      3.86830E-03
  191.50      3.84540E-03
  192.50      3.73720E-03
  193.50      3.79100E-03
  194.50      3.77470E-03
  195.50      3.73470E-03
  196.70      3.71050E-03
  197.60      3.64960E-03
  198.40      3.67940E-03
  199.50      3.63470E-03
  200.50      3.62840E-03
  201.50      3.60840E-03
  202.50      3.58970E-03
  203.50      3.54260E-03
  204.50      3.50350E-03
  205.50      2.73210E-03
  206.50      2.66050E-03
  207.40      2.74620E-03
  207.80      2.82520E-03
  208.50      3.03680E-03
  209.50      3.32190E-03
  210.50      3.34640E-03
  211.50      3.35620E-03
  212.50      3.31910E-03
  213.50      3.32060E-03
  214.50      3.29000E-03
  215.50      3.29490E-03
  216.50      3.15750E-03
  217.50      3.26500E-03
  218.50      3.17470E-03
  219.50      3.23850E-03
  220.50      3.21080E-03
  221.50      3.09990E-03
  222.50      3.18110E-03
  223.50      3.16060E-03
  224.50      3.14300E-03
  225.50      3.04180E-03
  226.50      3.09010E-03
  227.50      3.09280E-03
  228.50      3.04100E-03
  229.50      3.00920E-03
  230.50      2.94270E-03
  231.50      2.97450E-03
  232.50      2.98620E-03
  233.50      2.96860E-03
  234.50      2.93630E-03
  235.50      2.90440E-03
  236.50      2.88300E-03
  237.50      2.85870E-03
  238.50      2.74480E-03
  239.50      2.80810E-03
  240.50      2.78400E-03
  241.50      2.76490E-03
  242.50      2.78410E-03
  243.50      2.75420E-03
  244.50      2.74180E-03
  245.50      2.69400E-03
  246.50      2.69890E-03
  247.50      2.70650E-03
  248.50      2.66910E-03
  249.50      2.52120E-03
  250.50      2.64660E-03
  251.30      2.48420E-03
  251.80      2.57850E-03
  252.50      2.58970E-03
  253.50      2.60310E-03
  254.50      2.59580E-03
  255.50      2.58030E-03
  256.50      2.56940E-03
  257.50      2.54600E-03
  258.50      2.52970E-03
  259.50      2.46880E-03
  260.50      2.50790E-03
  261.50      2.45480E-03
  262.50      2.48010E-03
  263.50      2.46680E-03
  264.50      2.43910E-03
  265.50      2.43540E-03
  266.50      2.42150E-03
  267.50      2.38150E-03
  268.50      2.38620E-03
  269.50      2.36810E-03
  270.50      2.37160E-03
  271.50      2.35680E-03
  272.50      2.33920E-03
  273.50      2.26790E-03
  274.50      2.31590E-03
  275.50      2.29170E-03
  276.50      2.28760E-03
  277.50      2.26690E-03
  278.50      2.23250E-03
  279.50      2.22970E-03
  280.50      2.22660E-03
  281.50      2.21340E-03
  282.50      2.19210E-03
  283.50      2.19330E-03
  284.50      2.18300E-03
  285.50      2.16770E-03
  286.50      2.13370E-03
  287.50      2.11330E-03
  288.50      2.12420E-03
  289.50      2.10600E-03
  291.00      2.09920E-03
  293.00      2.08370E-03
  295.00      2.06040E-03
  297.00      2.03370E-03
  299.00      2.00500E-03
  301.00      1.98470E-03
  303.00      1.95170E-03
  305.00      1.93990E-03
  307.00      1.89900E-03
  309.00      1.90250E-03
  311.00      1.88240E-03
  313.00      1.86080E-03
  315.00      1.84830E-03
  317.00      1.82780E-03
  319.00      1.81090E-03
  321.00      1.76160E-03
  323.00      1.77850E-03
  325.00      1.76040E-03
  327.00      1.72670E-03
  329.00      1.72060E-03
  331.00      1.70280E-03
  333.00      1.68410E-03
  335.00      1.65430E-03
  337.00      1.64770E-03
  339.00      1.62330E-03
  341.00      1.60590E-03
  343.00      1.60570E-03
  345.00      1.57980E-03
  347.00      1.57200E-03
  349.00      1.55670E-03
  351.00      1.54790E-03
  353.00      1.52810E-03
  355.00      1.51610E-03
  357.00      1.49870E-03
  359.00      1.48790E-03
  361.00      1.47480E-03
  363.00      1.45690E-03
  364.00      1.42580E-03
  365.00      1.29550E-03
  367.00      1.28530E-03
  369.00      1.27850E-03
  371.00      1.27730E-03
  373.00      1.29100E-03
  375.00      1.31310E-03
  377.00      1.32860E-03
  379.00      1.34780E-03
  381.00      1.36030E-03
  383.00      1.31290E-03
  385.00      1.35410E-03
  387.00      1.35170E-03
  389.00      1.26950E-03
  391.00      1.33340E-03
  393.00      1.31040E-03
  395.00      1.30800E-03
  397.00      1.21800E-03
  399.00      1.28870E-03
  401.00      1.28020E-03
  403.00      1.25090E-03
  405.00      1.25830E-03
  407.00      1.24720E-03
  409.00      1.21390E-03
  411.00      1.15940E-03
  413.00      1.21470E-03
  415.00      1.20740E-03
  417.00      1.19730E-03
  419.00      1.18420E-03
  421.00      1.16110E-03
  423.00      1.16900E-03
  425.00      1.15900E-03
  427.00      1.14980E-03
  429.00      1.14040E-03
  431.00      1.12890E-03
  433.00      1.09530E-03
  435.00      1.05780E-03
  437.00      1.09920E-03
  439.00      1.08860E-03
  441.00      1.07880E-03
  443.00      1.07480E-03
  445.00      1.06440E-03
  447.00      1.05620E-03
  449.00      1.05000E-03
  451.00      1.04130E-03
  453.00      1.03200E-03
  455.00      1.00910E-03
  457.00      1.01710E-03
  459.00      1.00970E-03
  461.00      1.00230E-03
  463.00      9.89020E-04
  465.00      9.75130E-04
  467.00      9.77170E-04
  469.00      9.41030E-04
  471.00      9.64960E-04
  473.00      9.59070E-04
  475.00      9.51920E-04
  477.00      9.44360E-04
  479.00      9.34020E-04
  481.00      9.29810E-04
  483.00      9.22940E-04
  485.00      9.03860E-04
  487.00      8.60170E-04
  489.00      9.02310E-04
  491.00      8.96170E-04
  493.00      8.90020E-04
  495.00      8.83920E-04
  497.00      8.77360E-04
  499.00      8.71500E-04
  501.00      8.64280E-04
  503.00      8.58670E-04
  505.00      8.51850E-04
  507.00      8.46520E-04
  509.00      8.40970E-04
  511.00      8.34320E-04
  513.00      8.27870E-04
  515.00      8.22890E-04
  517.00      8.17970E-04
  519.00      8.12160E-04
  521.00      8.05840E-04
  523.00      8.00940E-04
  525.00      7.94640E-04
  527.00      7.88790E-04
  529.00      7.84630E-04
  531.00      7.79110E-04
  533.00      7.73820E-04
  535.00      7.68880E-04
  537.00      7.63310E-04
  539.00      7.58380E-04
  541.00      7.40170E-04
  543.00      7.48400E-04
  545.00      7.43440E-04
  547.00      7.38170E-04
  549.00      7.33540E-04
  551.00      7.27840E-04
  553.00      7.23980E-04
  555.00      7.19300E-04
  557.00      7.13690E-04
  559.00      7.07370E-04
  561.00      7.05300E-04
  563.00      7.00700E-04
  565.00      6.96130E-04
  567.00      6.91610E-04
  569.00      6.77410E-04
  571.00      6.35820E-04
  573.00      6.32030E-04
  575.00      6.28090E-04
  577.00      6.24870E-04
  579.00      6.21840E-04
  581.00      6.14890E-04
  583.00      6.17980E-04
  585.00      6.17300E-04
  587.00      6.15480E-04
  589.00      6.16750E-04
  591.00      6.17090E-04
  593.00      6.17960E-04
  595.00      6.19550E-04
  597.00      6.20730E-04
  599.00      6.22050E-04
  601.00      6.19670E-04
  603.00      6.17460E-04
  605.00      6.14610E-04
  607.00      6.10430E-04
  609.00      6.07760E-04
  611.00      6.03350E-04
  613.00      5.99770E-04
  615.00      5.97230E-04
  617.00      5.91330E-04
  619.00      5.90200E-04
  621.00      5.86810E-04
  623.00      5.80600E-04
  625.00      5.79340E-04
  627.00      5.76420E-04
  629.00      5.73240E-04
  631.00      5.65930E-04
  633.00      5.66340E-04
  635.00      5.63220E-04
  637.00      5.60000E-04
  639.00      5.56170E-04
  641.00      5.48730E-04
  643.00      5.50370E-04
  645.00      5.47140E-04
  647.00      5.43980E-04
  649.00      5.41010E-04
  651.00      5.37380E-04
  653.00      5.28780E-04
  655.00      5.27030E-04
  657.00      4.95840E-04
  659.00      5.25350E-04
  661.00      5.22990E-04
  663.00      5.20080E-04
  665.00      5.17180E-04
  667.00      5.12800E-04
  669.00      5.04720E-04
  671.00      5.07850E-04
  673.00      5.05760E-04
  675.00      5.02960E-04
  677.00      5.00210E-04
  679.00      4.97560E-04
  681.00      4.94830E-04
  683.00      4.92160E-04
  685.00      4.89450E-04
  687.00      4.86810E-04
  689.00      4.77230E-04
  691.00      4.81400E-04
  693.00      4.79030E-04
  695.00      4.76470E-04
  697.00      4.73920E-04
  699.00      4.71370E-04
  701.00      4.68600E-04
  703.00      4.65800E-04
  705.00      4.63240E-04
  707.00      4.60940E-04
  709.00      4.59060E-04
  711.00      4.56120E-04
  713.00      4.53730E-04
  715.00      4.51910E-04
  717.00      4.44670E-04
  719.00      4.44590E-04
  721.00      4.44680E-04
  723.00      4.42620E-04
  725.00      4.40340E-04
  727.00      4.38080E-04
  729.00      4.35760E-04
  731.00      4.33190E-04
  733.00      4.31390E-04
  735.00      4.29210E-04
  737.00      4.26820E-04
  739.00      4.24490E-04
  741.00      4.22490E-04
  743.00      4.20590E-04
  745.00      4.18000E-04
  747.00      4.16380E-04
  749.00      4.14080E-04
  751.00      4.12010E-04
  753.00      4.10190E-04
  755.00      4.08120E-04
  757.00      4.06110E-04
  759.00      3.97450E-04
  761.00      4.01610E-04
  763.00      4.00100E-04
  765.00      3.98100E-04
  767.00      3.95900E-04
  769.00      3.93700E-04
  771.00      3.91690E-04
  773.00      3.89740E-04
  775.00      3.88530E-04
  777.00      3.86740E-04
  779.00      3.84870E-04
  781.00      3.83020E-04
  783.00      3.81130E-04
  785.00      3.78760E-04
  787.00      3.77280E-04
  789.00      3.75630E-04
  791.00      3.73940E-04
  793.00      3.72200E-04
  795.00      3.70340E-04
  797.00      3.68220E-04
  799.00      3.66950E-04
  801.00      3.65210E-04
  803.00      3.63400E-04
  805.00      3.61810E-04
  807.00      3.60130E-04
  809.00      3.58460E-04
  811.00      3.56790E-04
  813.00      3.55140E-04
  815.00      3.53500E-04
  817.00      3.51470E-04
  819.00      3.48540E-04
  821.00      3.32260E-04
  823.00      3.28500E-04
  825.00      3.28950E-04
  827.00      3.27930E-04
  829.00      3.26530E-04
  831.00      3.25140E-04
  833.00      3.23390E-04
  835.00      3.22360E-04
  837.00      3.21080E-04
  839.00      3.19890E-04
  841.00      3.18830E-04
  843.00      3.17760E-04
  845.00      3.16720E-04
  847.00      3.15750E-04
  849.00      3.14980E-04
  851.00      3.13910E-04
  853.00      3.13390E-04
  855.00      3.12130E-04
  857.00      3.11840E-04
  859.00      3.10690E-04
  861.00      3.09840E-04
  863.00      3.10150E-04
  865.00      3.09110E-04
  867.00      3.05960E-04
  869.00      3.08410E-04
  871.00      3.08260E-04
  873.00      3.07290E-04
  875.00      3.01390E-04
  877.00      3.05210E-04
  879.00      3.06110E-04
  881.00      3.05680E-04
  883.00      3.04680E-04
  885.00      3.00160E-04
  887.00      2.92950E-04
  889.00      3.00240E-04
  891.00      3.00100E-04
  893.00      2.98620E-04
  895.00      2.98020E-04
  897.00      2.96850E-04
  899.00      2.94280E-04
  901.00      2.83170E-04
  903.00      2.87120E-04
  905.00      2.91150E-04
  907.00      2.90780E-04
  909.00      2.89640E-04
  911.00      2.87580E-04
  913.00      2.87160E-04
  915.00      2.86090E-04
  917.00      2.84750E-04
  919.00      2.83290E-04
  921.00      2.79910E-04
  923.00      2.66180E-04
  925.00      2.76850E-04
  927.00      2.78530E-04
  929.00      2.77880E-04
  931.00      2.76770E-04
  933.00      2.75380E-04
  935.00      2.68300E-04
  937.00      2.71820E-04
  939.00      2.72150E-04
  941.00      2.71120E-04
  943.00      2.70080E-04
  945.00      2.68900E-04
  947.00      2.67940E-04
  949.00      2.66610E-04
  951.00      2.65240E-04
  953.00      2.61310E-04
  955.00      2.47940E-04
  957.00      2.60270E-04
  959.00      2.61270E-04
  961.00      2.60520E-04
  963.00      2.59400E-04
  965.00      2.58470E-04
  967.00      2.57450E-04
  969.00      2.56440E-04
  971.00      2.55040E-04
  973.00      2.54340E-04
  975.00      2.53030E-04
  977.00      2.50350E-04
  979.00      2.51450E-04
  981.00      2.50470E-04
  983.00      2.49350E-04
  985.00      2.48530E-04
  987.00      2.47570E-04
  989.00      2.46610E-04
  991.00      2.45610E-04
  993.00      2.44710E-04
  995.00      2.43770E-04
  997.00      2.42830E-04
  999.00      2.41900E-04
  1002.5      2.36980E-04
  1007.5      2.32620E-04
  1012.5      2.31590E-04
  1017.5      2.33530E-04
  1022.5      2.31340E-04
  1027.5      2.29060E-04
  1032.5      2.26930E-04
  1037.5      2.24940E-04
  1042.5      2.21570E-04
  1047.5      2.20870E-04
  1052.5      2.18840E-04
  1057.5      2.16870E-04
  1062.5      2.14910E-04
  1067.5      2.12980E-04
  1072.5      2.11070E-04
  1077.5      2.09190E-04
  1082.5      2.07170E-04
  1087.5      2.05460E-04
  1092.5      1.97020E-04
  1097.5      2.00670E-04
  1102.5      2.00150E-04
  1107.5      1.98410E-04
  1112.5      1.96700E-04
  1117.5      1.95130E-04
  1122.5      1.93430E-04
  1127.5      1.91760E-04
  1132.5      1.90110E-04
  1137.5      1.88550E-04
  1142.5      1.86970E-04
  1147.5      1.85400E-04
  1152.5      1.83850E-04
  1157.5      1.82300E-04
  1162.5      1.78720E-04
  1167.5      1.77830E-04
  1172.5      1.77830E-04
  1177.5      1.76380E-04
  1182.5      1.74880E-04
  1187.5      1.73500E-04
  1192.5      1.72100E-04
  1197.5      1.70660E-04
  1202.5      1.69350E-04
  1207.5      1.67970E-04
  1212.5      1.66610E-04
  1217.5      1.65330E-04
  1222.5      1.64020E-04
  1227.5      1.62730E-04
  1232.5      1.61440E-04
  1237.5      1.60190E-04
  1242.5      1.58940E-04
  1247.5      1.57710E-04
  1252.5      1.56490E-04
  1257.5      1.55280E-04
  1262.5      1.54090E-04
  1267.5      1.52910E-04
  1272.5      1.51740E-04
  1277.5      1.50220E-04
  1282.5      1.43800E-04
  1287.5      1.48170E-04
  1292.5      1.47220E-04
  1297.5      1.46110E-04
  1302.5      1.45030E-04
  1307.5      1.43950E-04
  1312.5      1.42890E-04
  1317.5      1.41830E-04
  1322.5      1.40790E-04
  1327.5      1.39760E-04
  1332.5      1.38740E-04
  1337.5      1.37730E-04
  1342.5      1.36730E-04
  1347.5      1.35750E-04
  1352.5      1.34780E-04
  1357.5      1.33810E-04
  1362.5      1.32860E-04
  1367.5      1.31910E-04
  1372.5      1.30980E-04
  1377.5      1.30050E-04
  1382.5      1.29140E-04
  1387.5      1.28230E-04
  1392.5      1.27340E-04
  1397.5      1.26450E-04
