 Castelli and Kurucz 2004-2012 Atmosphere
 T     37000.     G    4.50000 [0.0a] VTURB=2  L/H=1.25 NOVER NEW ODF          
 Wavelength  Eddington Hnu
   (nm)    (ergs/s/cm2/Hz/sr)
  9.0900      8.36220E-28
  9.3500      3.64390E-27
  9.6100      1.46190E-26
  9.7700      3.37740E-26
  9.9600      8.74610E-26
  10.200      2.77840E-25
  10.380      6.41130E-25
  10.560      1.44120E-24
  10.770      3.59390E-24
  11.040      1.11000E-23
  11.400      4.62330E-23
  11.780      1.91150E-22
  12.130      6.57430E-22
  12.480      2.11680E-21
  12.710      4.41700E-21
  12.840      6.61980E-21
  13.050      1.25170E-20
  13.240      2.19140E-20
  13.390      3.37820E-20
  13.660      7.17280E-20
  13.980      1.70310E-19
  14.330      4.18340E-19
  14.720      1.07290E-18
  15.100      2.64660E-18
  15.520      6.73360E-18
  15.880      1.44700E-17
  16.200      2.76410E-17
  16.600      6.09440E-17
  17.030      1.35760E-16
  17.340      2.37950E-16
  17.680      4.33770E-16
  18.020      7.67390E-16
  18.170      9.88610E-16
  18.610      1.99680E-15
  19.100      4.21330E-15
  19.390      6.44930E-15
  19.840      1.22480E-14
  20.180      1.94220E-14
  20.500      2.96310E-14
  21.050      5.95670E-14
  21.620      1.17440E-13
  21.980      1.79990E-13
  22.300      2.57960E-13
  22.680      3.97930E-13
  23.000      2.79060E-10
  23.400      7.37790E-10
  24.000      1.07140E-09
  24.650      1.65540E-09
  25.240      2.97300E-09
  25.680      4.06080E-09
  26.000      5.89770E-09
  26.400      1.10590E-08
  26.850      1.79910E-08
  27.350      2.30730E-08
  27.850      2.45670E-08
  28.400      5.05030E-08
  29.000      7.04670E-08
  29.600      8.29190E-08
  30.100      1.40100E-07
  30.800      3.67700E-07
  31.800      5.69130E-07
  32.800      8.67690E-07
  33.800      1.45160E-06
  34.800      2.11720E-06
  35.700      4.47670E-06
  36.600      1.07220E-05
  37.500      1.34880E-05
  38.500      1.79890E-05
  39.500      3.44910E-05
  40.500      5.20870E-05
  41.400      5.53500E-05
  42.200      5.77720E-05
  43.000      5.56200E-05
  44.100      6.58740E-05
  45.100      7.26930E-05
  46.000      6.48230E-05
  47.000      7.28340E-05
  48.000      8.58970E-05
  49.000      6.93120E-05
  50.000      9.69810E-05
  50.600      9.38480E-05
  51.200      3.56800E-04
  52.000      3.37080E-04
  53.000      3.10500E-04
  54.000      2.97610E-04
  55.000      2.87770E-04
  56.000      4.05610E-04
  57.000      4.84140E-04
  58.000      4.72760E-04
  59.000      4.98100E-04
  60.000      3.64090E-04
  61.000      4.32260E-04
  62.000      5.77540E-04
  63.000      5.66390E-04
  64.000      6.22390E-04
  65.000      5.92460E-04
  65.800      4.59650E-04
  66.500      6.01180E-04
  67.500      7.06460E-04
  68.500      5.73700E-04
  69.500      7.23430E-04
  70.500      5.42900E-04
  71.600      7.96700E-04
  72.600      8.08450E-04
  73.500      8.32480E-04
  74.500      7.61140E-04
  75.500      7.77110E-04
  76.500      7.83800E-04
  77.500      8.43320E-04
  78.500      7.95800E-04
  79.500      8.78560E-04
  80.500      8.60910E-04
  81.500      8.82280E-04
  82.500      9.34140E-04
  83.500      7.52740E-04
  84.500      9.32130E-04
  85.500      9.21240E-04
  86.500      9.75270E-04
  87.500      9.90240E-04
  88.500      1.00070E-03
  89.500      1.01450E-03
  90.500      9.99360E-04
  91.500      8.95220E-04
  92.500      1.78120E-03
  93.500      2.57190E-03
  94.500      3.15230E-03
  95.500      3.59330E-03
  96.500      4.05620E-03
  97.500      2.55170E-03
  98.500      3.61000E-03
  99.500      3.26400E-03
  100.50      3.32840E-03
  101.50      3.55190E-03
  102.50      3.05600E-03
  103.50      3.66650E-03
  104.50      4.01100E-03
  105.50      3.92990E-03
  106.50      3.60490E-03
  107.50      3.73180E-03
  108.50      3.49290E-03
  109.50      3.75000E-03
  110.50      3.64600E-03
  111.50      3.64080E-03
  112.50      3.21380E-03
  113.50      3.61950E-03
  114.50      3.59430E-03
  115.50      3.36710E-03
  116.50      3.34550E-03
  117.50      2.65260E-03
  118.50      3.19500E-03
  119.50      3.09590E-03
  120.50      3.06940E-03
  121.50      2.55340E-03
  122.50      3.01440E-03
  123.50      3.17900E-03
  124.50      3.13800E-03
  125.50      3.17210E-03
  126.50      3.24650E-03
  127.50      3.34940E-03
  128.50      3.36990E-03
  129.50      3.27890E-03
  130.50      3.25760E-03
  131.50      3.37960E-03
  132.50      3.33400E-03
  133.50      3.29340E-03
  134.50      3.29390E-03
  135.50      3.24110E-03
  136.50      3.16910E-03
  137.50      3.10570E-03
  138.50      3.08750E-03
  139.50      2.71410E-03
  140.50      2.70050E-03
  141.50      3.09160E-03
  142.50      2.83490E-03
  143.50      3.01630E-03
  144.20      2.96810E-03
  144.70      2.97790E-03
  145.50      2.87970E-03
  146.50      2.88400E-03
  147.50      2.90290E-03
  148.50      2.94390E-03
  149.50      2.88760E-03
  150.50      2.89260E-03
  151.20      2.89700E-03
  151.70      2.89110E-03
  152.50      2.83770E-03
  153.50      2.59240E-03
  154.50      2.19460E-03
  155.50      2.25930E-03
  156.50      2.50330E-03
  157.50      2.61740E-03
  158.50      2.61000E-03
  159.50      2.64680E-03
  160.50      2.52170E-03
  161.50      2.45540E-03
  162.50      2.51000E-03
  163.50      2.52250E-03
  164.50      2.49990E-03
  165.50      2.58330E-03
  166.50      2.53350E-03
  167.20      2.40260E-03
  167.70      2.70570E-03
  168.50      2.63740E-03
  169.50      2.59960E-03
  170.50      2.57570E-03
  171.50      2.50320E-03
  172.50      2.45080E-03
  173.50      2.54680E-03
  174.50      2.54780E-03
  175.50      2.51540E-03
  176.50      2.50020E-03
  177.50      2.46280E-03
  178.50      2.50310E-03
  179.50      2.45500E-03
  180.50      2.46000E-03
  181.50      2.44130E-03
  182.50      2.41270E-03
  183.50      2.43210E-03
  184.50      2.40050E-03
  185.50      2.40860E-03
  186.50      2.40980E-03
  187.50      2.35960E-03
  188.50      2.33040E-03
  189.50      2.35160E-03
  190.50      2.36750E-03
  191.50      2.34040E-03
  192.50      2.24310E-03
  193.50      2.33500E-03
  194.50      2.34280E-03
  195.50      2.23190E-03
  196.70      2.29060E-03
  197.60      2.29690E-03
  198.40      2.28380E-03
  199.50      2.25240E-03
  200.50      2.28250E-03
  201.50      2.27220E-03
  202.50      2.25960E-03
  203.50      2.23290E-03
  204.50      2.21040E-03
  205.50      1.70400E-03
  206.50      1.64600E-03
  207.40      1.70610E-03
  207.80      1.73440E-03
  208.50      1.86820E-03
  209.50      2.05980E-03
  210.50      2.12190E-03
  211.50      2.14800E-03
  212.50      2.10830E-03
  213.50      2.12010E-03
  214.50      2.10820E-03
  215.50      2.11960E-03
  216.50      2.02110E-03
  217.50      2.10660E-03
  218.50      2.03530E-03
  219.50      2.10010E-03
  220.50      2.08470E-03
  221.50      1.99940E-03
  222.50      2.05720E-03
  223.50      2.04770E-03
  224.50      2.02920E-03
  225.50      1.96150E-03
  226.50      2.00760E-03
  227.50      2.00500E-03
  228.50      1.96170E-03
  229.50      1.87770E-03
  230.50      1.89890E-03
  231.50      1.92290E-03
  232.50      1.93270E-03
  233.50      1.92530E-03
  234.50      1.90760E-03
  235.50      1.88710E-03
  236.50      1.87120E-03
  237.50      1.84600E-03
  238.50      1.76590E-03
  239.50      1.80890E-03
  240.50      1.82030E-03
  241.50      1.80580E-03
  242.50      1.81100E-03
  243.50      1.79350E-03
  244.50      1.78640E-03
  245.50      1.76950E-03
  246.50      1.76660E-03
  247.50      1.76010E-03
  248.50      1.72310E-03
  249.50      1.35370E-03
  250.50      1.67640E-03
  251.30      1.60740E-03
  251.80      1.65700E-03
  252.50      1.69980E-03
  253.50      1.70220E-03
  254.50      1.68740E-03
  255.50      1.67790E-03
  256.50      1.66810E-03
  257.50      1.66320E-03
  258.50      1.65510E-03
  259.50      1.62550E-03
  260.50      1.63710E-03
  261.50      1.61480E-03
  262.50      1.61850E-03
  263.50      1.61350E-03
  264.50      1.59700E-03
  265.50      1.59500E-03
  266.50      1.57860E-03
  267.50      1.54810E-03
  268.50      1.55960E-03
  269.50      1.54960E-03
  270.50      1.55190E-03
  271.50      1.53810E-03
  272.50      1.52720E-03
  273.50      1.48600E-03
  274.50      1.52030E-03
  275.50      1.50720E-03
  276.50      1.49780E-03
  277.50      1.49430E-03
  278.50      1.47640E-03
  279.50      1.44900E-03
  280.50      1.46310E-03
  281.50      1.46000E-03
  282.50      1.44980E-03
  283.50      1.44210E-03
  284.50      1.44230E-03
  285.50      1.43180E-03
  286.50      1.41890E-03
  287.50      1.41220E-03
  288.50      1.40780E-03
  289.50      1.39790E-03
  291.00      1.38100E-03
  293.00      1.37550E-03
  295.00      1.35890E-03
  297.00      1.34310E-03
  299.00      1.32050E-03
  301.00      1.30310E-03
  303.00      1.28150E-03
  305.00      1.28060E-03
  307.00      1.27010E-03
  309.00      1.25700E-03
  311.00      1.25050E-03
  313.00      1.23360E-03
  315.00      1.22750E-03
  317.00      1.21390E-03
  319.00      1.20380E-03
  321.00      1.17540E-03
  323.00      1.17990E-03
  325.00      1.17240E-03
  327.00      1.14790E-03
  329.00      1.14530E-03
  331.00      1.13300E-03
  333.00      1.12010E-03
  335.00      1.10290E-03
  337.00      1.09780E-03
  339.00      1.09240E-03
  341.00      1.08130E-03
  343.00      1.07570E-03
  345.00      1.05690E-03
  347.00      1.05450E-03
  349.00      1.04690E-03
  351.00      1.03820E-03
  353.00      1.02790E-03
  355.00      1.01800E-03
  357.00      1.01050E-03
  359.00      1.00000E-03
  361.00      9.90340E-04
  363.00      9.80830E-04
  364.00      9.65850E-04
  365.00      8.97190E-04
  367.00      8.91520E-04
  369.00      8.84580E-04
  371.00      8.72280E-04
  373.00      8.77910E-04
  375.00      8.87860E-04
  377.00      8.88280E-04
  379.00      9.16940E-04
  381.00      9.37230E-04
  383.00      8.79160E-04
  385.00      9.43810E-04
  387.00      9.31150E-04
  389.00      8.50310E-04
  391.00      9.39580E-04
  393.00      9.22870E-04
  395.00      9.10340E-04
  397.00      8.14460E-04
  399.00      9.07380E-04
  401.00      8.99370E-04
  403.00      8.75570E-04
  405.00      8.90470E-04
  407.00      8.68040E-04
  409.00      8.33640E-04
  411.00      7.84940E-04
  413.00      8.50360E-04
  415.00      8.47170E-04
  417.00      8.47650E-04
  419.00      8.36390E-04
  421.00      8.22910E-04
  423.00      8.28610E-04
  425.00      8.16770E-04
  427.00      8.09500E-04
  429.00      8.01600E-04
  431.00      7.90310E-04
  433.00      7.58370E-04
  435.00      7.20540E-04
  437.00      7.75910E-04
  439.00      7.64520E-04
  441.00      7.61510E-04
  443.00      7.61070E-04
  445.00      7.54320E-04
  447.00      7.38890E-04
  449.00      7.44030E-04
  451.00      7.34440E-04
  453.00      7.31360E-04
  455.00      7.16180E-04
  457.00      7.22870E-04
  459.00      7.14830E-04
  461.00      7.09380E-04
  463.00      6.99700E-04
  465.00      6.75750E-04
  467.00      6.90930E-04
  469.00      6.72120E-04
  471.00      6.79720E-04
  473.00      6.85090E-04
  475.00      6.79660E-04
  477.00      6.75330E-04
  479.00      6.70380E-04
  481.00      6.64690E-04
  483.00      6.58330E-04
  485.00      6.35650E-04
  487.00      5.92900E-04
  489.00      6.42730E-04
  491.00      6.39600E-04
  493.00      6.29720E-04
  495.00      6.29610E-04
  497.00      6.28450E-04
  499.00      6.24120E-04
  501.00      6.13300E-04
  503.00      6.12840E-04
  505.00      6.08720E-04
  507.00      6.06740E-04
  509.00      6.02450E-04
  511.00      5.98240E-04
  513.00      5.94000E-04
  515.00      5.89910E-04
  517.00      5.85380E-04
  519.00      5.81770E-04
  521.00      5.78000E-04
  523.00      5.74320E-04
  525.00      5.69250E-04
  527.00      5.64770E-04
  529.00      5.62800E-04
  531.00      5.58830E-04
  533.00      5.55170E-04
  535.00      5.51650E-04
  537.00      5.47920E-04
  539.00      5.44120E-04
  541.00      5.31880E-04
  543.00      5.37190E-04
  545.00      5.33690E-04
  547.00      5.30090E-04
  549.00      5.26720E-04
  551.00      5.22600E-04
  553.00      5.19920E-04
  555.00      5.16680E-04
  557.00      5.13090E-04
  559.00      5.08040E-04
  561.00      5.06830E-04
  563.00      5.03600E-04
  565.00      5.00380E-04
  567.00      4.97050E-04
  569.00      4.87010E-04
  571.00      4.67260E-04
  573.00      4.64640E-04
  575.00      4.61650E-04
  577.00      4.59390E-04
  579.00      4.56760E-04
  581.00      4.52980E-04
  583.00      4.51750E-04
  585.00      4.51240E-04
  587.00      4.43530E-04
  589.00      4.48810E-04
  591.00      4.48270E-04
  593.00      4.47720E-04
  595.00      4.47430E-04
  597.00      4.47460E-04
  599.00      4.47280E-04
  601.00      4.46210E-04
  603.00      4.44010E-04
  605.00      4.42430E-04
  607.00      4.39890E-04
  609.00      4.37570E-04
  611.00      4.34570E-04
  613.00      4.32150E-04
  615.00      4.29570E-04
  617.00      4.26320E-04
  619.00      4.24940E-04
  621.00      4.22610E-04
  623.00      4.19100E-04
  625.00      4.17260E-04
  627.00      4.15230E-04
  629.00      4.12830E-04
  631.00      4.08820E-04
  633.00      4.08030E-04
  635.00      4.05560E-04
  637.00      4.03500E-04
  639.00      4.01160E-04
  641.00      3.97140E-04
  643.00      3.96680E-04
  645.00      3.94180E-04
  647.00      3.91760E-04
  649.00      3.89590E-04
  651.00      3.86680E-04
  653.00      3.82370E-04
  655.00      3.76520E-04
  657.00      3.47800E-04
  659.00      3.77630E-04
  661.00      3.77000E-04
  663.00      3.75100E-04
  665.00      3.72920E-04
  667.00      3.67510E-04
  669.00      3.63780E-04
  671.00      3.65860E-04
  673.00      3.64130E-04
  675.00      3.62480E-04
  677.00      3.60930E-04
  679.00      3.59030E-04
  681.00      3.57200E-04
  683.00      3.55240E-04
  685.00      3.53290E-04
  687.00      3.51260E-04
  689.00      3.46140E-04
  691.00      3.47030E-04
  693.00      3.45950E-04
  695.00      3.44110E-04
  697.00      3.42310E-04
  699.00      3.40470E-04
  701.00      3.38270E-04
  703.00      3.36270E-04
  705.00      3.34600E-04
  707.00      3.29960E-04
  709.00      3.31710E-04
  711.00      3.29890E-04
  713.00      3.28210E-04
  715.00      3.26630E-04
  717.00      3.22870E-04
  719.00      3.22100E-04
  721.00      3.21640E-04
  723.00      3.19620E-04
  725.00      3.18220E-04
  727.00      3.16760E-04
  729.00      3.13760E-04
  731.00      3.13290E-04
  733.00      3.11990E-04
  735.00      3.10400E-04
  737.00      3.08740E-04
  739.00      3.07330E-04
  741.00      3.05650E-04
  743.00      3.04280E-04
  745.00      3.02450E-04
  747.00      3.01050E-04
  749.00      2.99000E-04
  751.00      2.98140E-04
  753.00      2.96770E-04
  755.00      2.95340E-04
  757.00      2.93860E-04
  759.00      2.89250E-04
  761.00      2.90540E-04
  763.00      2.89480E-04
  765.00      2.88070E-04
  767.00      2.86850E-04
  769.00      2.84630E-04
  771.00      2.83800E-04
  773.00      2.81700E-04
  775.00      2.81270E-04
  777.00      2.80070E-04
  779.00      2.78730E-04
  781.00      2.77370E-04
  783.00      2.76060E-04
  785.00      2.74380E-04
  787.00      2.73090E-04
  789.00      2.71950E-04
  791.00      2.70970E-04
  793.00      2.69710E-04
  795.00      2.68500E-04
  797.00      2.66920E-04
  799.00      2.65920E-04
  801.00      2.64730E-04
  803.00      2.63370E-04
  805.00      2.62330E-04
  807.00      2.61100E-04
  809.00      2.59810E-04
  811.00      2.58310E-04
  813.00      2.57520E-04
  815.00      2.56200E-04
  817.00      2.54940E-04
  819.00      2.53010E-04
  821.00      2.46090E-04
  823.00      2.43690E-04
  825.00      2.43810E-04
  827.00      2.42580E-04
  829.00      2.41990E-04
  831.00      2.41090E-04
  833.00      2.39500E-04
  835.00      2.38270E-04
  837.00      2.37700E-04
  839.00      2.36990E-04
  841.00      2.35980E-04
  843.00      2.35090E-04
  845.00      2.33730E-04
  847.00      2.33270E-04
  849.00      2.32340E-04
  851.00      2.30900E-04
  853.00      2.30710E-04
  855.00      2.29490E-04
  857.00      2.29580E-04
  859.00      2.27080E-04
  861.00      2.26930E-04
  863.00      2.27970E-04
  865.00      2.25850E-04
  867.00      2.21850E-04
  869.00      2.25820E-04
  871.00      2.26020E-04
  873.00      2.23620E-04
  875.00      2.15870E-04
  877.00      2.21020E-04
  879.00      2.23710E-04
  881.00      2.23500E-04
  883.00      2.22140E-04
  885.00      2.15750E-04
  887.00      2.08160E-04
  889.00      2.18490E-04
  891.00      2.19390E-04
  893.00      2.18600E-04
  895.00      2.17740E-04
  897.00      2.16910E-04
  899.00      2.13800E-04
  901.00      2.00880E-04
  903.00      2.06030E-04
  905.00      2.12530E-04
  907.00      2.11660E-04
  909.00      2.11710E-04
  911.00      2.11150E-04
  913.00      2.10540E-04
  915.00      2.09780E-04
  917.00      2.08420E-04
  919.00      2.07060E-04
  921.00      2.02050E-04
  923.00      1.87780E-04
  925.00      2.00210E-04
  927.00      2.03540E-04
  929.00      2.03420E-04
  931.00      2.02480E-04
  933.00      2.01860E-04
  935.00      1.98040E-04
  937.00      1.99850E-04
  939.00      1.99580E-04
  941.00      1.98580E-04
  943.00      1.97920E-04
  945.00      1.97170E-04
  947.00      1.95970E-04
  949.00      1.95330E-04
  951.00      1.93020E-04
  953.00      1.88180E-04
  955.00      1.74990E-04
  957.00      1.88850E-04
  959.00      1.91080E-04
  961.00      1.90670E-04
  963.00      1.89640E-04
  965.00      1.89620E-04
  967.00      1.88950E-04
  969.00      1.88160E-04
  971.00      1.84880E-04
  973.00      1.86330E-04
  975.00      1.85910E-04
  977.00      1.84750E-04
  979.00      1.84540E-04
  981.00      1.83810E-04
  983.00      1.83050E-04
  985.00      1.82370E-04
  987.00      1.81730E-04
  989.00      1.80880E-04
  991.00      1.80080E-04
  993.00      1.79630E-04
  995.00      1.78970E-04
  997.00      1.78260E-04
  999.00      1.77470E-04
  1002.5      1.71570E-04
  1007.5      1.68110E-04
  1012.5      1.70470E-04
  1017.5      1.71520E-04
  1022.5      1.69850E-04
  1027.5      1.68260E-04
  1032.5      1.66330E-04
  1037.5      1.65270E-04
  1042.5      1.63410E-04
  1047.5      1.62290E-04
  1052.5      1.60800E-04
  1057.5      1.59370E-04
  1062.5      1.57930E-04
  1067.5      1.56430E-04
  1072.5      1.55140E-04
  1077.5      1.53760E-04
  1082.5      1.51370E-04
  1087.5      1.50780E-04
  1092.5      1.41660E-04
  1097.5      1.46300E-04
  1102.5      1.46810E-04
  1107.5      1.45870E-04
  1112.5      1.44630E-04
  1117.5      1.43450E-04
  1122.5      1.42180E-04
  1127.5      1.40990E-04
  1132.5      1.39740E-04
  1137.5      1.38600E-04
  1142.5      1.37470E-04
  1147.5      1.36320E-04
  1152.5      1.35220E-04
  1157.5      1.34070E-04
  1162.5      1.32040E-04
  1167.5      1.31270E-04
  1172.5      1.30830E-04
  1177.5      1.29760E-04
  1182.5      1.28620E-04
  1187.5      1.27630E-04
  1192.5      1.26610E-04
  1197.5      1.24750E-04
  1202.5      1.24630E-04
  1207.5      1.23600E-04
  1212.5      1.22570E-04
  1217.5      1.21690E-04
  1222.5      1.20730E-04
  1227.5      1.19790E-04
  1232.5      1.18840E-04
  1237.5      1.17930E-04
  1242.5      1.17020E-04
  1247.5      1.16120E-04
  1252.5      1.15080E-04
  1257.5      1.14320E-04
  1262.5      1.13470E-04
  1267.5      1.12620E-04
  1272.5      1.11750E-04
  1277.5      1.09650E-04
  1282.5      1.03930E-04
  1287.5      1.08860E-04
  1292.5      1.08450E-04
  1297.5      1.07290E-04
  1302.5      1.06800E-04
  1307.5      1.06070E-04
  1312.5      1.05290E-04
  1317.5      1.04520E-04
  1322.5      1.03760E-04
  1327.5      1.03000E-04
  1332.5      1.02250E-04
  1337.5      1.01500E-04
  1342.5      1.00740E-04
  1347.5      1.00050E-04
  1352.5      9.93240E-05
  1357.5      9.86460E-05
  1362.5      9.79170E-05
  1367.5      9.72550E-05
  1372.5      9.65080E-05
  1377.5      9.58940E-05
  1382.5      9.52250E-05
  1387.5      9.45610E-05
  1392.5      9.38770E-05
  1397.5      9.32550E-05
