 Castelli and Kurucz 2004-2012 Atmosphere
 T     48000.     G    5.00000 [0.0a] VTURB=2  L/H=1.25 NOVER NEW ODF          
 Wavelength  Eddington Hnu
   (nm)    (ergs/s/cm2/Hz/sr)
  9.0900      1.22980E-19
  9.3500      3.51330E-19
  9.6100      9.27810E-19
  9.7700      1.69930E-18
  9.9600      3.32620E-18
  10.200      7.51030E-18
  10.380      1.35190E-17
  10.560      2.38710E-17
  10.770      4.52880E-17
  11.040      9.96660E-17
  11.400      2.69770E-16
  11.780      7.19580E-16
  12.130      1.70810E-15
  12.480      3.83140E-15
  12.710      6.39040E-15
  12.840      8.72710E-15
  13.050      1.35230E-14
  13.240      1.98270E-14
  13.390      2.68170E-14
  13.660      4.47780E-14
  13.980      8.17230E-14
  14.330      1.49610E-13
  14.720      2.72730E-13
  15.100      5.25100E-13
  15.520      9.92130E-13
  15.880      1.70210E-12
  16.200      3.32830E-12
  16.600      5.75110E-12
  17.030      9.54120E-12
  17.340      1.37150E-11
  17.680      2.11460E-11
  18.020      3.13020E-11
  18.170      3.64350E-11
  18.610      6.05810E-11
  19.100      9.71460E-11
  19.390      1.34800E-10
  19.840      2.07600E-10
  20.180      2.70180E-10
  20.500      3.66790E-10
  21.050      5.72260E-10
  21.620      8.76780E-10
  21.980      1.16900E-09
  22.300      1.43790E-09
  22.680      1.90050E-09
  23.000      1.44500E-07
  23.400      6.35350E-07
  24.000      9.06620E-07
  24.650      2.28820E-06
  25.240      1.59120E-05
  25.680      4.47810E-05
  26.000      3.26310E-05
  26.400      1.19860E-04
  26.850      1.53690E-04
  27.350      1.94040E-04
  27.850      1.26730E-04
  28.400      2.59260E-04
  29.000      3.99530E-04
  29.600      3.33460E-04
  30.100      2.12420E-04
  30.800      2.91470E-04
  31.800      5.42870E-05
  32.800      8.30720E-05
  33.800      5.51110E-05
  34.800      6.29140E-05
  35.700      1.78770E-04
  36.600      4.28390E-04
  37.500      6.35620E-04
  38.500      6.32810E-04
  39.500      1.06010E-03
  40.500      1.79050E-03
  41.400      1.71800E-03
  42.200      1.59490E-03
  43.000      1.52720E-03
  44.100      1.86380E-03
  45.100      2.00160E-03
  46.000      1.61750E-03
  47.000      1.91920E-03
  48.000      2.27350E-03
  49.000      1.75370E-03
  50.000      2.75460E-03
  50.600      2.21010E-03
  51.200      2.90190E-03
  52.000      2.77570E-03
  53.000      2.64200E-03
  54.000      2.22120E-03
  55.000      1.80100E-03
  56.000      2.43320E-03
  57.000      3.05570E-03
  58.000      3.12440E-03
  59.000      3.18540E-03
  60.000      2.70450E-03
  61.000      2.25230E-03
  62.000      3.02220E-03
  63.000      2.74100E-03
  64.000      3.32990E-03
  65.000      3.10440E-03
  65.800      2.70880E-03
  66.500      3.31560E-03
  67.500      3.42480E-03
  68.500      3.10650E-03
  69.500      3.47100E-03
  70.500      3.00110E-03
  71.600      3.48070E-03
  72.600      3.61900E-03
  73.500      3.61690E-03
  74.500      3.47930E-03
  75.500      3.40970E-03
  76.500      3.17280E-03
  77.500      3.47580E-03
  78.500      2.97880E-03
  79.500      3.40170E-03
  80.500      3.53770E-03
  81.500      3.54700E-03
  82.500      3.60620E-03
  83.500      3.24410E-03
  84.500      3.55560E-03
  85.500      3.36070E-03
  86.500      3.59790E-03
  87.500      3.64550E-03
  88.500      3.57470E-03
  89.500      3.57740E-03
  90.500      3.50220E-03
  91.500      2.61100E-03
  92.500      4.03850E-03
  93.500      5.00680E-03
  94.500      5.77870E-03
  95.500      6.88920E-03
  96.500      7.40280E-03
  97.500      5.84100E-03
  98.500      6.82900E-03
  99.500      6.18790E-03
  100.50      6.37340E-03
  101.50      6.54450E-03
  102.50      5.99430E-03
  103.50      6.88280E-03
  104.50      7.23800E-03
  105.50      7.16450E-03
  106.50      6.69940E-03
  107.50      7.12320E-03
  108.50      6.45000E-03
  109.50      6.99650E-03
  110.50      6.89830E-03
  111.50      6.89220E-03
  112.50      6.69730E-03
  113.50      6.92100E-03
  114.50      6.95710E-03
  115.50      6.65560E-03
  116.50      6.28680E-03
  117.50      5.96570E-03
  118.50      6.38600E-03
  119.50      6.05690E-03
  120.50      6.04950E-03
  121.50      5.09680E-03
  122.50      5.93970E-03
  123.50      5.76500E-03
  124.50      5.64170E-03
  125.50      5.89920E-03
  126.50      5.91270E-03
  127.50      5.93870E-03
  128.50      5.92950E-03
  129.50      5.94650E-03
  130.50      5.79650E-03
  131.50      5.77520E-03
  132.50      5.71670E-03
  133.50      5.68140E-03
  134.50      5.58240E-03
  135.50      5.46710E-03
  136.50      5.26120E-03
  137.50      5.05540E-03
  138.50      5.21330E-03
  139.50      5.05620E-03
  140.50      4.86530E-03
  141.50      5.33990E-03
  142.50      5.09950E-03
  143.50      5.27030E-03
  144.20      5.04720E-03
  144.70      5.06880E-03
  145.50      4.98710E-03
  146.50      4.98070E-03
  147.50      5.00170E-03
  148.50      5.06210E-03
  149.50      4.97480E-03
  150.50      4.93800E-03
  151.20      4.94230E-03
  151.70      4.84030E-03
  152.50      4.89300E-03
  153.50      4.64990E-03
  154.50      4.11220E-03
  155.50      4.18950E-03
  156.50      4.51280E-03
  157.50      4.59760E-03
  158.50      4.48890E-03
  159.50      4.56190E-03
  160.50      4.43490E-03
  161.50      4.37470E-03
  162.50      4.40360E-03
  163.50      4.38910E-03
  164.50      4.22250E-03
  165.50      4.41450E-03
  166.50      4.35760E-03
  167.20      4.23720E-03
  167.70      4.44290E-03
  168.50      4.42020E-03
  169.50      4.41710E-03
  170.50      4.31680E-03
  171.50      4.18140E-03
  172.50      4.15580E-03
  173.50      4.27770E-03
  174.50      4.24940E-03
  175.50      4.21330E-03
  176.50      4.15570E-03
  177.50      4.12620E-03
  178.50      4.14700E-03
  179.50      4.07340E-03
  180.50      4.04740E-03
  181.50      4.00600E-03
  182.50      3.98420E-03
  183.50      3.96290E-03
  184.50      3.95050E-03
  185.50      3.91930E-03
  186.50      3.91490E-03
  187.50      3.85100E-03
  188.50      3.81800E-03
  189.50      3.84020E-03
  190.50      3.81320E-03
  191.50      3.78480E-03
  192.50      3.66280E-03
  193.50      3.74050E-03
  194.50      3.72590E-03
  195.50      3.66570E-03
  196.70      3.65430E-03
  197.60      3.60400E-03
  198.40      3.62120E-03
  199.50      3.58420E-03
  200.50      3.57500E-03
  201.50      3.55180E-03
  202.50      3.53150E-03
  203.50      3.49090E-03
  204.50      3.44890E-03
  205.50      2.59310E-03
  206.50      2.49750E-03
  207.40      2.55120E-03
  207.80      2.60980E-03
  208.50      2.76930E-03
  209.50      3.09020E-03
  210.50      3.26780E-03
  211.50      3.30390E-03
  212.50      3.25820E-03
  213.50      3.26240E-03
  214.50      3.23690E-03
  215.50      3.24290E-03
  216.50      3.07480E-03
  217.50      3.22870E-03
  218.50      3.09280E-03
  219.50      3.20380E-03
  220.50      3.17770E-03
  221.50      3.01840E-03
  222.50      3.14380E-03
  223.50      3.12630E-03
  224.50      3.10340E-03
  225.50      2.96070E-03
  226.50      3.05370E-03
  227.50      3.05630E-03
  228.50      2.99760E-03
  229.50      2.96200E-03
  230.50      2.86550E-03
  231.50      2.92850E-03
  232.50      2.94380E-03
  233.50      2.93060E-03
  234.50      2.89820E-03
  235.50      2.86760E-03
  236.50      2.84440E-03
  237.50      2.80940E-03
  238.50      2.66260E-03
  239.50      2.75660E-03
  240.50      2.74410E-03
  241.50      2.72320E-03
  242.50      2.74350E-03
  243.50      2.71340E-03
  244.50      2.70070E-03
  245.50      2.65690E-03
  246.50      2.66290E-03
  247.50      2.66730E-03
  248.50      2.63140E-03
  249.50      2.42390E-03
  250.50      2.59040E-03
  251.30      2.39000E-03
  251.80      2.52200E-03
  252.50      2.54330E-03
  253.50      2.55860E-03
  254.50      2.54750E-03
  255.50      2.53080E-03
  256.50      2.51830E-03
  257.50      2.49920E-03
  258.50      2.48400E-03
  259.50      2.42000E-03
  260.50      2.45640E-03
  261.50      2.40700E-03
  262.50      2.42930E-03
  263.50      2.41720E-03
  264.50      2.38740E-03
  265.50      2.38740E-03
  266.50      2.36910E-03
  267.50      2.32630E-03
  268.50      2.33170E-03
  269.50      2.31620E-03
  270.50      2.32180E-03
  271.50      2.30490E-03
  272.50      2.28570E-03
  273.50      2.19560E-03
  274.50      2.26610E-03
  275.50      2.24450E-03
  276.50      2.23810E-03
  277.50      2.21840E-03
  278.50      2.18580E-03
  279.50      2.17480E-03
  280.50      2.17700E-03
  281.50      2.16590E-03
  282.50      2.14430E-03
  283.50      2.14430E-03
  284.50      2.13600E-03
  285.50      2.12240E-03
  286.50      2.09950E-03
  287.50      2.08460E-03
  288.50      2.08400E-03
  289.50      2.06480E-03
  291.00      2.05200E-03
  293.00      2.03510E-03
  295.00      2.01280E-03
  297.00      1.98450E-03
  299.00      1.95380E-03
  301.00      1.93400E-03
  303.00      1.89990E-03
  305.00      1.89080E-03
  307.00      1.85700E-03
  309.00      1.85440E-03
  311.00      1.83660E-03
  313.00      1.81450E-03
  315.00      1.80240E-03
  317.00      1.78130E-03
  319.00      1.76550E-03
  321.00      1.70900E-03
  323.00      1.73110E-03
  325.00      1.71450E-03
  327.00      1.67920E-03
  329.00      1.67420E-03
  331.00      1.65640E-03
  333.00      1.63750E-03
  335.00      1.60900E-03
  337.00      1.60310E-03
  339.00      1.58220E-03
  341.00      1.56560E-03
  343.00      1.56250E-03
  345.00      1.53470E-03
  347.00      1.53030E-03
  349.00      1.51700E-03
  351.00      1.50620E-03
  353.00      1.48710E-03
  355.00      1.47410E-03
  357.00      1.45970E-03
  359.00      1.44800E-03
  361.00      1.43340E-03
  363.00      1.41770E-03
  364.00      1.38240E-03
  365.00      1.24500E-03
  367.00      1.23550E-03
  369.00      1.22660E-03
  371.00      1.21970E-03
  373.00      1.23240E-03
  375.00      1.24890E-03
  377.00      1.26450E-03
  379.00      1.29360E-03
  381.00      1.31680E-03
  383.00      1.26260E-03
  385.00      1.31490E-03
  387.00      1.31330E-03
  389.00      1.21090E-03
  391.00      1.30300E-03
  393.00      1.28390E-03
  395.00      1.27490E-03
  397.00      1.15940E-03
  399.00      1.25840E-03
  401.00      1.25210E-03
  403.00      1.21980E-03
  405.00      1.23500E-03
  407.00      1.21980E-03
  409.00      1.17280E-03
  411.00      1.11090E-03
  413.00      1.18830E-03
  415.00      1.18270E-03
  417.00      1.17460E-03
  419.00      1.15710E-03
  421.00      1.13200E-03
  423.00      1.14630E-03
  425.00      1.13610E-03
  427.00      1.12710E-03
  429.00      1.11750E-03
  431.00      1.10430E-03
  433.00      1.05730E-03
  435.00      1.01640E-03
  437.00      1.07570E-03
  439.00      1.06550E-03
  441.00      1.05720E-03
  443.00      1.05280E-03
  445.00      1.04210E-03
  447.00      1.03090E-03
  449.00      1.02760E-03
  451.00      1.01790E-03
  453.00      1.00760E-03
  455.00      9.79900E-04
  457.00      9.94980E-04
  459.00      9.87320E-04
  461.00      9.80180E-04
  463.00      9.65920E-04
  465.00      9.47920E-04
  467.00      9.54840E-04
  469.00      9.15010E-04
  471.00      9.43600E-04
  473.00      9.38790E-04
  475.00      9.31680E-04
  477.00      9.24300E-04
  479.00      9.15570E-04
  481.00      9.09930E-04
  483.00      9.01690E-04
  485.00      8.72740E-04
  487.00      8.24940E-04
  489.00      8.80060E-04
  491.00      8.76060E-04
  493.00      8.68960E-04
  495.00      8.63960E-04
  497.00      8.57980E-04
  499.00      8.52030E-04
  501.00      8.43720E-04
  503.00      8.38660E-04
  505.00      8.32860E-04
  507.00      8.27540E-04
  509.00      8.21900E-04
  511.00      8.15960E-04
  513.00      8.09840E-04
  515.00      8.04330E-04
  517.00      7.98930E-04
  519.00      7.93290E-04
  521.00      7.87440E-04
  523.00      7.82300E-04
  525.00      7.76090E-04
  527.00      7.69860E-04
  529.00      7.66190E-04
  531.00      7.60790E-04
  533.00      7.55570E-04
  535.00      7.50620E-04
  537.00      7.45330E-04
  539.00      7.40330E-04
  541.00      7.17410E-04
  543.00      7.30010E-04
  545.00      7.25600E-04
  547.00      7.20530E-04
  549.00      7.15880E-04
  551.00      7.10100E-04
  553.00      7.06410E-04
  555.00      7.01800E-04
  557.00      6.96670E-04
  559.00      6.90020E-04
  561.00      6.88080E-04
  563.00      6.83560E-04
  565.00      6.79110E-04
  567.00      6.74700E-04
  569.00      6.59700E-04
  571.00      6.15490E-04
  573.00      6.11840E-04
  575.00      6.08140E-04
  577.00      6.04790E-04
  579.00      6.01510E-04
  581.00      5.95030E-04
  583.00      5.96340E-04
  585.00      5.95060E-04
  587.00      5.91480E-04
  589.00      5.93640E-04
  591.00      5.93690E-04
  593.00      5.94130E-04
  595.00      5.95220E-04
  597.00      5.96520E-04
  599.00      5.98530E-04
  601.00      5.98370E-04
  603.00      5.98580E-04
  605.00      5.97630E-04
  607.00      5.94090E-04
  609.00      5.91250E-04
  611.00      5.87770E-04
  613.00      5.84500E-04
  615.00      5.81740E-04
  617.00      5.76550E-04
  619.00      5.74990E-04
  621.00      5.71960E-04
  623.00      5.65950E-04
  625.00      5.64300E-04
  627.00      5.61820E-04
  629.00      5.58430E-04
  631.00      5.51670E-04
  633.00      5.51540E-04
  635.00      5.48750E-04
  637.00      5.45650E-04
  639.00      5.41640E-04
  641.00      5.34650E-04
  643.00      5.36040E-04
  645.00      5.32970E-04
  647.00      5.29860E-04
  649.00      5.27010E-04
  651.00      5.22770E-04
  653.00      5.14270E-04
  655.00      5.09310E-04
  657.00      4.76180E-04
  659.00      5.10410E-04
  661.00      5.09380E-04
  663.00      5.06530E-04
  665.00      5.03690E-04
  667.00      4.97970E-04
  669.00      4.90020E-04
  671.00      4.94250E-04
  673.00      4.92380E-04
  675.00      4.89630E-04
  677.00      4.87030E-04
  679.00      4.84490E-04
  681.00      4.81820E-04
  683.00      4.79190E-04
  685.00      4.76530E-04
  687.00      4.73780E-04
  689.00      4.63060E-04
  691.00      4.68160E-04
  693.00      4.66340E-04
  695.00      4.63830E-04
  697.00      4.61350E-04
  699.00      4.58830E-04
  701.00      4.56080E-04
  703.00      4.53440E-04
  705.00      4.50970E-04
  707.00      4.47940E-04
  709.00      4.46820E-04
  711.00      4.44200E-04
  713.00      4.41870E-04
  715.00      4.39820E-04
  717.00      4.31750E-04
  719.00      4.31450E-04
  721.00      4.32950E-04
  723.00      4.30730E-04
  725.00      4.28510E-04
  727.00      4.26300E-04
  729.00      4.23860E-04
  731.00      4.21460E-04
  733.00      4.19770E-04
  735.00      4.17630E-04
  737.00      4.15250E-04
  739.00      4.13160E-04
  741.00      4.11020E-04
  743.00      4.09220E-04
  745.00      4.06600E-04
  747.00      4.05100E-04
  749.00      4.02640E-04
  751.00      4.00780E-04
  753.00      3.99050E-04
  755.00      3.96990E-04
  757.00      3.94940E-04
  759.00      3.84650E-04
  761.00      3.90110E-04
  763.00      3.89160E-04
  765.00      3.87210E-04
  767.00      3.85270E-04
  769.00      3.82780E-04
  771.00      3.81130E-04
  773.00      3.78850E-04
  775.00      3.77840E-04
  777.00      3.76150E-04
  779.00      3.74330E-04
  781.00      3.72500E-04
  783.00      3.70660E-04
  785.00      3.68200E-04
  787.00      3.66820E-04
  789.00      3.65260E-04
  791.00      3.63670E-04
  793.00      3.61970E-04
  795.00      3.60220E-04
  797.00      3.58000E-04
  799.00      3.56830E-04
  801.00      3.55150E-04
  803.00      3.53360E-04
  805.00      3.51840E-04
  807.00      3.50200E-04
  809.00      3.48560E-04
  811.00      3.46940E-04
  813.00      3.45330E-04
  815.00      3.43720E-04
  817.00      3.41680E-04
  819.00      3.38760E-04
  821.00      3.22210E-04
  823.00      3.18250E-04
  825.00      3.18750E-04
  827.00      3.18010E-04
  829.00      3.16680E-04
  831.00      3.15340E-04
  833.00      3.13560E-04
  835.00      3.12530E-04
  837.00      3.11290E-04
  839.00      3.10080E-04
  841.00      3.08920E-04
  843.00      3.07750E-04
  845.00      3.06580E-04
  847.00      3.05580E-04
  849.00      3.04690E-04
  851.00      3.03580E-04
  853.00      3.02920E-04
  855.00      3.01850E-04
  857.00      3.01190E-04
  859.00      3.00210E-04
  861.00      2.99480E-04
  863.00      2.99370E-04
  865.00      2.98320E-04
  867.00      2.96110E-04
  869.00      2.97450E-04
  871.00      2.97240E-04
  873.00      2.96140E-04
  875.00      2.92140E-04
  877.00      2.94350E-04
  879.00      2.95320E-04
  881.00      2.95120E-04
  883.00      2.94300E-04
  885.00      2.89980E-04
  887.00      2.84700E-04
  889.00      2.90430E-04
  891.00      2.90980E-04
  893.00      2.90140E-04
  895.00      2.89260E-04
  897.00      2.87980E-04
  899.00      2.85020E-04
  901.00      2.74730E-04
  903.00      2.77650E-04
  905.00      2.82330E-04
  907.00      2.82140E-04
  909.00      2.81310E-04
  911.00      2.79900E-04
  913.00      2.79320E-04
  915.00      2.78420E-04
  917.00      2.76670E-04
  919.00      2.74840E-04
  921.00      2.70470E-04
  923.00      2.57370E-04
  925.00      2.67330E-04
  927.00      2.70150E-04
  929.00      2.69900E-04
  931.00      2.69150E-04
  933.00      2.67450E-04
  935.00      2.59380E-04
  937.00      2.64520E-04
  939.00      2.64570E-04
  941.00      2.63700E-04
  943.00      2.62740E-04
  945.00      2.61670E-04
  947.00      2.60570E-04
  949.00      2.59190E-04
  951.00      2.57090E-04
  953.00      2.51920E-04
  955.00      2.38700E-04
  957.00      2.51300E-04
  959.00      2.53400E-04
  961.00      2.53190E-04
  963.00      2.52250E-04
  965.00      2.51460E-04
  967.00      2.50470E-04
  969.00      2.49480E-04
  971.00      2.47660E-04
  973.00      2.47330E-04
  975.00      2.45960E-04
  977.00      2.43790E-04
  979.00      2.44520E-04
  981.00      2.43640E-04
  983.00      2.42530E-04
  985.00      2.41760E-04
  987.00      2.40820E-04
  989.00      2.39880E-04
  991.00      2.38890E-04
  993.00      2.38030E-04
  995.00      2.37120E-04
  997.00      2.36200E-04
  999.00      2.35100E-04
  1002.5      2.28870E-04
  1007.5      2.24530E-04
  1012.5      2.24500E-04
  1017.5      2.27120E-04
  1022.5      2.24990E-04
  1027.5      2.22760E-04
  1032.5      2.20620E-04
  1037.5      2.18760E-04
  1042.5      2.15320E-04
  1047.5      2.14790E-04
  1052.5      2.12820E-04
  1057.5      2.10900E-04
  1062.5      2.08990E-04
  1067.5      2.07100E-04
  1072.5      2.05250E-04
  1077.5      2.03420E-04
  1082.5      2.01210E-04
  1087.5      1.99530E-04
  1092.5      1.89660E-04
  1097.5      1.94030E-04
  1102.5      1.94540E-04
  1107.5      1.92920E-04
  1112.5      1.91250E-04
  1117.5      1.89730E-04
  1122.5      1.88070E-04
  1127.5      1.86440E-04
  1132.5      1.84830E-04
  1137.5      1.83310E-04
  1142.5      1.81780E-04
  1147.5      1.80250E-04
  1152.5      1.78740E-04
  1157.5      1.77230E-04
  1162.5      1.73210E-04
  1167.5      1.72430E-04
  1172.5      1.72870E-04
  1177.5      1.71470E-04
  1182.5      1.70000E-04
  1187.5      1.68650E-04
  1192.5      1.67290E-04
  1197.5      1.65780E-04
  1202.5      1.64620E-04
  1207.5      1.63270E-04
  1212.5      1.61940E-04
  1217.5      1.60710E-04
  1222.5      1.59430E-04
  1227.5      1.58180E-04
  1232.5      1.56920E-04
  1237.5      1.55700E-04
  1242.5      1.54490E-04
  1247.5      1.53290E-04
  1252.5      1.52090E-04
  1257.5      1.50930E-04
  1262.5      1.49770E-04
  1267.5      1.48620E-04
  1272.5      1.47480E-04
  1277.5      1.45460E-04
  1282.5      1.38240E-04
  1287.5      1.43700E-04
  1292.5      1.43080E-04
  1297.5      1.41980E-04
  1302.5      1.40950E-04
  1307.5      1.39910E-04
  1312.5      1.38870E-04
  1317.5      1.37840E-04
  1322.5      1.36830E-04
  1327.5      1.35830E-04
  1332.5      1.34840E-04
  1337.5      1.33860E-04
  1342.5      1.32880E-04
  1347.5      1.31930E-04
  1352.5      1.30980E-04
  1357.5      1.30040E-04
  1362.5      1.29110E-04
  1367.5      1.28190E-04
  1372.5      1.27280E-04
  1377.5      1.26380E-04
  1382.5      1.25490E-04
  1387.5      1.24610E-04
  1392.5      1.23740E-04
  1397.5      1.22880E-04
