 Castelli and Kurucz 2004-2012 Atmosphere
 T     36000.     G    5.00000 [0.0a] VTURB=2  L/H=1.25 NOVER NEW ODF          
 Wavelength  Eddington Hnu
   (nm)    (ergs/s/cm2/Hz/sr)
  9.0900      2.09670E-28
  9.3500      9.43150E-28
  9.6100      3.92550E-27
  9.7700      9.19340E-27
  9.9600      2.43450E-26
  10.200      7.95780E-26
  10.380      1.87540E-25
  10.560      4.30620E-25
  10.770      1.10040E-24
  11.040      3.50720E-24
  11.400      1.52260E-23
  11.780      6.57420E-23
  12.130      2.34890E-22
  12.480      7.85160E-22
  12.710      1.67790E-21
  12.840      2.54850E-21
  13.050      4.92120E-21
  13.240      8.78140E-21
  13.390      1.37230E-20
  13.660      2.99330E-20
  13.980      7.28720E-20
  14.330      1.84380E-19
  14.720      4.91360E-19
  15.100      1.23220E-18
  15.520      3.21770E-18
  15.880      7.05320E-18
  16.200      1.37480E-17
  16.600      3.07510E-17
  17.030      6.97340E-17
  17.340      1.23600E-16
  17.680      2.27490E-16
  18.020      4.06280E-16
  18.170      5.26610E-16
  18.610      1.07180E-15
  19.100      2.28300E-15
  19.390      3.50450E-15
  19.840      6.70080E-15
  20.180      1.06790E-14
  20.500      1.63470E-14
  21.050      3.30530E-14
  21.620      6.55120E-14
  21.980      1.00660E-13
  22.300      1.44750E-13
  22.680      2.24830E-13
  23.000      8.80270E-11
  23.400      2.19140E-10
  24.000      3.33950E-10
  24.650      5.33180E-10
  25.240      8.88530E-10
  25.680      1.19900E-09
  26.000      1.83890E-09
  26.400      2.84550E-09
  26.850      4.33850E-09
  27.350      5.79420E-09
  27.850      6.86300E-09
  28.400      1.35340E-08
  29.000      1.90860E-08
  29.600      2.41540E-08
  30.100      3.82230E-08
  30.800      7.55270E-08
  31.800      1.57670E-07
  32.800      2.23150E-07
  33.800      3.91280E-07
  34.800      5.88900E-07
  35.700      1.14180E-06
  36.600      2.45550E-06
  37.500      2.85360E-06
  38.500      4.00500E-06
  39.500      7.56360E-06
  40.500      9.43460E-06
  41.400      1.18940E-05
  42.200      1.28540E-05
  43.000      1.37250E-05
  44.100      1.64820E-05
  45.100      1.87860E-05
  46.000      1.89470E-05
  47.000      2.18420E-05
  48.000      2.54550E-05
  49.000      2.57600E-05
  50.000      3.21420E-05
  50.600      3.95460E-05
  51.200      2.22370E-04
  52.000      2.09840E-04
  53.000      1.96790E-04
  54.000      1.88970E-04
  55.000      2.08360E-04
  56.000      2.74550E-04
  57.000      3.00480E-04
  58.000      2.89370E-04
  59.000      3.11220E-04
  60.000      2.45680E-04
  61.000      3.02080E-04
  62.000      3.71560E-04
  63.000      3.69310E-04
  64.000      3.84200E-04
  65.000      3.80600E-04
  65.800      3.10840E-04
  66.500      3.81550E-04
  67.500      4.36880E-04
  68.500      3.63950E-04
  69.500      4.59630E-04
  70.500      3.68270E-04
  71.600      5.06050E-04
  72.600      5.07190E-04
  73.500      5.20490E-04
  74.500      4.92830E-04
  75.500      5.03140E-04
  76.500      5.25000E-04
  77.500      5.49060E-04
  78.500      5.57130E-04
  79.500      5.78190E-04
  80.500      5.64360E-04
  81.500      5.76140E-04
  82.500      6.14230E-04
  83.500      5.13510E-04
  84.500      6.14710E-04
  85.500      6.16560E-04
  86.500      6.45630E-04
  87.500      6.56240E-04
  88.500      6.69940E-04
  89.500      6.82700E-04
  90.500      6.74200E-04
  91.500      6.39080E-04
  92.500      1.33760E-03
  93.500      2.05730E-03
  94.500      2.90840E-03
  95.500      3.37120E-03
  96.500      4.08970E-03
  97.500      2.09870E-03
  98.500      3.67540E-03
  99.500      3.28150E-03
  100.50      3.43320E-03
  101.50      3.63110E-03
  102.50      2.68820E-03
  103.50      3.65690E-03
  104.50      4.16870E-03
  105.50      4.06310E-03
  106.50      3.55790E-03
  107.50      3.77100E-03
  108.50      3.47580E-03
  109.50      3.83460E-03
  110.50      3.69450E-03
  111.50      3.69200E-03
  112.50      3.07430E-03
  113.50      3.64150E-03
  114.50      3.53020E-03
  115.50      3.35620E-03
  116.50      3.34320E-03
  117.50      2.51490E-03
  118.50      3.18180E-03
  119.50      3.09250E-03
  120.50      3.00080E-03
  121.50      2.24820E-03
  122.50      2.97450E-03
  123.50      3.20290E-03
  124.50      3.15600E-03
  125.50      3.18670E-03
  126.50      3.26470E-03
  127.50      3.35970E-03
  128.50      3.38810E-03
  129.50      3.20620E-03
  130.50      3.23750E-03
  131.50      3.40090E-03
  132.50      3.32260E-03
  133.50      3.28340E-03
  134.50      3.25810E-03
  135.50      3.25520E-03
  136.50      3.15750E-03
  137.50      3.11690E-03
  138.50      3.06040E-03
  139.50      2.51170E-03
  140.50      2.58210E-03
  141.50      3.03320E-03
  142.50      2.77450E-03
  143.50      2.96130E-03
  144.20      2.95380E-03
  144.70      2.95210E-03
  145.50      2.84930E-03
  146.50      2.83380E-03
  147.50      2.84630E-03
  148.50      2.88090E-03
  149.50      2.82480E-03
  150.50      2.78540E-03
  151.20      2.78460E-03
  151.70      2.79080E-03
  152.50      2.73120E-03
  153.50      2.46170E-03
  154.50      2.15100E-03
  155.50      2.18640E-03
  156.50      2.39380E-03
  157.50      2.50240E-03
  158.50      2.50690E-03
  159.50      2.54610E-03
  160.50      2.43210E-03
  161.50      2.35180E-03
  162.50      2.41270E-03
  163.50      2.42530E-03
  164.50      2.41460E-03
  165.50      2.48960E-03
  166.50      2.44490E-03
  167.20      2.31920E-03
  167.70      2.62050E-03
  168.50      2.54540E-03
  169.50      2.49530E-03
  170.50      2.47150E-03
  171.50      2.41520E-03
  172.50      2.33430E-03
  173.50      2.43380E-03
  174.50      2.43590E-03
  175.50      2.40910E-03
  176.50      2.38990E-03
  177.50      2.34780E-03
  178.50      2.38670E-03
  179.50      2.35120E-03
  180.50      2.36060E-03
  181.50      2.33150E-03
  182.50      2.30950E-03
  183.50      2.32470E-03
  184.50      2.25450E-03
  185.50      2.27270E-03
  186.50      2.28460E-03
  187.50      2.24330E-03
  188.50      2.18990E-03
  189.50      2.18480E-03
  190.50      2.22740E-03
  191.50      2.18580E-03
  192.50      2.08700E-03
  193.50      2.19100E-03
  194.50      2.21440E-03
  195.50      2.08190E-03
  196.70      2.15500E-03
  197.60      2.18900E-03
  198.40      2.14700E-03
  199.50      2.11280E-03
  200.50      2.15220E-03
  201.50      2.15190E-03
  202.50      2.14530E-03
  203.50      2.10540E-03
  204.50      2.08990E-03
  205.50      1.68380E-03
  206.50      1.62950E-03
  207.40      1.66720E-03
  207.80      1.66700E-03
  208.50      1.73810E-03
  209.50      1.85570E-03
  210.50      1.99290E-03
  211.50      2.03490E-03
  212.50      1.99640E-03
  213.50      2.00650E-03
  214.50      1.99230E-03
  215.50      1.99750E-03
  216.50      1.92120E-03
  217.50      1.98230E-03
  218.50      1.92510E-03
  219.50      1.97660E-03
  220.50      1.96470E-03
  221.50      1.88730E-03
  222.50      1.93660E-03
  223.50      1.92720E-03
  224.50      1.90990E-03
  225.50      1.84380E-03
  226.50      1.89060E-03
  227.50      1.88490E-03
  228.50      1.84330E-03
  229.50      1.73910E-03
  230.50      1.78100E-03
  231.50      1.80790E-03
  232.50      1.81400E-03
  233.50      1.80610E-03
  234.50      1.79520E-03
  235.50      1.77620E-03
  236.50      1.76200E-03
  237.50      1.73910E-03
  238.50      1.66470E-03
  239.50      1.70120E-03
  240.50      1.71510E-03
  241.50      1.69900E-03
  242.50      1.70100E-03
  243.50      1.68270E-03
  244.50      1.67770E-03
  245.50      1.66360E-03
  246.50      1.66010E-03
  247.50      1.64960E-03
  248.50      1.62030E-03
  249.50      1.28690E-03
  250.50      1.57280E-03
  251.30      1.50380E-03
  251.80      1.54410E-03
  252.50      1.59700E-03
  253.50      1.59710E-03
  254.50      1.57440E-03
  255.50      1.56930E-03
  256.50      1.55950E-03
  257.50      1.55750E-03
  258.50      1.55040E-03
  259.50      1.52940E-03
  260.50      1.53500E-03
  261.50      1.51700E-03
  262.50      1.51660E-03
  263.50      1.50960E-03
  264.50      1.49700E-03
  265.50      1.49140E-03
  266.50      1.47220E-03
  267.50      1.44770E-03
  268.50      1.46010E-03
  269.50      1.44450E-03
  270.50      1.44410E-03
  271.50      1.43330E-03
  272.50      1.42070E-03
  273.50      1.38750E-03
  274.50      1.41650E-03
  275.50      1.40620E-03
  276.50      1.39340E-03
  277.50      1.39670E-03
  278.50      1.38150E-03
  279.50      1.34690E-03
  280.50      1.36320E-03
  281.50      1.36420E-03
  282.50      1.35280E-03
  283.50      1.34020E-03
  284.50      1.34590E-03
  285.50      1.33370E-03
  286.50      1.32290E-03
  287.50      1.31620E-03
  288.50      1.31110E-03
  289.50      1.30070E-03
  291.00      1.28270E-03
  293.00      1.28130E-03
  295.00      1.26160E-03
  297.00      1.25060E-03
  299.00      1.22980E-03
  301.00      1.20980E-03
  303.00      1.19260E-03
  305.00      1.19190E-03
  307.00      1.18630E-03
  309.00      1.16500E-03
  311.00      1.16370E-03
  313.00      1.14620E-03
  315.00      1.13980E-03
  317.00      1.12630E-03
  319.00      1.11600E-03
  321.00      1.09540E-03
  323.00      1.09430E-03
  325.00      1.08850E-03
  327.00      1.06720E-03
  329.00      1.06350E-03
  331.00      1.05210E-03
  333.00      1.03930E-03
  335.00      1.02580E-03
  337.00      1.01870E-03
  339.00      1.01530E-03
  341.00      1.00480E-03
  343.00      9.98660E-04
  345.00      9.81930E-04
  347.00      9.77570E-04
  349.00      9.69380E-04
  351.00      9.61070E-04
  353.00      9.54610E-04
  355.00      9.44380E-04
  357.00      9.37760E-04
  359.00      9.25340E-04
  361.00      9.18710E-04
  363.00      9.08710E-04
  364.00      9.01900E-04
  365.00      8.60690E-04
  367.00      8.56060E-04
  369.00      8.48840E-04
  371.00      8.29390E-04
  373.00      8.29360E-04
  375.00      8.27370E-04
  377.00      8.14140E-04
  379.00      8.39270E-04
  381.00      8.64220E-04
  383.00      7.94960E-04
  385.00      8.78500E-04
  387.00      8.69610E-04
  389.00      7.64100E-04
  391.00      8.85610E-04
  393.00      8.75930E-04
  395.00      8.55250E-04
  397.00      7.31850E-04
  399.00      8.52980E-04
  401.00      8.51280E-04
  403.00      8.22240E-04
  405.00      8.44580E-04
  407.00      8.16880E-04
  409.00      7.68980E-04
  411.00      7.12400E-04
  413.00      8.01830E-04
  415.00      8.00830E-04
  417.00      8.04950E-04
  419.00      7.94290E-04
  421.00      7.84970E-04
  423.00      7.86790E-04
  425.00      7.72070E-04
  427.00      7.63540E-04
  429.00      7.55620E-04
  431.00      7.42100E-04
  433.00      6.96680E-04
  435.00      6.55830E-04
  437.00      7.29140E-04
  439.00      7.18610E-04
  441.00      7.20430E-04
  443.00      7.20930E-04
  445.00      7.13980E-04
  447.00      6.90560E-04
  449.00      7.03940E-04
  451.00      6.97060E-04
  453.00      6.94860E-04
  455.00      6.82150E-04
  457.00      6.85850E-04
  459.00      6.78130E-04
  461.00      6.70610E-04
  463.00      6.60730E-04
  465.00      6.36860E-04
  467.00      6.53360E-04
  469.00      6.40270E-04
  471.00      6.39120E-04
  473.00      6.49020E-04
  475.00      6.43100E-04
  477.00      6.40520E-04
  479.00      6.35600E-04
  481.00      6.28700E-04
  483.00      6.19850E-04
  485.00      5.86100E-04
  487.00      5.40140E-04
  489.00      6.05150E-04
  491.00      6.03690E-04
  493.00      5.91210E-04
  495.00      5.94780E-04
  497.00      5.95290E-04
  499.00      5.90960E-04
  501.00      5.77290E-04
  503.00      5.79380E-04
  505.00      5.75150E-04
  507.00      5.74410E-04
  509.00      5.69810E-04
  511.00      5.65710E-04
  513.00      5.61610E-04
  515.00      5.57720E-04
  517.00      5.53250E-04
  519.00      5.50130E-04
  521.00      5.46600E-04
  523.00      5.43030E-04
  525.00      5.38320E-04
  527.00      5.34150E-04
  529.00      5.32040E-04
  531.00      5.28240E-04
  533.00      5.24750E-04
  535.00      5.21310E-04
  537.00      5.17760E-04
  539.00      5.13920E-04
  541.00      5.03900E-04
  543.00      5.07460E-04
  545.00      5.04030E-04
  547.00      5.00620E-04
  549.00      4.97400E-04
  551.00      4.93880E-04
  553.00      4.90900E-04
  555.00      4.87890E-04
  557.00      4.84600E-04
  559.00      4.80180E-04
  561.00      4.78500E-04
  563.00      4.75440E-04
  565.00      4.72260E-04
  567.00      4.68790E-04
  569.00      4.60790E-04
  571.00      4.51250E-04
  573.00      4.48870E-04
  575.00      4.45500E-04
  577.00      4.43670E-04
  579.00      4.40870E-04
  581.00      4.37570E-04
  583.00      4.34770E-04
  585.00      4.33360E-04
  587.00      4.21720E-04
  589.00      4.28040E-04
  591.00      4.27010E-04
  593.00      4.25370E-04
  595.00      4.23720E-04
  597.00      4.22650E-04
  599.00      4.20840E-04
  601.00      4.19570E-04
  603.00      4.17670E-04
  605.00      4.16420E-04
  607.00      4.14390E-04
  609.00      4.12040E-04
  611.00      4.09410E-04
  613.00      4.07120E-04
  615.00      4.04120E-04
  617.00      4.01790E-04
  619.00      3.99930E-04
  621.00      3.97710E-04
  623.00      3.95260E-04
  625.00      3.92710E-04
  627.00      3.90640E-04
  629.00      3.88390E-04
  631.00      3.85760E-04
  633.00      3.83950E-04
  635.00      3.81420E-04
  637.00      3.79580E-04
  639.00      3.77390E-04
  641.00      3.74910E-04
  643.00      3.73110E-04
  645.00      3.70810E-04
  647.00      3.68220E-04
  649.00      3.66180E-04
  651.00      3.63270E-04
  653.00      3.59750E-04
  655.00      3.48710E-04
  657.00      3.17840E-04
  659.00      3.52810E-04
  661.00      3.53730E-04
  663.00      3.52560E-04
  665.00      3.50420E-04
  667.00      3.44510E-04
  669.00      3.42470E-04
  671.00      3.43860E-04
  673.00      3.42060E-04
  675.00      3.40770E-04
  677.00      3.39280E-04
  679.00      3.37070E-04
  681.00      3.35650E-04
  683.00      3.33700E-04
  685.00      3.31980E-04
  687.00      3.30060E-04
  689.00      3.26900E-04
  691.00      3.25730E-04
  693.00      3.25060E-04
  695.00      3.23310E-04
  697.00      3.21610E-04
  699.00      3.19830E-04
  701.00      3.17810E-04
  703.00      3.15950E-04
  705.00      3.14340E-04
  707.00      3.09130E-04
  709.00      3.11560E-04
  711.00      3.09760E-04
  713.00      3.08230E-04
  715.00      3.06760E-04
  717.00      3.04410E-04
  719.00      3.03090E-04
  721.00      3.02040E-04
  723.00      2.99330E-04
  725.00      2.98610E-04
  727.00      2.97420E-04
  729.00      2.94150E-04
  731.00      2.94260E-04
  733.00      2.92890E-04
  735.00      2.91390E-04
  737.00      2.89920E-04
  739.00      2.88500E-04
  741.00      2.87000E-04
  743.00      2.85620E-04
  745.00      2.84040E-04
  747.00      2.82240E-04
  749.00      2.80640E-04
  751.00      2.79890E-04
  753.00      2.78460E-04
  755.00      2.77220E-04
  757.00      2.75810E-04
  759.00      2.73000E-04
  761.00      2.72620E-04
  763.00      2.71670E-04
  765.00      2.70290E-04
  767.00      2.69150E-04
  769.00      2.67160E-04
  771.00      2.66320E-04
  773.00      2.64280E-04
  775.00      2.63950E-04
  777.00      2.62750E-04
  779.00      2.61510E-04
  781.00      2.60200E-04
  783.00      2.59010E-04
  785.00      2.57750E-04
  787.00      2.56130E-04
  789.00      2.54990E-04
  791.00      2.54170E-04
  793.00      2.52960E-04
  795.00      2.51890E-04
  797.00      2.50500E-04
  799.00      2.49440E-04
  801.00      2.48320E-04
  803.00      2.47060E-04
  805.00      2.46050E-04
  807.00      2.44880E-04
  809.00      2.43630E-04
  811.00      2.41650E-04
  813.00      2.41510E-04
  815.00      2.40220E-04
  817.00      2.39210E-04
  819.00      2.37180E-04
  821.00      2.33990E-04
  823.00      2.32190E-04
  825.00      2.31970E-04
  827.00      2.30220E-04
  829.00      2.30110E-04
  831.00      2.29330E-04
  833.00      2.27880E-04
  835.00      2.26400E-04
  837.00      2.25910E-04
  839.00      2.25330E-04
  841.00      2.24220E-04
  843.00      2.23350E-04
  845.00      2.21680E-04
  847.00      2.21470E-04
  849.00      2.20340E-04
  851.00      2.18960E-04
  853.00      2.18390E-04
  855.00      2.17490E-04
  857.00      2.17000E-04
  859.00      2.14320E-04
  861.00      2.14560E-04
  863.00      2.14900E-04
  865.00      2.12500E-04
  867.00      2.09790E-04
  869.00      2.12300E-04
  871.00      2.12360E-04
  873.00      2.09340E-04
  875.00      2.03320E-04
  877.00      2.06510E-04
  879.00      2.09440E-04
  881.00      2.09470E-04
  883.00      2.07520E-04
  885.00      2.00450E-04
  887.00      1.94630E-04
  889.00      2.03690E-04
  891.00      2.05510E-04
  893.00      2.05240E-04
  895.00      2.04460E-04
  897.00      2.03260E-04
  899.00      1.98970E-04
  901.00      1.86450E-04
  903.00      1.90800E-04
  905.00      1.98390E-04
  907.00      1.98070E-04
  909.00      1.98690E-04
  911.00      1.98570E-04
  913.00      1.97850E-04
  915.00      1.96990E-04
  917.00      1.95470E-04
  919.00      1.93730E-04
  921.00      1.87010E-04
  923.00      1.73300E-04
  925.00      1.85130E-04
  927.00      1.90280E-04
  929.00      1.90780E-04
  931.00      1.89970E-04
  933.00      1.89620E-04
  935.00      1.87370E-04
  937.00      1.88410E-04
  939.00      1.87780E-04
  941.00      1.86800E-04
  943.00      1.86180E-04
  945.00      1.85340E-04
  947.00      1.83730E-04
  949.00      1.83140E-04
  951.00      1.80130E-04
  953.00      1.73510E-04
  955.00      1.60750E-04
  957.00      1.74730E-04
  959.00      1.78710E-04
  961.00      1.78690E-04
  963.00      1.77800E-04
  965.00      1.78320E-04
  967.00      1.77740E-04
  969.00      1.76940E-04
  971.00      1.73930E-04
  973.00      1.75290E-04
  975.00      1.74950E-04
  977.00      1.74230E-04
  979.00      1.73560E-04
  981.00      1.72810E-04
  983.00      1.72190E-04
  985.00      1.71470E-04
  987.00      1.70870E-04
  989.00      1.69970E-04
  991.00      1.69030E-04
  993.00      1.68900E-04
  995.00      1.68270E-04
  997.00      1.67350E-04
  999.00      1.66330E-04
  1002.5      1.59010E-04
  1007.5      1.55640E-04
  1012.5      1.60540E-04
  1017.5      1.61250E-04
  1022.5      1.59640E-04
  1027.5      1.58220E-04
  1032.5      1.56230E-04
  1037.5      1.55360E-04
  1042.5      1.53880E-04
  1047.5      1.52530E-04
  1052.5      1.51120E-04
  1057.5      1.49780E-04
  1062.5      1.48420E-04
  1067.5      1.46940E-04
  1072.5      1.45780E-04
  1077.5      1.44480E-04
  1082.5      1.42050E-04
  1087.5      1.41210E-04
  1092.5      1.30630E-04
  1097.5      1.35910E-04
  1102.5      1.37480E-04
  1107.5      1.36940E-04
  1112.5      1.35850E-04
  1117.5      1.34730E-04
  1122.5      1.33530E-04
  1127.5      1.32420E-04
  1132.5      1.31200E-04
  1137.5      1.30150E-04
  1142.5      1.29080E-04
  1147.5      1.28000E-04
  1152.5      1.26970E-04
  1157.5      1.25890E-04
  1162.5      1.24340E-04
  1167.5      1.23550E-04
  1172.5      1.22840E-04
  1177.5      1.21830E-04
  1182.5      1.20770E-04
  1187.5      1.19830E-04
  1192.5      1.18870E-04
  1197.5      1.16740E-04
  1202.5      1.17000E-04
  1207.5      1.16030E-04
  1212.5      1.15070E-04
  1217.5      1.14220E-04
  1222.5      1.13320E-04
  1227.5      1.12440E-04
  1232.5      1.11540E-04
  1237.5      1.10680E-04
  1242.5      1.09840E-04
  1247.5      1.08960E-04
  1252.5      1.07940E-04
  1257.5      1.07280E-04
  1262.5      1.06470E-04
  1267.5      1.05690E-04
  1272.5      1.04750E-04
  1277.5      1.02210E-04
  1282.5      9.57210E-05
  1287.5      1.01650E-04
  1292.5      1.01680E-04
  1297.5      1.00470E-04
  1302.5      1.00190E-04
  1307.5      9.95250E-05
  1312.5      9.87930E-05
  1317.5      9.80680E-05
  1322.5      9.73520E-05
  1327.5      9.66440E-05
  1332.5      9.59310E-05
  1337.5      9.52030E-05
  1342.5      9.44900E-05
  1347.5      9.38640E-05
  1352.5      9.31570E-05
  1357.5      9.25400E-05
  1362.5      9.18010E-05
  1367.5      9.12350E-05
  1372.5      9.05150E-05
  1377.5      8.99610E-05
  1382.5      8.93320E-05
  1387.5      8.87070E-05
  1392.5      8.80440E-05
  1397.5      8.74760E-05
