 TLUSTY Ostars, Lanz & Hubeny 2003
 T 52500. G 4.50000 M10 TLUSTY
 Frequency   Eddington Hnu
   (Hz)    (ergs/s/cm2/Hz/sr)
 6.67944E+16  6.48500E-27
 6.67573E+16  6.50846E-27
 6.67202E+16  6.53987E-27
 6.66831E+16  6.57143E-27
 6.66461E+16  6.60315E-27
 6.66091E+16  6.63502E-27
 6.65721E+16  6.66704E-27
 6.65351E+16  6.69921E-27
 6.64982E+16  6.73154E-27
 6.64612E+16  6.76403E-27
 6.64243E+16  6.79668E-27
 6.63874E+16  6.82948E-27
 6.63506E+16  6.86244E-27
 6.63137E+16  6.89556E-27
 6.62769E+16  6.92884E-27
 6.62401E+16  6.96228E-27
 6.62033E+16  6.99588E-27
 6.61665E+16  7.02964E-27
 6.61298E+16  7.06357E-27
 6.60930E+16  7.09766E-27
 6.60563E+16  7.13191E-27
 6.60196E+16  7.16633E-27
 6.59830E+16  7.20092E-27
 6.59463E+16  7.23567E-27
 6.59097E+16  7.27059E-27
 6.58731E+16  7.30568E-27
 6.58365E+16  7.34094E-27
 6.57999E+16  7.37637E-27
 6.57634E+16  7.41196E-27
 6.57269E+16  7.44774E-27
 6.56904E+16  7.48368E-27
 6.56539E+16  7.51980E-27
 6.56174E+16  7.55609E-27
 6.55810E+16  7.59256E-27
 6.55445E+16  7.62920E-27
 6.55081E+16  7.66602E-27
 6.54718E+16  7.70302E-27
 6.54354E+16  7.74019E-27
 6.53991E+16  7.77755E-27
 6.53627E+16  7.81508E-27
 6.53264E+16  7.85280E-27
 6.52901E+16  7.89070E-27
 6.52539E+16  7.92878E-27
 6.52176E+16  7.96705E-27
 6.51814E+16  8.00550E-27
 6.51452E+16  8.04413E-27
 6.51090E+16  8.08295E-27
 6.50729E+16  8.12196E-27
 6.50367E+16  8.16116E-27
 6.50006E+16  8.20055E-27
 6.49645E+16  8.24012E-27
 6.49284E+16  8.27989E-27
 6.48924E+16  8.31985E-27
 6.48563E+16  8.36001E-27
 6.48203E+16  8.40035E-27
 6.47843E+16  8.44089E-27
 6.47483E+16  8.48163E-27
 6.47124E+16  8.52256E-27
 6.46764E+16  8.56370E-27
 6.46405E+16  8.60503E-27
 6.46046E+16  8.64655E-27
 6.45687E+16  8.68828E-27
 6.45329E+16  8.73022E-27
 6.44970E+16  8.77235E-27
 6.44612E+16  8.81469E-27
 6.44254E+16  8.85723E-27
 6.43896E+16  8.89997E-27
 6.43539E+16  8.94293E-27
 6.43181E+16  8.98609E-27
 6.42824E+16  9.03403E-27
 6.42467E+16  9.09547E-27
 6.42110E+16  9.15817E-27
 6.41753E+16  9.22131E-27
 6.41397E+16  9.28488E-27
 6.41041E+16  9.34889E-27
 6.40685E+16  9.41334E-27
 6.40329E+16  9.47823E-27
 6.39973E+16  9.54357E-27
 6.39618E+16  9.60937E-27
 6.39263E+16  9.67561E-27
 6.38908E+16  9.74232E-27
 6.38553E+16  9.80948E-27
 6.38198E+16  9.87710E-27
 6.37844E+16  9.94520E-27
 6.37489E+16  1.00138E-26
 6.37135E+16  1.00828E-26
 6.36781E+16  1.01523E-26
 6.36428E+16  1.02223E-26
 6.36074E+16  1.02928E-26
 6.35721E+16  1.03637E-26
 6.35368E+16  1.04352E-26
 6.35015E+16  1.05071E-26
 6.34662E+16  1.05795E-26
 6.34310E+16  1.06525E-26
 6.33958E+16  1.07259E-26
 6.33605E+16  1.07999E-26
 6.33254E+16  1.08743E-26
 6.32902E+16  1.09493E-26
 6.32550E+16  1.10248E-26
 6.32199E+16  1.11008E-26
 6.31848E+16  1.11773E-26
 6.31497E+16  1.12543E-26
 6.31146E+16  1.13319E-26
 6.30796E+16  1.14101E-26
 6.30445E+16  1.14887E-26
 6.30095E+16  1.15679E-26
 6.29745E+16  1.16477E-26
 6.29395E+16  1.17280E-26
 6.29046E+16  1.18088E-26
 6.28697E+16  1.18902E-26
 6.28347E+16  1.19722E-26
 6.27998E+16  1.20547E-26
 6.27650E+16  1.21378E-26
 6.27301E+16  1.22215E-26
 6.26953E+16  1.23058E-26
 6.26604E+16  1.23906E-26
 6.26256E+16  1.24760E-26
 6.25909E+16  1.25620E-26
 6.25561E+16  1.26486E-26
 6.25213E+16  1.27358E-26
 6.24866E+16  1.28236E-26
 6.24519E+16  1.29120E-26
 6.24172E+16  1.30010E-26
 6.23826E+16  1.30907E-26
 6.23479E+16  1.31809E-26
 6.23133E+16  1.32718E-26
 6.22787E+16  1.33633E-26
 6.22441E+16  1.34554E-26
 6.22095E+16  1.35482E-26
 6.21750E+16  1.36416E-26
 6.21404E+16  1.37356E-26
 6.21059E+16  1.38303E-26
 6.20714E+16  1.39256E-26
 6.20370E+16  1.40216E-26
 6.20025E+16  1.41183E-26
 6.19681E+16  1.42156E-26
 6.19337E+16  1.43136E-26
 6.18993E+16  1.44123E-26
 6.18649E+16  1.45117E-26
 6.18305E+16  1.46117E-26
 6.17962E+16  1.47132E-26
 6.17619E+16  1.48504E-26
 6.17276E+16  1.50080E-26
 6.16933E+16  1.51673E-26
 6.16590E+16  1.53283E-26
 6.16248E+16  1.54909E-26
 6.15905E+16  1.56553E-26
 6.15563E+16  1.58215E-26
 6.15221E+16  1.59894E-26
 6.14880E+16  1.61590E-26
 6.14538E+16  1.63305E-26
 6.14197E+16  1.65038E-26
 6.13856E+16  1.66790E-26
 6.13515E+16  1.68560E-26
 6.13174E+16  1.70349E-26
 6.12834E+16  1.72156E-26
 6.12493E+16  1.73983E-26
 6.12153E+16  1.75830E-26
 6.11813E+16  1.77696E-26
 6.11473E+16  1.79581E-26
 6.11134E+16  1.81487E-26
 6.10794E+16  1.83413E-26
 6.10455E+16  1.85360E-26
 6.10116E+16  1.87327E-26
 6.09777E+16  1.89315E-26
 6.09438E+16  1.91324E-26
 6.09100E+16  1.93354E-26
 6.08762E+16  1.95406E-26
 6.08423E+16  1.97480E-26
 6.08086E+16  1.99575E-26
 6.07748E+16  2.01693E-26
 6.07410E+16  2.03834E-26
 6.07073E+16  2.05997E-26
 6.06736E+16  2.08183E-26
 6.06399E+16  2.10392E-26
 6.06062E+16  2.12625E-26
 6.05725E+16  2.14881E-26
 6.05389E+16  2.17162E-26
 6.05053E+16  2.19466E-26
 6.04717E+16  2.21795E-26
 6.04381E+16  2.24149E-26
 6.04045E+16  2.26528E-26
 6.03710E+16  2.28932E-26
 6.03374E+16  2.31361E-26
 6.03039E+16  2.33817E-26
 6.02704E+16  2.36298E-26
 6.02370E+16  2.38806E-26
 6.02035E+16  2.41340E-26
 6.01701E+16  2.43901E-26
 6.01366E+16  2.46489E-26
 6.01032E+16  2.49105E-26
 6.00699E+16  2.51749E-26
 6.00365E+16  2.54421E-26
 6.00032E+16  2.57121E-26
 5.99698E+16  2.59849E-26
 5.99365E+16  2.62607E-26
 5.99032E+16  2.65394E-26
 5.98700E+16  2.68210E-26
 5.98367E+16  2.71056E-26
 5.98035E+16  2.73933E-26
 5.97703E+16  2.76840E-26
 5.97371E+16  2.79778E-26
 5.97039E+16  2.82747E-26
 5.96707E+16  2.85747E-26
 5.96376E+16  2.88780E-26
 5.96045E+16  2.91845E-26
 5.95714E+16  2.94942E-26
 5.95383E+16  2.98072E-26
 5.95052E+16  3.01235E-26
 5.94722E+16  3.04432E-26
 5.94391E+16  3.07662E-26
 5.94061E+16  3.10927E-26
 5.93731E+16  3.14227E-26
 5.93402E+16  3.17562E-26
 5.93072E+16  3.20932E-26
 5.92743E+16  3.24775E-26
 5.92413E+16  3.30052E-26
 5.92084E+16  3.35522E-26
 5.91755E+16  3.41083E-26
 5.91427E+16  3.46735E-26
 5.91098E+16  3.52482E-26
 5.90770E+16  3.58324E-26
 5.90442E+16  3.64262E-26
 5.90114E+16  3.70299E-26
 5.89786E+16  3.76436E-26
 5.89459E+16  3.82675E-26
 5.89131E+16  3.89017E-26
 5.88804E+16  3.95465E-26
 5.88477E+16  4.02019E-26
 5.88150E+16  4.08681E-26
 5.87824E+16  4.15455E-26
 5.87497E+16  4.22340E-26
 5.87171E+16  4.29340E-26
 5.86845E+16  4.36455E-26
 5.86519E+16  4.43689E-26
 5.86193E+16  4.51042E-26
 5.85867E+16  4.58517E-26
 5.85542E+16  4.66116E-26
 5.85217E+16  4.73841E-26
 5.84892E+16  4.81694E-26
 5.84567E+16  4.89678E-26
 5.84242E+16  4.97793E-26
 5.83918E+16  5.06043E-26
 5.83594E+16  5.14430E-26
 5.83269E+16  5.22956E-26
 5.82945E+16  5.31623E-26
 5.82622E+16  5.40433E-26
 5.82298E+16  5.49390E-26
 5.81975E+16  5.58495E-26
 5.81651E+16  5.67751E-26
 5.81328E+16  5.77161E-26
 5.81006E+16  5.86726E-26
 5.80683E+16  5.96450E-26
 5.80360E+16  6.06335E-26
 5.80038E+16  6.16384E-26
 5.79716E+16  6.26600E-26
 5.79394E+16  6.36985E-26
 5.79072E+16  6.47541E-26
 5.78750E+16  6.58273E-26
 5.78429E+16  6.69183E-26
 5.78108E+16  6.80273E-26
 5.77787E+16  6.91548E-26
 5.77466E+16  7.03009E-26
 5.77145E+16  7.14660E-26
 5.76825E+16  7.26504E-26
 5.76504E+16  7.38545E-26
 5.76184E+16  7.50785E-26
 5.75864E+16  7.63228E-26
 5.75544E+16  7.75877E-26
 5.75224E+16  7.88736E-26
 5.74905E+16  8.01808E-26
 5.74586E+16  8.15096E-26
 5.74267E+16  8.28605E-26
 5.73948E+16  8.42338E-26
 5.73629E+16  8.56298E-26
 5.73310E+16  8.70490E-26
 5.72992E+16  8.84916E-26
 5.72674E+16  8.99582E-26
 5.72356E+16  9.14491E-26
 5.72038E+16  9.29647E-26
 5.71720E+16  9.45055E-26
 5.71402E+16  9.60717E-26
 5.71085E+16  9.76639E-26
 5.70768E+16  9.92825E-26
 5.70451E+16  1.00928E-25
 5.70134E+16  1.02601E-25
 5.69817E+16  1.04301E-25
 5.69501E+16  1.06030E-25
 5.69185E+16  1.07787E-25
 5.68869E+16  1.09573E-25
 5.68553E+16  1.11389E-25
 5.68237E+16  1.13235E-25
 5.67921E+16  1.15112E-25
 5.67606E+16  1.17357E-25
 5.67291E+16  1.20036E-25
 5.66975E+16  1.22778E-25
 5.66661E+16  1.25583E-25
 5.66346E+16  1.28452E-25
 5.66031E+16  1.31386E-25
 5.65717E+16  1.34388E-25
 5.65403E+16  1.37458E-25
 5.65089E+16  1.40598E-25
 5.64775E+16  1.43811E-25
 5.64461E+16  1.47096E-25
 5.64148E+16  1.50456E-25
 5.63834E+16  1.53894E-25
 5.63521E+16  1.57409E-25
 5.63208E+16  1.61006E-25
 5.62895E+16  1.64684E-25
 5.62583E+16  1.68446E-25
 5.62270E+16  1.72294E-25
 5.61958E+16  1.76231E-25
 5.61646E+16  1.80257E-25
 5.61334E+16  1.84375E-25
 5.61022E+16  1.88587E-25
 5.60711E+16  1.92895E-25
 5.60399E+16  1.97302E-25
 5.60088E+16  2.01809E-25
 5.59777E+16  2.06420E-25
 5.59466E+16  2.11136E-25
 5.59155E+16  2.15959E-25
 5.58845E+16  2.20893E-25
 5.58534E+16  2.25939E-25
 5.58224E+16  2.31101E-25
 5.57914E+16  2.36381E-25
 5.57604E+16  2.41781E-25
 5.57295E+16  2.47304E-25
 5.56985E+16  2.52954E-25
 5.56676E+16  2.58733E-25
 5.56367E+16  2.64644E-25
 5.56058E+16  2.70690E-25
 5.55749E+16  2.76874E-25
 5.55440E+16  2.83199E-25
 5.55132E+16  2.89669E-25
 5.54823E+16  2.96287E-25
 5.54515E+16  3.03056E-25
 5.54207E+16  3.09979E-25
 5.53899E+16  3.17061E-25
 5.53592E+16  3.24304E-25
 5.53284E+16  3.31713E-25
 5.52977E+16  3.39291E-25
 5.52670E+16  3.47043E-25
 5.52363E+16  3.54971E-25
 5.52056E+16  3.63081E-25
 5.51749E+16  3.71375E-25
 5.51443E+16  3.79860E-25
 5.51137E+16  3.88538E-25
 5.50831E+16  3.97414E-25
 5.50525E+16  4.06493E-25
 5.50219E+16  4.15780E-25
 5.49913E+16  4.25278E-25
 5.49608E+16  4.34994E-25
 5.49303E+16  4.44932E-25
 5.48998E+16  4.55096E-25
 5.48693E+16  4.65493E-25
 5.48388E+16  4.76128E-25
 5.48083E+16  4.87005E-25
 5.47779E+16  4.98131E-25
 5.47475E+16  5.09511E-25
 5.47171E+16  5.21151E-25
 5.46867E+16  5.33057E-25
 5.46563E+16  5.45235E-25
 5.46259E+16  5.57691E-25
 5.45956E+16  5.70432E-25
 5.45653E+16  5.83464E-25
 5.45350E+16  5.96794E-25
 5.45047E+16  6.10428E-25
 5.44744E+16  6.24373E-25
 5.44442E+16  6.38637E-25
 5.44139E+16  6.53227E-25
 5.43837E+16  6.68151E-25
 5.43535E+16  6.83415E-25
 5.43233E+16  6.99028E-25
 5.42931E+16  7.14998E-25
 5.42630E+16  7.32098E-25
 5.42328E+16  7.51456E-25
 5.42027E+16  7.71436E-25
 5.41726E+16  7.91948E-25
 5.41425E+16  8.13005E-25
 5.41125E+16  8.34622E-25
 5.40824E+16  8.56814E-25
 5.40524E+16  8.79596E-25
 5.40224E+16  9.02984E-25
 5.39923E+16  9.26993E-25
 5.39624E+16  9.51641E-25
 5.39324E+16  9.76944E-25
 5.39024E+16  1.00292E-24
 5.38725E+16  1.02959E-24
 5.38426E+16  1.05696E-24
 5.38127E+16  1.08507E-24
 5.37828E+16  1.11392E-24
 5.37529E+16  1.14354E-24
 5.37231E+16  1.17394E-24
 5.36932E+16  1.20515E-24
 5.36634E+16  1.23720E-24
 5.36336E+16  1.27009E-24
 5.36038E+16  1.30387E-24
 5.35740E+16  1.33853E-24
 5.35443E+16  1.37412E-24
 5.35145E+16  1.41066E-24
 5.34848E+16  1.44817E-24
 5.34551E+16  1.48667E-24
 5.34254E+16  1.52620E-24
 5.33958E+16  1.56678E-24
 5.33661E+16  1.60844E-24
 5.33365E+16  1.65121E-24
 5.33068E+16  1.69511E-24
 5.32772E+16  1.74019E-24
 5.32476E+16  1.78646E-24
 5.32181E+16  1.83396E-24
 5.31885E+16  1.88272E-24
 5.31590E+16  1.93278E-24
 5.31294E+16  1.98417E-24
 5.30999E+16  2.03693E-24
 5.30704E+16  2.09109E-24
 5.30410E+16  2.14669E-24
 5.30115E+16  2.20377E-24
 5.29821E+16  2.26236E-24
 5.29526E+16  2.32252E-24
 5.29232E+16  2.38427E-24
 5.28938E+16  2.44767E-24
 5.28645E+16  2.51275E-24
 5.28351E+16  2.57956E-24
 5.28058E+16  2.64815E-24
 5.27764E+16  2.71856E-24
 5.27471E+16  2.79084E-24
 5.27178E+16  2.86505E-24
 5.26885E+16  2.94123E-24
 5.26593E+16  3.01943E-24
 5.26300E+16  3.09971E-24
 5.26008E+16  3.18213E-24
 5.25716E+16  3.26674E-24
 5.25424E+16  3.35360E-24
 5.25132E+16  3.44277E-24
 5.24840E+16  3.53431E-24
 5.24549E+16  3.62829E-24
 5.24258E+16  3.72476E-24
 5.23966E+16  3.82380E-24
 5.23675E+16  3.92547E-24
 5.23385E+16  4.02984E-24
 5.23094E+16  4.13699E-24
 5.22803E+16  4.24699E-24
 5.22513E+16  4.35991E-24
 5.22223E+16  4.47584E-24
 5.21933E+16  4.59485E-24
 5.21643E+16  4.71702E-24
 5.21353E+16  4.84244E-24
 5.21064E+16  4.97120E-24
 5.20774E+16  5.10338E-24
 5.20485E+16  5.23907E-24
 5.20196E+16  5.37837E-24
 5.19907E+16  5.52138E-24
 5.19618E+16  5.66819E-24
 5.19330E+16  5.81890E-24
 5.19041E+16  5.97362E-24
 5.18753E+16  6.13245E-24
 5.18465E+16  6.29551E-24
 5.18177E+16  6.46290E-24
 5.17889E+16  6.63474E-24
 5.17601E+16  6.81328E-24
 5.17314E+16  7.00209E-24
 5.17027E+16  7.19676E-24
 5.16739E+16  7.39683E-24
 5.16452E+16  7.60247E-24
 5.16166E+16  7.81383E-24
 5.15879E+16  8.03106E-24
 5.15592E+16  8.25433E-24
 5.15306E+16  8.48380E-24
 5.15020E+16  8.71966E-24
 5.14734E+16  8.96208E-24
 5.14448E+16  9.21123E-24
 5.14162E+16  9.46731E-24
 5.13877E+16  9.73051E-24
 5.13591E+16  1.00010E-23
 5.13306E+16  1.02791E-23
 5.13021E+16  1.05648E-23
 5.12736E+16  1.08585E-23
 5.12451E+16  1.11604E-23
 5.12167E+16  1.14707E-23
 5.11882E+16  1.17896E-23
 5.11598E+16  1.21173E-23
 5.11314E+16  1.24542E-23
 5.11030E+16  1.28005E-23
 5.10746E+16  1.31563E-23
 5.10462E+16  1.35221E-23
 5.10179E+16  1.38980E-23
 5.09895E+16  1.42844E-23
 5.09612E+16  1.46815E-23
 5.09329E+16  1.50897E-23
 5.09046E+16  1.55092E-23
 5.08764E+16  1.59403E-23
 5.08481E+16  1.63835E-23
 5.08199E+16  1.68390E-23
 5.07916E+16  1.73071E-23
 5.07634E+16  1.77882E-23
 5.07352E+16  1.82828E-23
 5.07071E+16  1.87910E-23
 5.06789E+16  1.93135E-23
 5.06507E+16  1.98504E-23
 5.06226E+16  2.04022E-23
 5.05945E+16  2.09694E-23
 5.05664E+16  2.15524E-23
 5.05383E+16  2.21516E-23
 5.05102E+16  2.27674E-23
 5.04822E+16  2.34004E-23
 5.04542E+16  2.40509E-23
 5.04261E+16  2.47196E-23
 5.03981E+16  2.54068E-23
 5.03701E+16  2.61131E-23
 5.03422E+16  2.68391E-23
 5.03142E+16  2.75852E-23
 5.02863E+16  2.83521E-23
 5.02583E+16  2.91403E-23
 5.02304E+16  2.99505E-23
 5.02025E+16  3.07831E-23
 5.01746E+16  3.16389E-23
 5.01468E+16  3.25185E-23
 5.01189E+16  3.34225E-23
 5.00911E+16  3.43517E-23
 5.00633E+16  3.53067E-23
 5.00354E+16  3.62883E-23
 5.00077E+16  3.72971E-23
 4.99799E+16  3.83340E-23
 4.99521E+16  3.93997E-23
 4.99244E+16  4.04951E-23
 4.98967E+16  4.16209E-23
 4.98689E+16  4.27780E-23
 4.98412E+16  4.39673E-23
 4.98136E+16  4.51896E-23
 4.97859E+16  4.64459E-23
 4.97582E+16  4.77371E-23
 4.97306E+16  4.90643E-23
 4.97030E+16  5.04283E-23
 4.96754E+16  5.18302E-23
 4.96478E+16  5.32712E-23
 4.96202E+16  5.47522E-23
 4.95927E+16  5.62743E-23
 4.95651E+16  5.78388E-23
 4.95376E+16  5.94468E-23
 4.95101E+16  6.10994E-23
 4.94826E+16  6.27980E-23
 4.94551E+16  6.45439E-23
 4.94276E+16  6.63383E-23
 4.94002E+16  6.81825E-23
 4.93727E+16  7.00780E-23
 4.93453E+16  7.20263E-23
 4.93179E+16  7.40287E-23
 4.92905E+16  7.60867E-23
 4.92631E+16  7.82034E-23
 4.92358E+16  8.03655E-23
 4.92084E+16  8.25879E-23
 4.91811E+16  8.48717E-23
 4.91538E+16  8.72187E-23
 4.91265E+16  8.96306E-23
 4.90992E+16  9.21092E-23
 4.90719E+16  9.46563E-23
 4.90447E+16  9.72739E-23
 4.90174E+16  9.99638E-23
 4.89902E+16  1.02728E-22
 4.89630E+16  1.05569E-22
 4.89358E+16  1.08488E-22
 4.89086E+16  1.11488E-22
 4.88815E+16  1.14571E-22
 4.88543E+16  1.17740E-22
 4.88272E+16  1.20995E-22
 4.88001E+16  1.24341E-22
 4.87730E+16  1.27780E-22
 4.87459E+16  1.31313E-22
 4.87188E+16  1.34945E-22
 4.86918E+16  1.38676E-22
 4.86647E+16  1.42511E-22
 4.86377E+16  1.46452E-22
 4.86107E+16  1.50502E-22
 4.85837E+16  1.54664E-22
 4.85567E+16  1.58941E-22
 4.85297E+16  1.63336E-22
 4.85028E+16  1.67853E-22
 4.84758E+16  1.72495E-22
 4.84489E+16  1.77265E-22
 4.84220E+16  1.82167E-22
 4.83951E+16  1.87204E-22
 4.83682E+16  1.92381E-22
 4.83414E+16  1.97701E-22
 4.83145E+16  2.03168E-22
 4.82877E+16  2.08786E-22
 4.82609E+16  2.14560E-22
 4.82341E+16  2.20493E-22
 4.82073E+16  2.26590E-22
 4.81805E+16  2.32856E-22
 4.81537E+16  2.39296E-22
 4.81270E+16  2.45913E-22
 4.81003E+16  2.52713E-22
 4.80735E+16  2.59702E-22
 4.80468E+16  2.66883E-22
 4.80202E+16  2.74264E-22
 4.79935E+16  2.81848E-22
 4.79668E+16  2.89642E-22
 4.79402E+16  2.97651E-22
 4.79136E+16  3.05882E-22
 4.78870E+16  3.14341E-22
 4.78604E+16  3.23034E-22
 4.78338E+16  3.31967E-22
 4.78072E+16  3.41147E-22
 4.77807E+16  3.50581E-22
 4.77541E+16  3.60275E-22
 4.77276E+16  3.70238E-22
 4.77011E+16  3.80476E-22
 4.76746E+16  3.90998E-22
 4.76481E+16  4.01810E-22
 4.76217E+16  4.12922E-22
 4.75952E+16  4.24340E-22
 4.75688E+16  4.36075E-22
 4.75424E+16  4.48134E-22
 4.75159E+16  4.60526E-22
 4.74896E+16  4.73261E-22
 4.74632E+16  4.86348E-22
 4.74368E+16  4.99797E-22
 4.74105E+16  5.13618E-22
 4.73841E+16  5.27822E-22
 4.73578E+16  5.42418E-22
 4.73315E+16  5.57417E-22
 4.73052E+16  5.72832E-22
 4.72790E+16  5.88673E-22
 4.72527E+16  6.04951E-22
 4.72265E+16  6.21680E-22
 4.72002E+16  6.38872E-22
 4.71740E+16  6.56539E-22
 4.71478E+16  6.74694E-22
 4.71216E+16  6.93352E-22
 4.70955E+16  7.12525E-22
 4.70693E+16  7.32229E-22
 4.70432E+16  7.52477E-22
 4.70170E+16  7.73286E-22
 4.69909E+16  7.94670E-22
 4.69648E+16  8.16645E-22
 4.69387E+16  8.39228E-22
 4.69127E+16  8.62435E-22
 4.68866E+16  8.86285E-22
 4.68606E+16  9.10793E-22
 4.68345E+16  9.35980E-22
 4.68085E+16  9.61863E-22
 4.67825E+16  9.88461E-22
 4.67566E+16  1.01573E-21
 4.67306E+16  1.04309E-21
 4.67046E+16  1.07111E-21
 4.66787E+16  1.09987E-21
 4.66528E+16  1.12941E-21
 4.66269E+16  1.15975E-21
 4.66010E+16  1.19089E-21
 4.65751E+16  1.22288E-21
 4.65492E+16  1.25572E-21
 4.65234E+16  1.28945E-21
 4.64975E+16  1.32408E-21
 4.64717E+16  1.35964E-21
 4.64459E+16  1.39616E-21
 4.64201E+16  1.43365E-21
 4.63943E+16  1.47216E-21
 4.63685E+16  1.51170E-21
 4.63428E+16  1.55230E-21
 4.63170E+16  1.59399E-21
 4.62913E+16  1.63680E-21
 4.62656E+16  1.68076E-21
 4.62399E+16  1.72590E-21
 4.62142E+16  1.77225E-21
 4.61886E+16  1.81985E-21
 4.61629E+16  1.86873E-21
 4.61373E+16  1.91891E-21
 4.61116E+16  1.97045E-21
 4.60860E+16  2.02337E-21
 4.60604E+16  2.07772E-21
 4.60349E+16  2.13352E-21
 4.60093E+16  2.19082E-21
 4.59837E+16  2.24966E-21
 4.59582E+16  2.31008E-21
 4.59327E+16  2.37212E-21
 4.59072E+16  2.43583E-21
 4.58817E+16  2.50125E-21
 4.58562E+16  2.56843E-21
 4.58307E+16  2.63741E-21
 4.58053E+16  2.70824E-21
 4.57798E+16  2.78098E-21
 4.57544E+16  2.85567E-21
 4.57290E+16  2.93236E-21
 4.57036E+16  3.01112E-21
 4.56782E+16  3.09199E-21
 4.56528E+16  3.17503E-21
 4.56275E+16  3.26031E-21
 4.56021E+16  3.34787E-21
 4.55768E+16  3.43778E-21
 4.55515E+16  3.53011E-21
 4.55262E+16  3.62492E-21
 4.55009E+16  3.72228E-21
 4.54756E+16  3.82225E-21
 4.54504E+16  3.92491E-21
 4.54251E+16  4.03032E-21
 4.53999E+16  4.13856E-21
 4.53747E+16  4.24971E-21
 4.53495E+16  4.36385E-21
 4.53243E+16  4.48105E-21
 4.52991E+16  4.60140E-21
 4.52740E+16  4.72498E-21
 4.52488E+16  4.85188E-21
 4.52237E+16  4.98219E-21
 4.51986E+16  5.11600E-21
 4.51735E+16  5.25340E-21
 4.51484E+16  5.39450E-21
 4.51233E+16  5.53938E-21
 4.50983E+16  5.68815E-21
 4.50732E+16  5.84092E-21
 4.50482E+16  5.99779E-21
 4.50232E+16  6.15888E-21
 4.49981E+16  6.32429E-21
 4.49732E+16  6.49414E-21
 4.49482E+16  6.66856E-21
 4.49232E+16  6.84766E-21
 4.48983E+16  7.03157E-21
 4.48733E+16  7.22042E-21
 4.48484E+16  7.41434E-21
 4.48235E+16  7.61347E-21
 4.47986E+16  7.81795E-21
 4.47737E+16  8.02792E-21
 4.47489E+16  8.24352E-21
 4.47240E+16  8.46492E-21
 4.46992E+16  8.69227E-21
 4.46743E+16  8.92572E-21
 4.46495E+16  9.16544E-21
 4.46247E+16  9.41160E-21
 4.45999E+16  9.66437E-21
 4.45752E+16  9.92393E-21
 4.45504E+16  1.01905E-20
 4.45257E+16  1.04642E-20
 4.45009E+16  1.07452E-20
 4.44762E+16  1.10338E-20
 4.44515E+16  1.13301E-20
 4.44268E+16  1.16344E-20
 4.44022E+16  1.19469E-20
 4.43775E+16  1.22678E-20
 4.43528E+16  1.25972E-20
 4.43282E+16  1.29356E-20
 4.43036E+16  1.32830E-20
 4.42790E+16  1.36397E-20
 4.42544E+16  1.40053E-20
 4.42298E+16  1.43682E-20
 4.42053E+16  1.47376E-20
 4.41807E+16  1.51165E-20
 4.41562E+16  1.55052E-20
 4.41316E+16  1.59039E-20
 4.41071E+16  1.63128E-20
 4.40826E+16  1.67322E-20
 4.40581E+16  1.71624E-20
 4.40337E+16  1.76037E-20
 4.40092E+16  1.80563E-20
 4.39848E+16  1.85206E-20
 4.39604E+16  1.89968E-20
 4.39359E+16  1.94852E-20
 4.39115E+16  1.99862E-20
 4.38871E+16  2.05001E-20
 4.38628E+16  2.10272E-20
 4.38384E+16  2.15678E-20
 4.38141E+16  2.21223E-20
 4.37897E+16  2.26911E-20
 4.37654E+16  2.32746E-20
 4.37411E+16  2.38730E-20
 4.37168E+16  2.44868E-20
