 Castelli and Kurucz 2004-2012 Atmosphere
 T     44000.     G    4.50000 [-2.0a] N(He)/Ntot=0.0784 VTURB=2.0  L/H=1.25 OD
 Wavelength  Eddington Hnu
   (nm)    (ergs/s/cm2/Hz/sr)
  9.0900      3.36150E-21
  9.3500      1.02670E-20
  9.6100      2.96000E-20
  9.7700      5.54480E-20
  9.9600      1.13890E-19
  10.200      2.73000E-19
  10.380      5.13990E-19
  10.560      9.49660E-19
  10.770      1.89770E-18
  11.040      4.46120E-18
  11.400      1.31790E-17
  11.780      3.88710E-17
  12.130      9.98770E-17
  12.480      2.44830E-16
  12.710      4.31260E-16
  12.840      5.89340E-16
  13.050      9.64550E-16
  13.240      1.48860E-15
  13.390      2.08120E-15
  13.660      3.74600E-15
  13.980      7.33660E-15
  14.330      1.48410E-14
  14.720      3.13530E-14
  15.100      6.32310E-14
  15.520      1.32180E-13
  15.880      2.41940E-13
  16.200      4.06570E-13
  16.600      7.57850E-13
  17.030      1.43480E-12
  17.340      2.23400E-12
  17.680      3.57700E-12
  18.020      5.62710E-12
  18.170      6.81790E-12
  18.610      1.19190E-11
  19.100      2.14940E-11
  19.390      3.00910E-11
  19.840      4.97410E-11
  20.180      7.16970E-11
  20.500      1.00080E-10
  21.050      1.73510E-10
  21.620      2.98020E-10
  21.980      4.13660E-10
  22.300      5.48520E-10
  22.680      7.58210E-10
  23.000      6.36020E-08
  23.400      2.84670E-07
  24.000      2.31550E-06
  24.650      2.54790E-05
  25.240      6.39430E-05
  25.680      4.48200E-05
  26.000      1.18790E-04
  26.400      1.76420E-04
  26.850      2.14320E-04
  27.350      2.61960E-04
  27.850      2.66040E-04
  28.400      3.31990E-04
  29.000      3.77230E-04
  29.600      3.18020E-04
  30.100      9.90500E-05
  30.800      1.95440E-04
  31.800      3.06770E-04
  32.800      3.61920E-04
  33.800      3.50890E-04
  34.800      3.72860E-04
  35.700      5.00000E-04
  36.600      5.95420E-04
  37.500      6.44800E-04
  38.500      6.22670E-04
  39.500      7.37730E-04
  40.500      8.21060E-04
  41.400      8.57890E-04
  42.200      8.57890E-04
  43.000      8.73030E-04
  44.100      9.57120E-04
  45.100      9.97680E-04
  46.000      9.91620E-04
  47.000      1.02220E-03
  48.000      1.07740E-03
  49.000      1.05610E-03
  50.000      1.14910E-03
  50.600      1.15010E-03
  51.200      1.36920E-03
  52.000      1.37420E-03
  53.000      1.40600E-03
  54.000      1.35880E-03
  55.000      1.32900E-03
  56.000      1.49610E-03
  57.000      1.55960E-03
  58.000      1.56550E-03
  59.000      1.62000E-03
  60.000      1.60340E-03
  61.000      1.56960E-03
  62.000      1.68370E-03
  63.000      1.68540E-03
  64.000      1.75200E-03
  65.000      1.74550E-03
  65.800      1.71320E-03
  66.500      1.79660E-03
  67.500      1.83970E-03
  68.500      1.80230E-03
  69.500      1.88580E-03
  70.500      1.82530E-03
  71.600      1.93150E-03
  72.600      1.96630E-03
  73.500      1.98570E-03
  74.500      1.98580E-03
  75.500      1.99280E-03
  76.500      1.98420E-03
  77.500      2.03880E-03
  78.500      2.02540E-03
  79.500      2.06160E-03
  80.500      2.08780E-03
  81.500      2.11060E-03
  82.500      2.13590E-03
  83.500      2.07240E-03
  84.500      2.15760E-03
  85.500      2.15120E-03
  86.500      2.19340E-03
  87.500      2.21450E-03
  88.500      2.21980E-03
  89.500      2.22940E-03
  90.500      2.21900E-03
  91.500      1.80350E-03
  92.500      3.05260E-03
  93.500      3.86190E-03
  94.500      4.59230E-03
  95.500      4.95920E-03
  96.500      5.45630E-03
  97.500      4.57350E-03
  98.500      5.36280E-03
  99.500      5.09570E-03
  100.50      5.34580E-03
  101.50      5.32690E-03
  102.50      4.55120E-03
  103.50      5.28550E-03
  104.50      5.30120E-03
  105.50      5.27650E-03
  106.50      5.16850E-03
  107.50      5.16850E-03
  108.50      4.96670E-03
  109.50      5.14620E-03
  110.50      5.09050E-03
  111.50      5.04620E-03
  112.50      4.96650E-03
  113.50      5.01180E-03
  114.50      4.98070E-03
  115.50      4.91000E-03
  116.50      4.87660E-03
  117.50      4.66870E-03
  118.50      4.82920E-03
  119.50      4.77770E-03
  120.50      4.75670E-03
  121.50      4.06330E-03
  122.50      4.69120E-03
  123.50      4.63190E-03
  124.50      4.59530E-03
  125.50      4.61770E-03
  126.50      4.58600E-03
  127.50      4.55540E-03
  128.50      4.52420E-03
  129.50      4.49230E-03
  130.50      4.45510E-03
  131.50      4.42680E-03
  132.50      4.38810E-03
  133.50      4.36540E-03
  134.50      4.33890E-03
  135.50      4.29560E-03
  136.50      4.24960E-03
  137.50      4.19010E-03
  138.50      4.19470E-03
  139.50      4.13320E-03
  140.50      4.07420E-03
  141.50      4.11580E-03
  142.50      4.07960E-03
  143.50      4.06220E-03
  144.20      4.02080E-03
  144.70      4.01250E-03
  145.50      3.98520E-03
  146.50      3.96100E-03
  147.50      3.94330E-03
  148.50      3.93000E-03
  149.50      3.89770E-03
  150.50      3.87560E-03
  151.20      3.86030E-03
  151.70      3.83940E-03
  152.50      3.82210E-03
  153.50      3.78090E-03
  154.50      3.66240E-03
  155.50      3.65120E-03
  156.50      3.69790E-03
  157.50      3.68310E-03
  158.50      3.65170E-03
  159.50      3.63020E-03
  160.50      3.59300E-03
  161.50      3.56970E-03
  162.50      3.53190E-03
  163.50      3.45840E-03
  164.50      3.31320E-03
  165.50      3.48200E-03
  166.50      3.46050E-03
  167.20      3.43040E-03
  167.70      3.43700E-03
  168.50      3.41800E-03
  169.50      3.39610E-03
  170.50      3.37050E-03
  171.50      3.31440E-03
  172.50      3.31000E-03
  173.50      3.30650E-03
  174.50      3.28200E-03
  175.50      3.25820E-03
  176.50      3.23850E-03
  177.50      3.21800E-03
  178.50      3.19750E-03
  179.50      3.17430E-03
  180.50      3.15370E-03
  181.50      3.13280E-03
  182.50      3.11190E-03
  183.50      3.09190E-03
  184.50      3.07120E-03
  185.50      3.05000E-03
  186.50      3.02980E-03
  187.50      3.00940E-03
  188.50      2.98960E-03
  189.50      2.97170E-03
  190.50      2.95230E-03
  191.50      2.93250E-03
  192.50      2.90910E-03
  193.50      2.89480E-03
  194.50      2.87600E-03
  195.50      2.85690E-03
  196.70      2.83510E-03
  197.60      2.81810E-03
  198.40      2.80410E-03
  199.50      2.78400E-03
  200.50      2.76650E-03
  201.50      2.74880E-03
  202.50      2.73120E-03
  203.50      2.71380E-03
  204.50      2.69540E-03
  205.50      2.10350E-03
  206.50      2.04460E-03
  207.40      2.09660E-03
  207.80      2.14980E-03
  208.50      2.30320E-03
  209.50      2.54430E-03
  210.50      2.59680E-03
  211.50      2.58940E-03
  212.50      2.57400E-03
  213.50      2.55410E-03
  214.50      2.54330E-03
  215.50      2.56790E-03
  216.50      2.49320E-03
  217.50      2.55300E-03
  218.50      2.46490E-03
  219.50      2.52100E-03
  220.50      2.50830E-03
  221.50      2.41840E-03
  222.50      2.47690E-03
  223.50      2.46270E-03
  224.50      2.44600E-03
  225.50      2.36300E-03
  226.50      2.41760E-03
  227.50      2.40320E-03
  228.50      2.38750E-03
  229.50      2.36160E-03
  230.50      2.29480E-03
  231.50      2.34350E-03
  232.50      2.33140E-03
  233.50      2.31750E-03
  234.50      2.30360E-03
  235.50      2.28980E-03
  236.50      2.27620E-03
  237.50      2.26240E-03
  238.50      2.18750E-03
  239.50      2.23270E-03
  240.50      2.22220E-03
  241.50      2.20860E-03
  242.50      2.19680E-03
  243.50      2.18370E-03
  244.50      2.17110E-03
  245.50      2.15710E-03
  246.50      2.14590E-03
  247.50      2.13370E-03
  248.50      2.12120E-03
  249.50      2.06790E-03
  250.50      2.09060E-03
  251.30      1.96650E-03
  251.80      2.07430E-03
  252.50      2.07120E-03
  253.50      2.06120E-03
  254.50      2.04950E-03
  255.50      2.03780E-03
  256.50      2.02640E-03
  257.50      2.01490E-03
  258.50      2.00360E-03
  259.50      1.99030E-03
  260.50      1.98140E-03
  261.50      1.96960E-03
  262.50      1.95940E-03
  263.50      1.94860E-03
  264.50      1.93760E-03
  265.50      1.92700E-03
  266.50      1.91620E-03
  267.50      1.90440E-03
  268.50      1.89510E-03
  269.50      1.88440E-03
  270.50      1.87470E-03
  271.50      1.86450E-03
  272.50      1.85360E-03
  273.50      1.79670E-03
  274.50      1.83430E-03
  275.50      1.82430E-03
  276.50      1.81380E-03
  277.50      1.80470E-03
  278.50      1.79480E-03
  279.50      1.78500E-03
  280.50      1.77590E-03
  281.50      1.76640E-03
  282.50      1.75610E-03
  283.50      1.74750E-03
  284.50      1.73860E-03
  285.50      1.72950E-03
  286.50      1.72040E-03
  287.50      1.71130E-03
  288.50      1.70240E-03
  289.50      1.69340E-03
  291.00      1.68020E-03
  293.00      1.66290E-03
  295.00      1.64510E-03
  297.00      1.62870E-03
  299.00      1.61150E-03
  301.00      1.59560E-03
  303.00      1.57870E-03
  305.00      1.56300E-03
  307.00      1.54750E-03
  309.00      1.53270E-03
  311.00      1.51750E-03
  313.00      1.50240E-03
  315.00      1.48800E-03
  317.00      1.47340E-03
  319.00      1.45770E-03
  321.00      1.42480E-03
  323.00      1.43120E-03
  325.00      1.41740E-03
  327.00      1.40230E-03
  329.00      1.39030E-03
  331.00      1.37720E-03
  333.00      1.36430E-03
  335.00      1.35090E-03
  337.00      1.33890E-03
  339.00      1.32640E-03
  341.00      1.31390E-03
  343.00      1.30230E-03
  345.00      1.28980E-03
  347.00      1.27860E-03
  349.00      1.26690E-03
  351.00      1.25540E-03
  353.00      1.24380E-03
  355.00      1.23250E-03
  357.00      1.22200E-03
  359.00      1.21050E-03
  361.00      1.20000E-03
  363.00      1.18890E-03
  364.00      1.16240E-03
  365.00      1.07020E-03
  367.00      1.06230E-03
  369.00      1.05690E-03
  371.00      1.05840E-03
  373.00      1.06500E-03
  375.00      1.08100E-03
  377.00      1.09190E-03
  379.00      1.10510E-03
  381.00      1.11670E-03
  383.00      1.07410E-03
  385.00      1.11110E-03
  387.00      1.11390E-03
  389.00      1.03970E-03
  391.00      1.09870E-03
  393.00      1.08280E-03
  395.00      1.08200E-03
  397.00      1.00380E-03
  399.00      1.06330E-03
  401.00      1.05840E-03
  403.00      1.03210E-03
  405.00      1.04210E-03
  407.00      1.03310E-03
  409.00      1.00680E-03
  411.00      9.59330E-04
  413.00      1.00690E-03
  415.00      9.99450E-04
  417.00      9.92100E-04
  419.00      9.80480E-04
  421.00      9.63770E-04
  423.00      9.68510E-04
  425.00      9.60800E-04
  427.00      9.53190E-04
  429.00      9.45660E-04
  431.00      9.37640E-04
  433.00      9.08610E-04
  435.00      8.78790E-04
  437.00      9.15490E-04
  439.00      9.07780E-04
  441.00      9.02220E-04
  443.00      8.95220E-04
  445.00      8.88450E-04
  447.00      8.76780E-04
  449.00      8.74930E-04
  451.00      8.68320E-04
  453.00      8.60760E-04
  455.00      8.42480E-04
  457.00      8.48860E-04
  459.00      8.42520E-04
  461.00      8.36240E-04
  463.00      8.29870E-04
  465.00      8.23270E-04
  467.00      8.17140E-04
  469.00      7.87130E-04
  471.00      8.04930E-04
  473.00      8.00030E-04
  475.00      7.94230E-04
  477.00      7.88480E-04
  479.00      7.82790E-04
  481.00      7.77160E-04
  483.00      7.71280E-04
  485.00      7.52780E-04
  487.00      7.19940E-04
  489.00      7.54260E-04
  491.00      7.49930E-04
  493.00      7.42600E-04
  495.00      7.39440E-04
  497.00      7.34270E-04
  499.00      7.29160E-04
  501.00      7.23060E-04
  503.00      7.19090E-04
  505.00      7.13930E-04
  507.00      7.09230E-04
  509.00      7.04380E-04
  511.00      6.99580E-04
  513.00      6.94820E-04
  515.00      6.90110E-04
  517.00      6.85450E-04
  519.00      6.80830E-04
  521.00      6.76260E-04
  523.00      6.71740E-04
  525.00      6.67250E-04
  527.00      6.62790E-04
  529.00      6.58430E-04
  531.00      6.54080E-04
  533.00      6.49770E-04
  535.00      6.45510E-04
  537.00      6.41290E-04
  539.00      6.37100E-04
  541.00      6.22830E-04
  543.00      6.28850E-04
  545.00      6.24800E-04
  547.00      6.20780E-04
  549.00      6.16800E-04
  551.00      6.12830E-04
  553.00      6.08940E-04
  555.00      6.05070E-04
  557.00      6.01230E-04
  559.00      5.97310E-04
  561.00      5.93670E-04
  563.00      5.89940E-04
  565.00      5.86250E-04
  567.00      5.82590E-04
  569.00      5.72590E-04
  571.00      5.41290E-04
  573.00      5.38180E-04
  575.00      5.35110E-04
  577.00      5.32140E-04
  579.00      5.29450E-04
  581.00      5.27110E-04
  583.00      5.25550E-04
  585.00      5.24450E-04
  587.00      5.21190E-04
  589.00      5.23000E-04
  591.00      5.22770E-04
  593.00      5.22930E-04
  595.00      5.23510E-04
  597.00      5.24060E-04
  599.00      5.25070E-04
  601.00      5.23540E-04
  603.00      5.21410E-04
  605.00      5.19950E-04
  607.00      5.16270E-04
  609.00      5.14010E-04
  611.00      5.10460E-04
  613.00      5.07510E-04
  615.00      5.05270E-04
  617.00      5.00620E-04
  619.00      4.99350E-04
  621.00      4.96560E-04
  623.00      4.91740E-04
  625.00      4.90500E-04
  627.00      4.88070E-04
  629.00      4.85280E-04
  631.00      4.79800E-04
  633.00      4.79600E-04
  635.00      4.77080E-04
  637.00      4.74390E-04
  639.00      4.71550E-04
  641.00      4.65580E-04
  643.00      4.66450E-04
  645.00      4.63860E-04
  647.00      4.61280E-04
  649.00      4.58720E-04
  651.00      4.56000E-04
  653.00      4.49070E-04
  655.00      4.46530E-04
  657.00      4.23480E-04
  659.00      4.45620E-04
  661.00      4.43800E-04
  663.00      4.41390E-04
  665.00      4.39010E-04
  667.00      4.35360E-04
  669.00      4.28800E-04
  671.00      4.31900E-04
  673.00      4.29610E-04
  675.00      4.27310E-04
  677.00      4.25030E-04
  679.00      4.22770E-04
  681.00      4.20520E-04
  683.00      4.18290E-04
  685.00      4.16080E-04
  687.00      4.13880E-04
  689.00      4.06610E-04
  691.00      4.09380E-04
  693.00      4.07400E-04
  695.00      4.05280E-04
  697.00      4.03170E-04
  699.00      4.01080E-04
  701.00      3.99000E-04
  703.00      3.96930E-04
  705.00      3.94890E-04
  707.00      3.91760E-04
  709.00      3.90850E-04
  711.00      3.88850E-04
  713.00      3.86870E-04
  715.00      3.84900E-04
  717.00      3.79590E-04
  719.00      3.79170E-04
  721.00      3.79090E-04
  723.00      3.77180E-04
  725.00      3.75280E-04
  727.00      3.73400E-04
  729.00      3.71190E-04
  731.00      3.69680E-04
  733.00      3.67850E-04
  735.00      3.66020E-04
  737.00      3.64210E-04
  739.00      3.62410E-04
  741.00      3.60630E-04
  743.00      3.58860E-04
  745.00      3.57090E-04
  747.00      3.55350E-04
  749.00      3.53620E-04
  751.00      3.51900E-04
  753.00      3.50190E-04
  755.00      3.48500E-04
  757.00      3.46810E-04
  759.00      3.40450E-04
  761.00      3.43230E-04
  763.00      3.41830E-04
  765.00      3.40200E-04
  767.00      3.38570E-04
  769.00      3.36960E-04
  771.00      3.35360E-04
  773.00      3.33760E-04
  775.00      3.32190E-04
  777.00      3.30630E-04
  779.00      3.29070E-04
  781.00      3.27520E-04
  783.00      3.25990E-04
  785.00      3.24480E-04
  787.00      3.22970E-04
  789.00      3.21460E-04
  791.00      3.19970E-04
  793.00      3.18490E-04
  795.00      3.17020E-04
  797.00      3.15560E-04
  799.00      3.14110E-04
  801.00      3.12670E-04
  803.00      3.11240E-04
  805.00      3.09810E-04
  807.00      3.08400E-04
  809.00      3.07000E-04
  811.00      3.05610E-04
  813.00      3.04220E-04
  815.00      3.02850E-04
  817.00      3.01480E-04
  819.00      2.98970E-04
  821.00      2.87820E-04
  823.00      2.85060E-04
  825.00      2.85070E-04
  827.00      2.84130E-04
  829.00      2.82960E-04
  831.00      2.81770E-04
  833.00      2.80580E-04
  835.00      2.79400E-04
  837.00      2.78290E-04
  839.00      2.77190E-04
  841.00      2.76190E-04
  843.00      2.75200E-04
  845.00      2.74180E-04
  847.00      2.73290E-04
  849.00      2.72490E-04
  851.00      2.71590E-04
  853.00      2.70890E-04
  855.00      2.69820E-04
  857.00      2.69480E-04
  859.00      2.68210E-04
  861.00      2.67500E-04
  863.00      2.67510E-04
  865.00      2.66420E-04
  867.00      2.64240E-04
  869.00      2.65570E-04
  871.00      2.65350E-04
  873.00      2.64210E-04
  875.00      2.59770E-04
  877.00      2.62280E-04
  879.00      2.63120E-04
  881.00      2.62670E-04
  883.00      2.61850E-04
  885.00      2.57840E-04
  887.00      2.52530E-04
  889.00      2.58050E-04
  891.00      2.58120E-04
  893.00      2.57140E-04
  895.00      2.56690E-04
  897.00      2.55320E-04
  899.00      2.52940E-04
  901.00      2.44410E-04
  903.00      2.47080E-04
  905.00      2.50470E-04
  907.00      2.50070E-04
  909.00      2.49320E-04
  911.00      2.47810E-04
  913.00      2.47380E-04
  915.00      2.46380E-04
  917.00      2.45320E-04
  919.00      2.43910E-04
  921.00      2.40680E-04
  923.00      2.30670E-04
  925.00      2.38270E-04
  927.00      2.39890E-04
  929.00      2.39480E-04
  931.00      2.38470E-04
  933.00      2.37390E-04
  935.00      2.32180E-04
  937.00      2.34630E-04
  939.00      2.34720E-04
  941.00      2.33810E-04
  943.00      2.32880E-04
  945.00      2.31960E-04
  947.00      2.30970E-04
  949.00      2.30130E-04
  951.00      2.28460E-04
  953.00      2.24970E-04
  955.00      2.15450E-04
  957.00      2.24270E-04
  959.00      2.25300E-04
  961.00      2.24770E-04
  963.00      2.23840E-04
  965.00      2.23040E-04
  967.00      2.22170E-04
  969.00      2.21310E-04
  971.00      2.20420E-04
  973.00      2.19610E-04
  975.00      2.18510E-04
  977.00      2.16610E-04
  979.00      2.17090E-04
  981.00      2.16260E-04
  983.00      2.15440E-04
  985.00      2.14620E-04
  987.00      2.13800E-04
  989.00      2.12990E-04
  991.00      2.12190E-04
  993.00      2.11380E-04
  995.00      2.10590E-04
  997.00      2.09790E-04
  999.00      2.09000E-04
  1002.5      2.04810E-04
  1007.5      2.01510E-04
  1012.5      2.00910E-04
  1017.5      2.01920E-04
  1022.5      2.00060E-04
  1027.5      1.98240E-04
  1032.5      1.96330E-04
  1037.5      1.94650E-04
  1042.5      1.92000E-04
  1047.5      1.91170E-04
  1052.5      1.89460E-04
  1057.5      1.87780E-04
  1062.5      1.86110E-04
  1067.5      1.84460E-04
  1072.5      1.82850E-04
  1077.5      1.81250E-04
  1082.5      1.79310E-04
  1087.5      1.78050E-04
  1092.5      1.71410E-04
  1097.5      1.73920E-04
  1102.5      1.73530E-04
  1107.5      1.72090E-04
  1112.5      1.70630E-04
  1117.5      1.69280E-04
  1122.5      1.67850E-04
  1127.5      1.66440E-04
  1132.5      1.65060E-04
  1137.5      1.63680E-04
  1142.5      1.62330E-04
  1147.5      1.60990E-04
  1152.5      1.59670E-04
  1157.5      1.58360E-04
  1162.5      1.55680E-04
  1167.5      1.54810E-04
  1172.5      1.54540E-04
  1177.5      1.53300E-04
  1182.5      1.52070E-04
  1187.5      1.50850E-04
  1192.5      1.49660E-04
  1197.5      1.48320E-04
  1202.5      1.47300E-04
  1207.5      1.46140E-04
  1212.5      1.45000E-04
  1217.5      1.43870E-04
  1222.5      1.42750E-04
  1227.5      1.41640E-04
  1232.5      1.40550E-04
  1237.5      1.39470E-04
  1242.5      1.38400E-04
  1247.5      1.37350E-04
  1252.5      1.36290E-04
  1257.5      1.35270E-04
  1262.5      1.34250E-04
  1267.5      1.33250E-04
  1272.5      1.32250E-04
  1277.5      1.30750E-04
  1282.5      1.26080E-04
  1287.5      1.29160E-04
  1292.5      1.28370E-04
  1297.5      1.27380E-04
  1302.5      1.26490E-04
  1307.5      1.25570E-04
  1312.5      1.24660E-04
  1317.5      1.23760E-04
  1322.5      1.22860E-04
  1327.5      1.21980E-04
  1332.5      1.21110E-04
  1337.5      1.20240E-04
  1342.5      1.19380E-04
  1347.5      1.18540E-04
  1352.5      1.17700E-04
  1357.5      1.16870E-04
  1362.5      1.16050E-04
  1367.5      1.15240E-04
  1372.5      1.14440E-04
  1377.5      1.13650E-04
  1382.5      1.12860E-04
  1387.5      1.12080E-04
  1392.5      1.11310E-04
  1397.5      1.10550E-04
