 Castelli and Kurucz 2004-2012 Atmosphere
 T     33000.     G    5.00000 [-2.0a] N(He)/Ntot=0.0784 VTURB=2.0  L/H=1.25 OD
 Wavelength  Eddington Hnu
   (nm)    (ergs/s/cm2/Hz/sr)
  9.0900      8.13670E-32
  9.3500      5.05440E-31
  9.6100      2.85700E-30
  9.7700      7.93940E-30
  9.9600      2.56580E-29
  10.200      1.06340E-28
  10.380      2.96700E-28
  10.560      8.00480E-28
  10.770      2.44490E-27
  11.040      9.67220E-27
  11.400      5.48610E-26
  11.780      3.07030E-25
  12.130      1.36740E-24
  12.480      5.61470E-24
  12.710      1.36350E-23
  12.840      2.22110E-23
  13.050      4.78940E-23
  13.240      9.40770E-23
  13.390      1.58200E-22
  13.660      3.92550E-22
  13.980      1.10380E-21
  14.330      3.25070E-21
  14.720      1.02230E-20
  15.100      2.95860E-20
  15.520      9.03240E-20
  15.880      2.24980E-19
  16.200      4.90570E-19
  16.600      1.24860E-18
  17.030      3.25640E-18
  17.340      6.31670E-18
  17.680      1.27420E-17
  18.020      2.50670E-17
  18.170      3.35280E-17
  18.610      7.67400E-17
  19.100      1.84990E-16
  19.390      3.05340E-16
  19.840      6.45620E-16
  20.180      1.11330E-15
  20.500      1.83000E-15
  21.050      4.15640E-15
  21.620      9.32650E-15
  21.980      1.52200E-14
  22.300      2.32140E-14
  22.680      3.77340E-14
  23.000      5.31930E-12
  23.400      3.29790E-11
  24.000      8.23450E-11
  24.650      1.69840E-10
  25.240      2.76630E-10
  25.680      2.59970E-10
  26.000      4.72440E-10
  26.400      5.88350E-10
  26.850      7.99930E-10
  27.350      1.06800E-09
  27.850      1.36900E-09
  28.400      2.01930E-09
  29.000      2.75050E-09
  29.600      3.60390E-09
  30.100      3.95500E-09
  30.800      5.37700E-09
  31.800      1.10130E-08
  32.800      1.67180E-08
  33.800      2.60820E-08
  34.800      3.87950E-08
  35.700      5.41900E-08
  36.600      7.68340E-08
  37.500      1.01800E-07
  38.500      1.43710E-07
  39.500      1.95300E-07
  40.500      2.60210E-07
  41.400      3.37390E-07
  42.200      4.12360E-07
  43.000      5.04230E-07
  44.100      6.60600E-07
  45.100      8.37290E-07
  46.000      1.01230E-06
  47.000      1.26330E-06
  48.000      1.54540E-06
  49.000      1.86400E-06
  50.000      2.27350E-06
  50.600      9.51630E-06
  51.200      3.66040E-05
  52.000      3.73160E-05
  53.000      4.08830E-05
  54.000      3.86510E-05
  55.000      4.44240E-05
  56.000      4.79920E-05
  57.000      5.08030E-05
  58.000      4.97090E-05
  59.000      5.51060E-05
  60.000      5.65680E-05
  61.000      5.95650E-05
  62.000      6.35350E-05
  63.000      6.68600E-05
  64.000      6.84530E-05
  65.000      7.24070E-05
  65.800      7.41470E-05
  66.500      7.67520E-05
  67.500      8.00270E-05
  68.500      8.08590E-05
  69.500      8.83350E-05
  70.500      8.89770E-05
  71.600      9.61400E-05
  72.600      9.96720E-05
  73.500      1.04480E-04
  74.500      1.08040E-04
  75.500      1.11970E-04
  76.500      1.16240E-04
  77.500      1.21190E-04
  78.500      1.26780E-04
  79.500      1.30570E-04
  80.500      1.35050E-04
  81.500      1.39720E-04
  82.500      1.45640E-04
  83.500      1.44060E-04
  84.500      1.55140E-04
  85.500      1.59960E-04
  86.500      1.65550E-04
  87.500      1.70630E-04
  88.500      1.75980E-04
  89.500      1.81330E-04
  90.500      1.85370E-04
  91.500      1.96670E-04
  92.500      5.84050E-04
  93.500      1.03760E-03
  94.500      1.90340E-03
  95.500      2.27500E-03
  96.500      2.97320E-03
  97.500      1.69450E-03
  98.500      3.14920E-03
  99.500      2.93040E-03
  100.50      3.16250E-03
  101.50      3.05450E-03
  102.50      1.66640E-03
  103.50      2.96220E-03
  104.50      3.18440E-03
  105.50      3.17340E-03
  106.50      3.04700E-03
  107.50      3.06740E-03
  108.50      2.85130E-03
  109.50      3.07800E-03
  110.50      3.00830E-03
  111.50      2.98840E-03
  112.50      2.86670E-03
  113.50      2.97430E-03
  114.50      2.91270E-03
  115.50      2.90050E-03
  116.50      2.89420E-03
  117.50      2.59380E-03
  118.50      2.81520E-03
  119.50      2.76990E-03
  120.50      2.62420E-03
  121.50      1.52490E-03
  122.50      2.60790E-03
  123.50      2.72440E-03
  124.50      2.68790E-03
  125.50      2.70760E-03
  126.50      2.69250E-03
  127.50      2.67490E-03
  128.50      2.65560E-03
  129.50      2.56300E-03
  130.50      2.57230E-03
  131.50      2.59340E-03
  132.50      2.55980E-03
  133.50      2.51490E-03
  134.50      2.52540E-03
  135.50      2.51280E-03
  136.50      2.48260E-03
  137.50      2.46740E-03
  138.50      2.44950E-03
  139.50      2.33600E-03
  140.50      2.33690E-03
  141.50      2.38430E-03
  142.50      2.35590E-03
  143.50      2.35190E-03
  144.20      2.34500E-03
  144.70      2.33440E-03
  145.50      2.31680E-03
  146.50      2.30000E-03
  147.50      2.28070E-03
  148.50      2.26780E-03
  149.50      2.24730E-03
  150.50      2.22130E-03
  151.20      2.21860E-03
  151.70      2.20850E-03
  152.50      2.19010E-03
  153.50      2.14440E-03
  154.50      2.09240E-03
  155.50      2.08290E-03
  156.50      2.09780E-03
  157.50      2.09690E-03
  158.50      2.08850E-03
  159.50      2.07450E-03
  160.50      2.03540E-03
  161.50      2.01480E-03
  162.50      2.00230E-03
  163.50      1.97310E-03
  164.50      1.89600E-03
  165.50      1.98150E-03
  166.50      1.96600E-03
  167.20      1.94980E-03
  167.70      1.96470E-03
  168.50      1.94970E-03
  169.50      1.93450E-03
  170.50      1.91720E-03
  171.50      1.89080E-03
  172.50      1.87350E-03
  173.50      1.88400E-03
  174.50      1.86800E-03
  175.50      1.85230E-03
  176.50      1.84030E-03
  177.50      1.82920E-03
  178.50      1.81780E-03
  179.50      1.80620E-03
  180.50      1.79600E-03
  181.50      1.78200E-03
  182.50      1.76910E-03
  183.50      1.75910E-03
  184.50      1.73950E-03
  185.50      1.71980E-03
  186.50      1.71230E-03
  187.50      1.70730E-03
  188.50      1.68970E-03
  189.50      1.67130E-03
  190.50      1.67260E-03
  191.50      1.65100E-03
  192.50      1.63460E-03
  193.50      1.63470E-03
  194.50      1.63000E-03
  195.50      1.60780E-03
  196.70      1.60560E-03
  197.60      1.60020E-03
  198.40      1.58640E-03
  199.50      1.56850E-03
  200.50      1.56860E-03
  201.50      1.56000E-03
  202.50      1.55090E-03
  203.50      1.53880E-03
  204.50      1.52880E-03
  205.50      1.37060E-03
  206.50      1.34530E-03
  207.40      1.34890E-03
  207.80      1.34530E-03
  208.50      1.36790E-03
  209.50      1.41210E-03
  210.50      1.46120E-03
  211.50      1.46490E-03
  212.50      1.45600E-03
  213.50      1.44700E-03
  214.50      1.43780E-03
  215.50      1.43260E-03
  216.50      1.41540E-03
  217.50      1.41910E-03
  218.50      1.39750E-03
  219.50      1.40160E-03
  220.50      1.39380E-03
  221.50      1.36930E-03
  222.50      1.37650E-03
  223.50      1.36800E-03
  224.50      1.35930E-03
  225.50      1.33500E-03
  226.50      1.34320E-03
  227.50      1.33500E-03
  228.50      1.32580E-03
  229.50      1.30230E-03
  230.50      1.29460E-03
  231.50      1.30240E-03
  232.50      1.29510E-03
  233.50      1.28730E-03
  234.50      1.27980E-03
  235.50      1.27220E-03
  236.50      1.26470E-03
  237.50      1.25710E-03
  238.50      1.23420E-03
  239.50      1.24120E-03
  240.50      1.23510E-03
  241.50      1.22780E-03
  242.50      1.22080E-03
  243.50      1.21330E-03
  244.50      1.20660E-03
  245.50      1.19950E-03
  246.50      1.19290E-03
  247.50      1.18600E-03
  248.50      1.17930E-03
  249.50      1.13600E-03
  250.50      1.16430E-03
  251.30      1.13110E-03
  251.80      1.15310E-03
  252.50      1.15280E-03
  253.50      1.14640E-03
  254.50      1.13870E-03
  255.50      1.13300E-03
  256.50      1.12720E-03
  257.50      1.12100E-03
  258.50      1.11490E-03
  259.50      1.10870E-03
  260.50      1.10680E-03
  261.50      1.10060E-03
  262.50      1.09460E-03
  263.50      1.08840E-03
  264.50      1.08210E-03
  265.50      1.07550E-03
  266.50      1.06830E-03
  267.50      1.06100E-03
  268.50      1.05940E-03
  269.50      1.04820E-03
  270.50      1.04800E-03
  271.50      1.04240E-03
  272.50      1.03030E-03
  273.50      1.02160E-03
  274.50      1.02580E-03
  275.50      1.02040E-03
  276.50      1.00780E-03
  277.50      1.00980E-03
  278.50      1.00440E-03
  279.50      9.96290E-04
  280.50      9.93370E-04
  281.50      9.88900E-04
  282.50      9.75410E-04
  283.50      9.73540E-04
  284.50      9.73670E-04
  285.50      9.68530E-04
  286.50      9.63540E-04
  287.50      9.58650E-04
  288.50      9.53890E-04
  289.50      9.48990E-04
  291.00      9.41670E-04
  293.00      9.32300E-04
  295.00      9.16630E-04
  297.00      9.13750E-04
  299.00      9.04600E-04
  301.00      8.95630E-04
  303.00      8.86810E-04
  305.00      8.78320E-04
  307.00      8.69970E-04
  309.00      8.60700E-04
  311.00      8.53210E-04
  313.00      8.45430E-04
  315.00      8.37250E-04
  317.00      8.29450E-04
  319.00      8.15060E-04
  321.00      8.10800E-04
  323.00      8.06050E-04
  325.00      7.98540E-04
  327.00      7.91680E-04
  329.00      7.83650E-04
  331.00      7.77430E-04
  333.00      7.70240E-04
  335.00      7.62160E-04
  337.00      7.56450E-04
  339.00      7.49800E-04
  341.00      7.43130E-04
  343.00      7.34270E-04
  345.00      7.25610E-04
  347.00      7.20930E-04
  349.00      7.14670E-04
  351.00      7.08970E-04
  353.00      7.03360E-04
  355.00      6.97380E-04
  357.00      6.95250E-04
  359.00      6.84310E-04
  361.00      6.81340E-04
  363.00      6.72790E-04
  364.00      6.74330E-04
  365.00      6.65680E-04
  367.00      6.62350E-04
  369.00      6.57400E-04
  371.00      6.44620E-04
  373.00      6.34890E-04
  375.00      6.29710E-04
  377.00      6.16020E-04
  379.00      6.33230E-04
  381.00      6.56940E-04
  383.00      5.92020E-04
  385.00      6.77390E-04
  387.00      6.92310E-04
  389.00      5.71220E-04
  391.00      6.89830E-04
  393.00      6.91770E-04
  395.00      6.80350E-04
  397.00      5.50490E-04
  399.00      6.64510E-04
  401.00      6.70020E-04
  403.00      6.38270E-04
  405.00      6.66300E-04
  407.00      6.56590E-04
  409.00      6.07450E-04
  411.00      5.45170E-04
  413.00      6.33890E-04
  415.00      6.34310E-04
  417.00      6.35090E-04
  419.00      6.30130E-04
  421.00      6.24700E-04
  423.00      6.20890E-04
  425.00      6.15560E-04
  427.00      6.10090E-04
  429.00      6.04260E-04
  431.00      5.95470E-04
  433.00      5.43700E-04
  435.00      5.06290E-04
  437.00      5.79840E-04
  439.00      5.65940E-04
  441.00      5.76800E-04
  443.00      5.71640E-04
  445.00      5.68610E-04
  447.00      5.39500E-04
  449.00      5.59430E-04
  451.00      5.55990E-04
  453.00      5.51700E-04
  455.00      5.45800E-04
  457.00      5.43290E-04
  459.00      5.39010E-04
  461.00      5.35120E-04
  463.00      5.31110E-04
  465.00      5.25390E-04
  467.00      5.23090E-04
  469.00      5.14500E-04
  471.00      5.09550E-04
  473.00      5.11920E-04
  475.00      5.08110E-04
  477.00      5.04510E-04
  479.00      5.00830E-04
  481.00      4.95910E-04
  483.00      4.89070E-04
  485.00      4.54060E-04
  487.00      4.15060E-04
  489.00      4.76500E-04
  491.00      4.77230E-04
  493.00      4.64050E-04
  495.00      4.72670E-04
  497.00      4.69590E-04
  499.00      4.66290E-04
  501.00      4.57900E-04
  503.00      4.59780E-04
  505.00      4.54500E-04
  507.00      4.53480E-04
  509.00      4.50350E-04
  511.00      4.47260E-04
  513.00      4.44210E-04
  515.00      4.41180E-04
  517.00      4.38160E-04
  519.00      4.35220E-04
  521.00      4.32290E-04
  523.00      4.29390E-04
  525.00      4.26510E-04
  527.00      4.23660E-04
  529.00      4.20850E-04
  531.00      4.18060E-04
  533.00      4.15300E-04
  535.00      4.12560E-04
  537.00      4.09860E-04
  539.00      4.07160E-04
  541.00      4.03390E-04
  543.00      4.01890E-04
  545.00      3.99280E-04
  547.00      3.96700E-04
  549.00      3.94150E-04
  551.00      3.91620E-04
  553.00      3.89110E-04
  555.00      3.86630E-04
  557.00      3.84170E-04
  559.00      3.81730E-04
  561.00      3.79330E-04
  563.00      3.76940E-04
  565.00      3.74570E-04
  567.00      3.72220E-04
  569.00      3.69610E-04
  571.00      3.66470E-04
  573.00      3.64230E-04
  575.00      3.61960E-04
  577.00      3.59800E-04
  579.00      3.57610E-04
  581.00      3.55450E-04
  583.00      3.53290E-04
  585.00      3.51110E-04
  587.00      3.39000E-04
  589.00      3.46170E-04
  591.00      3.44990E-04
  593.00      3.43540E-04
  595.00      3.41560E-04
  597.00      3.39580E-04
  599.00      3.37560E-04
  601.00      3.35560E-04
  603.00      3.33570E-04
  605.00      3.31610E-04
  607.00      3.29660E-04
  609.00      3.27730E-04
  611.00      3.25810E-04
  613.00      3.23910E-04
  615.00      3.22030E-04
  617.00      3.20160E-04
  619.00      3.18310E-04
  621.00      3.16480E-04
  623.00      3.14660E-04
  625.00      3.12860E-04
  627.00      3.11070E-04
  629.00      3.09300E-04
  631.00      3.07540E-04
  633.00      3.05800E-04
  635.00      3.04070E-04
  637.00      3.02360E-04
  639.00      3.00660E-04
  641.00      2.98970E-04
  643.00      2.97300E-04
  645.00      2.95650E-04
  647.00      2.94000E-04
  649.00      2.92370E-04
  651.00      2.90350E-04
  653.00      2.87390E-04
  655.00      2.75680E-04
  657.00      2.49900E-04
  659.00      2.80960E-04
  661.00      2.82030E-04
  663.00      2.81340E-04
  665.00      2.79910E-04
  667.00      2.75530E-04
  669.00      2.74050E-04
  671.00      2.75420E-04
  673.00      2.73930E-04
  675.00      2.72490E-04
  677.00      2.71040E-04
  679.00      2.69590E-04
  681.00      2.68160E-04
  683.00      2.66740E-04
  685.00      2.65340E-04
  687.00      2.63940E-04
  689.00      2.62530E-04
  691.00      2.61160E-04
  693.00      2.59820E-04
  695.00      2.58460E-04
  697.00      2.57120E-04
  699.00      2.55790E-04
  701.00      2.54470E-04
  703.00      2.53160E-04
  705.00      2.51860E-04
  707.00      2.47060E-04
  709.00      2.49290E-04
  711.00      2.48010E-04
  713.00      2.46750E-04
  715.00      2.45500E-04
  717.00      2.44230E-04
  719.00      2.43020E-04
  721.00      2.41800E-04
  723.00      2.40530E-04
  725.00      2.39370E-04
  727.00      2.38190E-04
  729.00      2.35290E-04
  731.00      2.35800E-04
  733.00      2.34650E-04
  735.00      2.33490E-04
  737.00      2.32340E-04
  739.00      2.31190E-04
  741.00      2.30060E-04
  743.00      2.28930E-04
  745.00      2.27830E-04
  747.00      2.26710E-04
  749.00      2.25620E-04
  751.00      2.24470E-04
  753.00      2.23440E-04
  755.00      2.22360E-04
  757.00      2.21290E-04
  759.00      2.20220E-04
  761.00      2.19160E-04
  763.00      2.18120E-04
  765.00      2.17080E-04
  767.00      2.16050E-04
  769.00      2.15020E-04
  771.00      2.14000E-04
  773.00      2.12990E-04
  775.00      2.11980E-04
  777.00      2.10990E-04
  779.00      2.10000E-04
  781.00      2.08940E-04
  783.00      2.08040E-04
  785.00      2.07220E-04
  787.00      2.06240E-04
  789.00      2.05260E-04
  791.00      2.04350E-04
  793.00      2.03400E-04
  795.00      2.02460E-04
  797.00      2.01450E-04
  799.00      2.00610E-04
  801.00      1.99690E-04
  803.00      1.98780E-04
  805.00      1.97840E-04
  807.00      1.96940E-04
  809.00      1.95770E-04
  811.00      1.94970E-04
  813.00      1.94190E-04
  815.00      1.93170E-04
  817.00      1.92450E-04
  819.00      1.91350E-04
  821.00      1.90240E-04
  823.00      1.89600E-04
  825.00      1.88870E-04
  827.00      1.87510E-04
  829.00      1.87200E-04
  831.00      1.86450E-04
  833.00      1.85530E-04
  835.00      1.84140E-04
  837.00      1.83760E-04
  839.00      1.83150E-04
  841.00      1.82360E-04
  843.00      1.81490E-04
  845.00      1.79820E-04
  847.00      1.79940E-04
  849.00      1.78890E-04
  851.00      1.78350E-04
  853.00      1.77190E-04
  855.00      1.76450E-04
  857.00      1.76230E-04
  859.00      1.73160E-04
  861.00      1.73780E-04
  863.00      1.74490E-04
  865.00      1.71830E-04
  867.00      1.69060E-04
  869.00      1.72170E-04
  871.00      1.72600E-04
  873.00      1.69120E-04
  875.00      1.62660E-04
  877.00      1.66320E-04
  879.00      1.70070E-04
  881.00      1.70170E-04
  883.00      1.68440E-04
  885.00      1.60670E-04
  887.00      1.54970E-04
  889.00      1.64550E-04
  891.00      1.66850E-04
  893.00      1.66810E-04
  895.00      1.66450E-04
  897.00      1.65090E-04
  899.00      1.60610E-04
  901.00      1.48410E-04
  903.00      1.52770E-04
  905.00      1.60670E-04
  907.00      1.60650E-04
  909.00      1.61670E-04
  911.00      1.61600E-04
  913.00      1.61030E-04
  915.00      1.60260E-04
  917.00      1.58930E-04
  919.00      1.57300E-04
  921.00      1.50550E-04
  923.00      1.37820E-04
  925.00      1.49130E-04
  927.00      1.54480E-04
  929.00      1.55310E-04
  931.00      1.54630E-04
  933.00      1.54860E-04
  935.00      1.54020E-04
  937.00      1.53760E-04
  939.00      1.53150E-04
  941.00      1.52530E-04
  943.00      1.51930E-04
  945.00      1.51190E-04
  947.00      1.49470E-04
  949.00      1.49200E-04
  951.00      1.46170E-04
  953.00      1.39540E-04
  955.00      1.28110E-04
  957.00      1.41130E-04
  959.00      1.45230E-04
  961.00      1.45580E-04
  963.00      1.45020E-04
  965.00      1.45470E-04
  967.00      1.44910E-04
  969.00      1.44240E-04
  971.00      1.43420E-04
  973.00      1.43230E-04
  975.00      1.42680E-04
  977.00      1.42130E-04
  979.00      1.41580E-04
  981.00      1.41040E-04
  983.00      1.40500E-04
  985.00      1.39960E-04
  987.00      1.39430E-04
  989.00      1.38900E-04
  991.00      1.38350E-04
  993.00      1.37840E-04
  995.00      1.37300E-04
  997.00      1.36420E-04
  999.00      1.35550E-04
  1002.5      1.28650E-04
  1007.5      1.25930E-04
  1012.5      1.31860E-04
  1017.5      1.31640E-04
  1022.5      1.30390E-04
  1027.5      1.29240E-04
  1032.5      1.27550E-04
  1037.5      1.26890E-04
  1042.5      1.25740E-04
  1047.5      1.24610E-04
  1052.5      1.23490E-04
  1057.5      1.22390E-04
  1062.5      1.21300E-04
  1067.5      1.20030E-04
  1072.5      1.19170E-04
  1077.5      1.18120E-04
  1082.5      1.16000E-04
  1087.5      1.15310E-04
  1092.5      1.05570E-04
  1097.5      1.10520E-04
  1102.5      1.12230E-04
  1107.5      1.11960E-04
  1112.5      1.11170E-04
  1117.5      1.10230E-04
  1122.5      1.09250E-04
  1127.5      1.08380E-04
  1132.5      1.07470E-04
  1137.5      1.06570E-04
  1142.5      1.05690E-04
  1147.5      1.04810E-04
  1152.5      1.03950E-04
  1157.5      1.03100E-04
  1162.5      1.02230E-04
  1167.5      1.01420E-04
  1172.5      1.00600E-04
  1177.5      9.97920E-05
  1182.5      9.89900E-05
  1187.5      9.81970E-05
  1192.5      9.74130E-05
  1197.5      9.55360E-05
  1202.5      9.58750E-05
  1207.5      9.51200E-05
  1212.5      9.43730E-05
  1217.5      9.36350E-05
  1222.5      9.29060E-05
  1227.5      9.21850E-05
  1232.5      9.14730E-05
  1237.5      9.07680E-05
  1242.5      9.00720E-05
  1247.5      8.93830E-05
  1252.5      8.85310E-05
  1257.5      8.80300E-05
  1262.5      8.73640E-05
  1267.5      8.67060E-05
  1272.5      8.58540E-05
  1277.5      8.35210E-05
  1282.5      7.77240E-05
  1287.5      8.31870E-05
  1292.5      8.33760E-05
  1297.5      8.22950E-05
  1302.5      8.23030E-05
  1307.5      8.17020E-05
  1312.5      8.11080E-05
  1317.5      8.05190E-05
  1322.5      7.99370E-05
  1327.5      7.93610E-05
  1332.5      7.87910E-05
  1337.5      7.82270E-05
  1342.5      7.76160E-05
  1347.5      7.71180E-05
  1352.5      7.65720E-05
  1357.5      7.60330E-05
  1362.5      7.54970E-05
  1367.5      7.49700E-05
  1372.5      7.44460E-05
  1377.5      7.39290E-05
  1382.5      7.34170E-05
  1387.5      7.29100E-05
  1392.5      7.24070E-05
  1397.5      7.19110E-05
