 Castelli and Kurucz 2004-2012 Atmosphere
 T     40000.     G    5.00000 [-2.0a] N(He)/Ntot=0.0784 VTURB=2.0  L/H=1.25 OD
 Wavelength  Eddington Hnu
   (nm)    (ergs/s/cm2/Hz/sr)
  9.0900      1.44470E-23
  9.3500      5.28420E-23
  9.6100      1.80920E-22
  9.7700      3.74450E-22
  9.9600      8.63160E-22
  10.200      2.37960E-21
  10.380      4.95410E-21
  10.560      1.00810E-20
  10.770      2.24690E-20
  11.040      6.04450E-20
  11.400      2.11770E-19
  11.780      7.39470E-19
  12.130      2.19790E-18
  12.480      6.18550E-18
  12.710      1.18710E-17
  12.840      1.70010E-17
  13.050      2.99660E-17
  13.240      4.93630E-17
  13.390      7.25570E-17
  13.660      1.42410E-16
  13.980      3.07200E-16
  14.330      6.87410E-16
  14.720      1.61750E-15
  15.100      3.58440E-15
  15.520      8.27880E-15
  15.880      1.64260E-14
  16.200      2.94950E-14
  16.600      5.94920E-14
  17.030      1.22270E-13
  17.340      2.01170E-13
  17.680      3.40730E-13
  18.020      5.66060E-13
  18.170      7.03770E-13
  18.610      1.31010E-12
  19.100      2.53310E-12
  19.390      3.68370E-12
  19.840      6.44710E-12
  20.180      9.68490E-12
  20.500      1.40320E-11
  21.050      2.58600E-11
  21.620      4.71420E-11
  21.980      6.78120E-11
  22.300      9.27480E-11
  22.680      1.32920E-10
  23.000      7.77940E-09
  23.400      3.26930E-08
  24.000      9.84270E-08
  24.650      6.21880E-07
  25.240      2.35940E-06
  25.680      1.84340E-06
  26.000      8.04910E-06
  26.400      1.63090E-05
  26.850      2.63170E-05
  27.350      3.63850E-05
  27.850      3.93560E-05
  28.400      5.63280E-05
  29.000      6.52300E-05
  29.600      4.95480E-05
  30.100      9.88750E-06
  30.800      2.98310E-05
  31.800      6.38530E-05
  32.800      7.83960E-05
  33.800      7.97980E-05
  34.800      8.94350E-05
  35.700      1.10170E-04
  36.600      1.28480E-04
  37.500      1.36230E-04
  38.500      1.36800E-04
  39.500      1.55620E-04
  40.500      1.68000E-04
  41.400      1.76400E-04
  42.200      1.77030E-04
  43.000      1.80640E-04
  44.100      1.96970E-04
  45.100      2.07320E-04
  46.000      2.11110E-04
  47.000      2.22880E-04
  48.000      2.37200E-04
  49.000      2.40770E-04
  50.000      2.63530E-04
  50.600      3.89630E-04
  51.200      7.04170E-04
  52.000      7.05790E-04
  53.000      7.27710E-04
  54.000      6.98940E-04
  55.000      7.25750E-04
  56.000      8.05120E-04
  57.000      8.34300E-04
  58.000      8.29400E-04
  59.000      8.70750E-04
  60.000      8.63790E-04
  61.000      8.70280E-04
  62.000      9.34020E-04
  63.000      9.48370E-04
  64.000      9.77440E-04
  65.000      9.82400E-04
  65.800      9.68570E-04
  66.500      1.00960E-03
  67.500      1.04820E-03
  68.500      1.03130E-03
  69.500      1.08260E-03
  70.500      1.05590E-03
  71.600      1.12440E-03
  72.600      1.14640E-03
  73.500      1.16620E-03
  74.500      1.16920E-03
  75.500      1.18230E-03
  76.500      1.19030E-03
  77.500      1.21820E-03
  78.500      1.22960E-03
  79.500      1.24930E-03
  80.500      1.26500E-03
  81.500      1.28560E-03
  82.500      1.31060E-03
  83.500      1.26870E-03
  84.500      1.33350E-03
  85.500      1.34160E-03
  86.500      1.36910E-03
  87.500      1.38460E-03
  88.500      1.39670E-03
  89.500      1.40830E-03
  90.500      1.40920E-03
  91.500      1.19450E-03
  92.500      2.05440E-03
  93.500      2.75760E-03
  94.500      3.71800E-03
  95.500      4.13930E-03
  96.500      4.96490E-03
  97.500      3.69580E-03
  98.500      5.01000E-03
  99.500      4.65000E-03
  100.50      4.99960E-03
  101.50      4.96790E-03
  102.50      3.67020E-03
  103.50      4.87380E-03
  104.50      4.95490E-03
  105.50      4.93110E-03
  106.50      4.81240E-03
  107.50      4.79450E-03
  108.50      4.50280E-03
  109.50      4.78340E-03
  110.50      4.72440E-03
  111.50      4.67320E-03
  112.50      4.56460E-03
  113.50      4.63430E-03
  114.50      4.59880E-03
  115.50      4.52400E-03
  116.50      4.50260E-03
  117.50      4.20000E-03
  118.50      4.41720E-03
  119.50      4.38450E-03
  120.50      4.30730E-03
  121.50      3.30110E-03
  122.50      4.24180E-03
  123.50      4.25580E-03
  124.50      4.21110E-03
  125.50      4.22940E-03
  126.50      4.20070E-03
  127.50      4.17220E-03
  128.50      4.14290E-03
  129.50      4.09620E-03
  130.50      4.07130E-03
  131.50      4.04910E-03
  132.50      4.01310E-03
  133.50      3.98500E-03
  134.50      3.95820E-03
  135.50      3.92380E-03
  136.50      3.88770E-03
  137.50      3.84460E-03
  138.50      3.82840E-03
  139.50      3.74850E-03
  140.50      3.70870E-03
  141.50      3.74530E-03
  142.50      3.70250E-03
  143.50      3.68990E-03
  144.20      3.66380E-03
  144.70      3.65170E-03
  145.50      3.62550E-03
  146.50      3.60230E-03
  147.50      3.57740E-03
  148.50      3.56050E-03
  149.50      3.52990E-03
  150.50      3.50840E-03
  151.20      3.49340E-03
  151.70      3.47570E-03
  152.50      3.45210E-03
  153.50      3.40240E-03
  154.50      3.29360E-03
  155.50      3.29030E-03
  156.50      3.32140E-03
  157.50      3.31360E-03
  158.50      3.29400E-03
  159.50      3.27110E-03
  160.50      3.22430E-03
  161.50      3.19910E-03
  162.50      3.16460E-03
  163.50      3.08760E-03
  164.50      2.95380E-03
  165.50      3.12900E-03
  166.50      3.10790E-03
  167.20      3.07890E-03
  167.70      3.09480E-03
  168.50      3.07480E-03
  169.50      3.05440E-03
  170.50      3.02970E-03
  171.50      2.97790E-03
  172.50      2.96840E-03
  173.50      2.97500E-03
  174.50      2.95110E-03
  175.50      2.92650E-03
  176.50      2.91210E-03
  177.50      2.89390E-03
  178.50      2.87550E-03
  179.50      2.85320E-03
  180.50      2.83540E-03
  181.50      2.81610E-03
  182.50      2.79610E-03
  183.50      2.77940E-03
  184.50      2.75960E-03
  185.50      2.73960E-03
  186.50      2.72090E-03
  187.50      2.70240E-03
  188.50      2.68450E-03
  189.50      2.66930E-03
  190.50      2.65220E-03
  191.50      2.63400E-03
  192.50      2.60840E-03
  193.50      2.59970E-03
  194.50      2.58290E-03
  195.50      2.56440E-03
  196.70      2.54550E-03
  197.60      2.53070E-03
  198.40      2.51760E-03
  199.50      2.49930E-03
  200.50      2.48370E-03
  201.50      2.46760E-03
  202.50      2.45160E-03
  203.50      2.43580E-03
  204.50      2.41990E-03
  205.50      1.88710E-03
  206.50      1.82420E-03
  207.40      1.84860E-03
  207.80      1.88480E-03
  208.50      1.97800E-03
  209.50      2.18110E-03
  210.50      2.31340E-03
  211.50      2.32230E-03
  212.50      2.30750E-03
  213.50      2.28990E-03
  214.50      2.27890E-03
  215.50      2.29230E-03
  216.50      2.22820E-03
  217.50      2.28110E-03
  218.50      2.19810E-03
  219.50      2.25330E-03
  220.50      2.24480E-03
  221.50      2.15080E-03
  222.50      2.21640E-03
  223.50      2.20530E-03
  224.50      2.18760E-03
  225.50      2.09860E-03
  226.50      2.16410E-03
  227.50      2.15110E-03
  228.50      2.13620E-03
  229.50      2.10800E-03
  230.50      2.03710E-03
  231.50      2.09500E-03
  232.50      2.08590E-03
  233.50      2.07340E-03
  234.50      2.06080E-03
  235.50      2.04840E-03
  236.50      2.03600E-03
  237.50      2.02320E-03
  238.50      1.94110E-03
  239.50      1.99480E-03
  240.50      1.98750E-03
  241.50      1.97530E-03
  242.50      1.96410E-03
  243.50      1.95220E-03
  244.50      1.94090E-03
  245.50      1.92850E-03
  246.50      1.91820E-03
  247.50      1.90700E-03
  248.50      1.89580E-03
  249.50      1.83690E-03
  250.50      1.86430E-03
  251.30      1.73880E-03
  251.80      1.84820E-03
  252.50      1.85170E-03
  253.50      1.84170E-03
  254.50      1.83110E-03
  255.50      1.82050E-03
  256.50      1.81030E-03
  257.50      1.80000E-03
  258.50      1.78980E-03
  259.50      1.77870E-03
  260.50      1.77110E-03
  261.50      1.76090E-03
  262.50      1.75130E-03
  263.50      1.74150E-03
  264.50      1.73170E-03
  265.50      1.72180E-03
  266.50      1.71160E-03
  267.50      1.70080E-03
  268.50      1.69340E-03
  269.50      1.68210E-03
  270.50      1.67510E-03
  271.50      1.66580E-03
  272.50      1.65310E-03
  273.50      1.59790E-03
  274.50      1.63870E-03
  275.50      1.62980E-03
  276.50      1.61740E-03
  277.50      1.61220E-03
  278.50      1.60340E-03
  279.50      1.59380E-03
  280.50      1.58610E-03
  281.50      1.57780E-03
  282.50      1.56560E-03
  283.50      1.55910E-03
  284.50      1.55280E-03
  285.50      1.54460E-03
  286.50      1.53640E-03
  287.50      1.52830E-03
  288.50      1.52030E-03
  289.50      1.51220E-03
  291.00      1.50030E-03
  293.00      1.48490E-03
  295.00      1.46620E-03
  297.00      1.45420E-03
  299.00      1.43870E-03
  301.00      1.42450E-03
  303.00      1.40930E-03
  305.00      1.39530E-03
  307.00      1.38200E-03
  309.00      1.36810E-03
  311.00      1.35450E-03
  313.00      1.34130E-03
  315.00      1.32820E-03
  317.00      1.31510E-03
  319.00      1.29770E-03
  321.00      1.27060E-03
  323.00      1.27730E-03
  325.00      1.26500E-03
  327.00      1.25180E-03
  329.00      1.24070E-03
  331.00      1.22930E-03
  333.00      1.21770E-03
  335.00      1.20530E-03
  337.00      1.19500E-03
  339.00      1.18390E-03
  341.00      1.17290E-03
  343.00      1.16130E-03
  345.00      1.14920E-03
  347.00      1.14000E-03
  349.00      1.13060E-03
  351.00      1.12060E-03
  353.00      1.11000E-03
  355.00      1.09960E-03
  357.00      1.09170E-03
  359.00      1.07910E-03
  361.00      1.07100E-03
  363.00      1.05970E-03
  364.00      1.04250E-03
  365.00      9.72510E-04
  367.00      9.65570E-04
  369.00      9.58940E-04
  371.00      9.53160E-04
  373.00      9.54460E-04
  375.00      9.60420E-04
  377.00      9.61420E-04
  379.00      9.76850E-04
  381.00      9.96640E-04
  383.00      9.40930E-04
  385.00      1.00060E-03
  387.00      1.00970E-03
  389.00      9.07450E-04
  391.00      9.98420E-04
  393.00      9.90670E-04
  395.00      9.84130E-04
  397.00      8.74340E-04
  399.00      9.65220E-04
  401.00      9.64350E-04
  403.00      9.33850E-04
  405.00      9.53710E-04
  407.00      9.42970E-04
  409.00      9.02380E-04
  411.00      8.45100E-04
  413.00      9.16270E-04
  415.00      9.12170E-04
  417.00      9.07760E-04
  419.00      8.96060E-04
  421.00      8.81700E-04
  423.00      8.86310E-04
  425.00      8.79120E-04
  427.00      8.72040E-04
  429.00      8.65000E-04
  431.00      8.55200E-04
  433.00      8.12130E-04
  435.00      7.77050E-04
  437.00      8.34100E-04
  439.00      8.23860E-04
  441.00      8.24930E-04
  443.00      8.18080E-04
  445.00      8.12310E-04
  447.00      7.91900E-04
  449.00      7.99760E-04
  451.00      7.93670E-04
  453.00      7.86160E-04
  455.00      7.68140E-04
  457.00      7.75750E-04
  459.00      7.69840E-04
  461.00      7.64050E-04
  463.00      7.58100E-04
  465.00      7.51290E-04
  467.00      7.46240E-04
  469.00      7.18310E-04
  471.00      7.32650E-04
  473.00      7.30710E-04
  475.00      7.25350E-04
  477.00      7.20050E-04
  479.00      7.14810E-04
  481.00      7.09570E-04
  483.00      7.01930E-04
  485.00      6.73570E-04
  487.00      6.36190E-04
  489.00      6.85610E-04
  491.00      6.84080E-04
  493.00      6.72850E-04
  495.00      6.74830E-04
  497.00      6.70120E-04
  499.00      6.65420E-04
  501.00      6.57680E-04
  503.00      6.56140E-04
  505.00      6.50650E-04
  507.00      6.47070E-04
  509.00      6.42600E-04
  511.00      6.38180E-04
  513.00      6.33810E-04
  515.00      6.29470E-04
  517.00      6.25180E-04
  519.00      6.20940E-04
  521.00      6.16740E-04
  523.00      6.12580E-04
  525.00      6.08450E-04
  527.00      6.04350E-04
  529.00      6.00340E-04
  531.00      5.96350E-04
  533.00      5.92390E-04
  535.00      5.88470E-04
  537.00      5.84590E-04
  539.00      5.80740E-04
  541.00      5.66560E-04
  543.00      5.73050E-04
  545.00      5.69440E-04
  547.00      5.65750E-04
  549.00      5.62090E-04
  551.00      5.58450E-04
  553.00      5.54870E-04
  555.00      5.51320E-04
  557.00      5.47800E-04
  559.00      5.44200E-04
  561.00      5.40860E-04
  563.00      5.37440E-04
  565.00      5.34050E-04
  567.00      5.30690E-04
  569.00      5.22800E-04
  571.00      4.99720E-04
  573.00      4.96820E-04
  575.00      4.93940E-04
  577.00      4.91110E-04
  579.00      4.88350E-04
  581.00      4.85690E-04
  583.00      4.83370E-04
  585.00      4.81450E-04
  587.00      4.74330E-04
  589.00      4.78230E-04
  591.00      4.77430E-04
  593.00      4.76580E-04
  595.00      4.75900E-04
  597.00      4.75350E-04
  599.00      4.75080E-04
  601.00      4.74240E-04
  603.00      4.73010E-04
  605.00      4.72380E-04
  607.00      4.69760E-04
  609.00      4.67570E-04
  611.00      4.64640E-04
  613.00      4.62090E-04
  615.00      4.59390E-04
  617.00      4.56420E-04
  619.00      4.54050E-04
  621.00      4.51410E-04
  623.00      4.48230E-04
  625.00      4.46200E-04
  627.00      4.43640E-04
  629.00      4.41090E-04
  631.00      4.37510E-04
  633.00      4.36060E-04
  635.00      4.33590E-04
  637.00      4.31130E-04
  639.00      4.28650E-04
  641.00      4.24710E-04
  643.00      4.23860E-04
  645.00      4.21490E-04
  647.00      4.19130E-04
  649.00      4.16790E-04
  651.00      4.14070E-04
  653.00      4.08840E-04
  655.00      4.01120E-04
  657.00      3.75910E-04
  659.00      4.03220E-04
  661.00      4.03080E-04
  663.00      4.00950E-04
  665.00      3.98810E-04
  667.00      3.94240E-04
  669.00      3.89870E-04
  671.00      3.92300E-04
  673.00      3.90230E-04
  675.00      3.88130E-04
  677.00      3.86050E-04
  679.00      3.83980E-04
  681.00      3.81930E-04
  683.00      3.79890E-04
  685.00      3.77870E-04
  687.00      3.75860E-04
  689.00      3.70710E-04
  691.00      3.71750E-04
  693.00      3.69950E-04
  695.00      3.68010E-04
  697.00      3.66080E-04
  699.00      3.64170E-04
  701.00      3.62270E-04
  703.00      3.60390E-04
  705.00      3.58520E-04
  707.00      3.54280E-04
  709.00      3.54840E-04
  711.00      3.53020E-04
  713.00      3.51210E-04
  715.00      3.49410E-04
  717.00      3.45320E-04
  719.00      3.44460E-04
  721.00      3.44100E-04
  723.00      3.42360E-04
  725.00      3.40640E-04
  727.00      3.38920E-04
  729.00      3.36150E-04
  731.00      3.35520E-04
  733.00      3.33850E-04
  735.00      3.32190E-04
  737.00      3.30530E-04
  739.00      3.28900E-04
  741.00      3.27270E-04
  743.00      3.25650E-04
  745.00      3.24050E-04
  747.00      3.22460E-04
  749.00      3.20880E-04
  751.00      3.19310E-04
  753.00      3.17760E-04
  755.00      3.16210E-04
  757.00      3.14670E-04
  759.00      3.09470E-04
  761.00      3.11400E-04
  763.00      3.10140E-04
  765.00      3.08650E-04
  767.00      3.07170E-04
  769.00      3.05690E-04
  771.00      3.04240E-04
  773.00      3.02770E-04
  775.00      3.01350E-04
  777.00      2.99920E-04
  779.00      2.98500E-04
  781.00      2.97070E-04
  783.00      2.95700E-04
  785.00      2.94380E-04
  787.00      2.93000E-04
  789.00      2.91630E-04
  791.00      2.90270E-04
  793.00      2.88920E-04
  795.00      2.87580E-04
  797.00      2.86240E-04
  799.00      2.84920E-04
  801.00      2.83610E-04
  803.00      2.82300E-04
  805.00      2.81010E-04
  807.00      2.79720E-04
  809.00      2.78440E-04
  811.00      2.77170E-04
  813.00      2.75910E-04
  815.00      2.74660E-04
  817.00      2.73410E-04
  819.00      2.71370E-04
  821.00      2.63870E-04
  823.00      2.61180E-04
  825.00      2.61240E-04
  827.00      2.60400E-04
  829.00      2.59470E-04
  831.00      2.58390E-04
  833.00      2.57240E-04
  835.00      2.55960E-04
  837.00      2.55030E-04
  839.00      2.54010E-04
  841.00      2.52970E-04
  843.00      2.51920E-04
  845.00      2.50620E-04
  847.00      2.49930E-04
  849.00      2.48960E-04
  851.00      2.48110E-04
  853.00      2.47100E-04
  855.00      2.46200E-04
  857.00      2.45570E-04
  859.00      2.43870E-04
  861.00      2.43550E-04
  863.00      2.43380E-04
  865.00      2.41820E-04
  867.00      2.40050E-04
  869.00      2.41050E-04
  871.00      2.40840E-04
  873.00      2.38890E-04
  875.00      2.35030E-04
  877.00      2.36680E-04
  879.00      2.38180E-04
  881.00      2.37910E-04
  883.00      2.36730E-04
  885.00      2.31750E-04
  887.00      2.27470E-04
  889.00      2.33060E-04
  891.00      2.34020E-04
  893.00      2.33540E-04
  895.00      2.32910E-04
  897.00      2.31560E-04
  899.00      2.28170E-04
  901.00      2.19050E-04
  903.00      2.21700E-04
  905.00      2.26640E-04
  907.00      2.26330E-04
  909.00      2.26350E-04
  911.00      2.25610E-04
  913.00      2.25200E-04
  915.00      2.24200E-04
  917.00      2.22620E-04
  919.00      2.21000E-04
  921.00      2.15980E-04
  923.00      2.05740E-04
  925.00      2.13900E-04
  927.00      2.17240E-04
  929.00      2.17330E-04
  931.00      2.16640E-04
  933.00      2.15920E-04
  935.00      2.11340E-04
  937.00      2.13970E-04
  939.00      2.13630E-04
  941.00      2.12780E-04
  943.00      2.11930E-04
  945.00      2.11080E-04
  947.00      2.09800E-04
  949.00      2.08810E-04
  951.00      2.06400E-04
  953.00      2.01230E-04
  955.00      1.91520E-04
  957.00      2.01470E-04
  959.00      2.04020E-04
  961.00      2.03950E-04
  963.00      2.03380E-04
  965.00      2.02920E-04
  967.00      2.02130E-04
  969.00      2.01310E-04
  971.00      2.00380E-04
  973.00      1.99790E-04
  975.00      1.98930E-04
  977.00      1.97790E-04
  979.00      1.97490E-04
  981.00      1.96730E-04
  983.00      1.95980E-04
  985.00      1.95230E-04
  987.00      1.94480E-04
  989.00      1.93740E-04
  991.00      1.93000E-04
  993.00      1.92270E-04
  995.00      1.91540E-04
  997.00      1.90810E-04
  999.00      1.89650E-04
  1002.5      1.83980E-04
  1007.5      1.80870E-04
  1012.5      1.82660E-04
  1017.5      1.83620E-04
  1022.5      1.81910E-04
  1027.5      1.80260E-04
  1032.5      1.78300E-04
  1037.5      1.76980E-04
  1042.5      1.74970E-04
  1047.5      1.73800E-04
  1052.5      1.72240E-04
  1057.5      1.70700E-04
  1062.5      1.69180E-04
  1067.5      1.67610E-04
  1072.5      1.66200E-04
  1077.5      1.64740E-04
  1082.5      1.62600E-04
  1087.5      1.61470E-04
  1092.5      1.53180E-04
  1097.5      1.56630E-04
  1102.5      1.57380E-04
  1107.5      1.56340E-04
  1112.5      1.55040E-04
  1117.5      1.53770E-04
  1122.5      1.52450E-04
  1127.5      1.51190E-04
  1132.5      1.49920E-04
  1137.5      1.48670E-04
  1142.5      1.47430E-04
  1147.5      1.46210E-04
  1152.5      1.45010E-04
  1157.5      1.43820E-04
  1162.5      1.41510E-04
  1167.5      1.40880E-04
  1172.5      1.40330E-04
  1177.5      1.39200E-04
  1182.5      1.38080E-04
  1187.5      1.36980E-04
  1192.5      1.35880E-04
  1197.5      1.34240E-04
  1202.5      1.33740E-04
  1207.5      1.32680E-04
  1212.5      1.31640E-04
  1217.5      1.30610E-04
  1222.5      1.29590E-04
  1227.5      1.28590E-04
  1232.5      1.27590E-04
  1237.5      1.26610E-04
  1242.5      1.25640E-04
  1247.5      1.24680E-04
  1252.5      1.23650E-04
  1257.5      1.22790E-04
  1262.5      1.21860E-04
  1267.5      1.20940E-04
  1272.5      1.20010E-04
  1277.5      1.17870E-04
  1282.5      1.12660E-04
  1287.5      1.16770E-04
  1292.5      1.16510E-04
  1297.5      1.15400E-04
  1302.5      1.14800E-04
  1307.5      1.13960E-04
  1312.5      1.13130E-04
  1317.5      1.12310E-04
  1322.5      1.11500E-04
  1327.5      1.10700E-04
  1332.5      1.09900E-04
  1337.5      1.09110E-04
  1342.5      1.08310E-04
  1347.5      1.07570E-04
  1352.5      1.06810E-04
  1357.5      1.06050E-04
  1362.5      1.05310E-04
  1367.5      1.04570E-04
  1372.5      1.03840E-04
  1377.5      1.03120E-04
  1382.5      1.02400E-04
  1387.5      1.01690E-04
  1392.5      1.00990E-04
  1397.5      1.00300E-04
