 Castelli and Kurucz 2004-2012 Atmosphere
 T     46000.     G    4.50000 [-2.0a] N(He)/Ntot=0.0784 VTURB=2.0  L/H=1.25 OD
 Wavelength  Eddington Hnu
   (nm)    (ergs/s/cm2/Hz/sr)
  9.0900      5.37940E-20
  9.3500      1.53070E-19
  9.6100      4.11580E-19
  9.7700      7.40410E-19
  9.9600      1.44940E-18
  10.200      3.27390E-18
  10.380      5.90060E-18
  10.560      1.04380E-17
  10.770      1.98600E-17
  11.040      4.39670E-17
  11.400      1.20260E-16
  11.780      3.28010E-16
  12.130      7.86380E-16
  12.480      1.80390E-15
  12.710      3.04610E-15
  12.840      4.06770E-15
  13.050      6.41460E-15
  13.240      9.58260E-15
  13.390      1.30660E-14
  13.660      2.24920E-14
  13.980      4.18650E-14
  14.330      8.02700E-14
  14.720      1.59920E-13
  15.100      3.06370E-13
  15.520      6.05410E-13
  15.880      1.05870E-12
  16.200      1.71270E-12
  16.600      3.04600E-12
  17.030      5.48870E-12
  17.340      8.26160E-12
  17.680      1.27870E-11
  18.020      1.94550E-11
  18.170      2.31620E-11
  18.610      3.89450E-11
  19.100      6.72170E-11
  19.390      9.19060E-11
  19.840      1.46390E-10
  20.180      2.05510E-10
  20.500      2.80120E-10
  21.050      4.66970E-10
  21.620      7.71970E-10
  21.980      1.04770E-09
  22.300      1.36210E-09
  22.680      1.83930E-09
  23.000      1.36140E-07
  23.400      9.24650E-07
  24.000      1.05360E-05
  24.650      6.80580E-05
  25.240      1.44060E-04
  25.680      1.06800E-04
  26.000      2.33110E-04
  26.400      3.20460E-04
  26.850      3.64710E-04
  27.350      4.33790E-04
  27.850      4.38710E-04
  28.400      5.25130E-04
  29.000      5.93140E-04
  29.600      5.26130E-04
  30.100      2.18050E-04
  30.800      3.41290E-04
  31.800      4.78980E-04
  32.800      5.48000E-04
  33.800      5.27490E-04
  34.800      5.53950E-04
  35.700      7.32250E-04
  36.600      8.65210E-04
  37.500      9.32910E-04
  38.500      8.90960E-04
  39.500      1.05490E-03
  40.500      1.17500E-03
  41.400      1.22450E-03
  42.200      1.22400E-03
  43.000      1.25060E-03
  44.100      1.36820E-03
  45.100      1.42360E-03
  46.000      1.41310E-03
  47.000      1.45400E-03
  48.000      1.52920E-03
  49.000      1.50340E-03
  50.000      1.62740E-03
  50.600      1.58230E-03
  51.200      1.77450E-03
  52.000      1.77830E-03
  53.000      1.82130E-03
  54.000      1.75990E-03
  55.000      1.70200E-03
  56.000      1.90690E-03
  57.000      1.98330E-03
  58.000      1.99560E-03
  59.000      2.05430E-03
  60.000      2.03340E-03
  61.000      1.97540E-03
  62.000      2.10820E-03
  63.000      2.09930E-03
  64.000      2.18430E-03
  65.000      2.17160E-03
  65.800      2.13070E-03
  66.500      2.23230E-03
  67.500      2.27240E-03
  68.500      2.22310E-03
  69.500      2.32150E-03
  70.500      2.24530E-03
  71.600      2.36220E-03
  72.600      2.40150E-03
  73.500      2.41940E-03
  74.500      2.41700E-03
  75.500      2.41750E-03
  76.500      2.39670E-03
  77.500      2.46460E-03
  78.500      2.43950E-03
  79.500      2.47950E-03
  80.500      2.51050E-03
  81.500      2.53070E-03
  82.500      2.55400E-03
  83.500      2.48190E-03
  84.500      2.57220E-03
  85.500      2.55700E-03
  86.500      2.60390E-03
  87.500      2.62560E-03
  88.500      2.62540E-03
  89.500      2.63380E-03
  90.500      2.61670E-03
  91.500      2.09830E-03
  92.500      3.48100E-03
  93.500      4.32640E-03
  94.500      5.05110E-03
  95.500      5.43790E-03
  96.500      5.91480E-03
  97.500      5.04250E-03
  98.500      5.80490E-03
  99.500      5.52650E-03
  100.50      5.78170E-03
  101.50      5.75290E-03
  102.50      4.99360E-03
  103.50      5.71040E-03
  104.50      5.72320E-03
  105.50      5.69560E-03
  106.50      5.58170E-03
  107.50      5.58840E-03
  108.50      5.37420E-03
  109.50      5.55060E-03
  110.50      5.49080E-03
  111.50      5.44450E-03
  112.50      5.36500E-03
  113.50      5.40470E-03
  114.50      5.37010E-03
  115.50      5.29730E-03
  116.50      5.25340E-03
  117.50      5.06210E-03
  118.50      5.21010E-03
  119.50      5.14870E-03
  120.50      5.12940E-03
  121.50      4.43370E-03
  122.50      5.05600E-03
  123.50      4.98090E-03
  124.50      4.94340E-03
  125.50      4.96720E-03
  126.50      4.93170E-03
  127.50      4.89720E-03
  128.50      4.86230E-03
  129.50      4.82890E-03
  130.50      4.78610E-03
  131.50      4.75420E-03
  132.50      4.71100E-03
  133.50      4.68660E-03
  134.50      4.65740E-03
  135.50      4.60870E-03
  136.50      4.55610E-03
  137.50      4.48600E-03
  138.50      4.49710E-03
  139.50      4.43570E-03
  140.50      4.36860E-03
  141.50      4.41240E-03
  142.50      4.37530E-03
  143.50      4.35500E-03
  144.20      4.30660E-03
  144.70      4.29830E-03
  145.50      4.26880E-03
  146.50      4.24170E-03
  147.50      4.22460E-03
  148.50      4.21070E-03
  149.50      4.17610E-03
  150.50      4.15120E-03
  151.20      4.13430E-03
  151.70      4.11150E-03
  152.50      4.09400E-03
  153.50      4.05290E-03
  154.50      3.93020E-03
  155.50      3.91390E-03
  156.50      3.96370E-03
  157.50      3.94450E-03
  158.50      3.90880E-03
  159.50      3.88560E-03
  160.50      3.84940E-03
  161.50      3.82400E-03
  162.50      3.78440E-03
  163.50      3.70940E-03
  164.50      3.55400E-03
  165.50      3.72500E-03
  166.50      3.70180E-03
  167.20      3.67110E-03
  167.70      3.67350E-03
  168.50      3.65360E-03
  169.50      3.62950E-03
  170.50      3.60210E-03
  171.50      3.54310E-03
  172.50      3.53710E-03
  173.50      3.53110E-03
  174.50      3.50520E-03
  175.50      3.47990E-03
  176.50      3.45740E-03
  177.50      3.43480E-03
  178.50      3.41220E-03
  179.50      3.38780E-03
  180.50      3.36500E-03
  181.50      3.34230E-03
  182.50      3.31960E-03
  183.50      3.29750E-03
  184.50      3.27510E-03
  185.50      3.25230E-03
  186.50      3.23060E-03
  187.50      3.20860E-03
  188.50      3.18710E-03
  189.50      3.16700E-03
  190.50      3.14590E-03
  191.50      3.12460E-03
  192.50      3.10020E-03
  193.50      3.08360E-03
  194.50      3.06320E-03
  195.50      3.04280E-03
  196.70      3.01890E-03
  197.60      3.00030E-03
  198.40      2.98540E-03
  199.50      2.96350E-03
  200.50      2.94470E-03
  201.50      2.92560E-03
  202.50      2.90660E-03
  203.50      2.88770E-03
  204.50      2.86750E-03
  205.50      2.25050E-03
  206.50      2.18910E-03
  207.40      2.24250E-03
  207.80      2.29770E-03
  208.50      2.45840E-03
  209.50      2.70840E-03
  210.50      2.76040E-03
  211.50      2.75160E-03
  212.50      2.73490E-03
  213.50      2.71340E-03
  214.50      2.70110E-03
  215.50      2.72560E-03
  216.50      2.64840E-03
  217.50      2.70830E-03
  218.50      2.61760E-03
  219.50      2.67390E-03
  220.50      2.66010E-03
  221.50      2.56740E-03
  222.50      2.62690E-03
  223.50      2.61110E-03
  224.50      2.59330E-03
  225.50      2.50760E-03
  226.50      2.56270E-03
  227.50      2.54720E-03
  228.50      2.53060E-03
  229.50      2.50460E-03
  230.50      2.43410E-03
  231.50      2.48340E-03
  232.50      2.47020E-03
  233.50      2.45530E-03
  234.50      2.44040E-03
  235.50      2.42570E-03
  236.50      2.41110E-03
  237.50      2.39630E-03
  238.50      2.31900E-03
  239.50      2.36510E-03
  240.50      2.35310E-03
  241.50      2.33860E-03
  242.50      2.32600E-03
  243.50      2.31200E-03
  244.50      2.29850E-03
  245.50      2.28340E-03
  246.50      2.27150E-03
  247.50      2.25840E-03
  248.50      2.24500E-03
  249.50      2.19350E-03
  250.50      2.21270E-03
  251.30      2.08380E-03
  251.80      2.19590E-03
  252.50      2.19120E-03
  253.50      2.18080E-03
  254.50      2.16840E-03
  255.50      2.15580E-03
  256.50      2.14360E-03
  257.50      2.13130E-03
  258.50      2.11910E-03
  259.50      2.10480E-03
  260.50      2.09540E-03
  261.50      2.08260E-03
  262.50      2.07180E-03
  263.50      2.06020E-03
  264.50      2.04860E-03
  265.50      2.03720E-03
  266.50      2.02570E-03
  267.50      2.01330E-03
  268.50      2.00310E-03
  269.50      1.99180E-03
  270.50      1.98130E-03
  271.50      1.97030E-03
  272.50      1.95900E-03
  273.50      1.89960E-03
  274.50      1.93810E-03
  275.50      1.92750E-03
  276.50      1.91660E-03
  277.50      1.90650E-03
  278.50      1.89590E-03
  279.50      1.88560E-03
  280.50      1.87580E-03
  281.50      1.86570E-03
  282.50      1.85510E-03
  283.50      1.84560E-03
  284.50      1.83600E-03
  285.50      1.82620E-03
  286.50      1.81650E-03
  287.50      1.80690E-03
  288.50      1.79740E-03
  289.50      1.78780E-03
  291.00      1.77380E-03
  293.00      1.75530E-03
  295.00      1.73660E-03
  297.00      1.71880E-03
  299.00      1.70050E-03
  301.00      1.68360E-03
  303.00      1.66570E-03
  305.00      1.64890E-03
  307.00      1.63200E-03
  309.00      1.61660E-03
  311.00      1.60040E-03
  313.00      1.58420E-03
  315.00      1.56890E-03
  317.00      1.55330E-03
  319.00      1.53720E-03
  321.00      1.50200E-03
  323.00      1.50840E-03
  325.00      1.49380E-03
  327.00      1.47780E-03
  329.00      1.46500E-03
  331.00      1.45100E-03
  333.00      1.43730E-03
  335.00      1.42310E-03
  337.00      1.41030E-03
  339.00      1.39680E-03
  341.00      1.38360E-03
  343.00      1.37120E-03
  345.00      1.35810E-03
  347.00      1.34600E-03
  349.00      1.33370E-03
  351.00      1.32150E-03
  353.00      1.30930E-03
  355.00      1.29730E-03
  357.00      1.28590E-03
  359.00      1.27400E-03
  361.00      1.26280E-03
  363.00      1.25120E-03
  364.00      1.22270E-03
  365.00      1.12540E-03
  367.00      1.11690E-03
  369.00      1.11110E-03
  371.00      1.11280E-03
  373.00      1.11970E-03
  375.00      1.13660E-03
  377.00      1.14870E-03
  379.00      1.16140E-03
  381.00      1.17210E-03
  383.00      1.13000E-03
  385.00      1.16500E-03
  387.00      1.16720E-03
  389.00      1.09320E-03
  391.00      1.15080E-03
  393.00      1.13400E-03
  395.00      1.13310E-03
  397.00      1.05550E-03
  399.00      1.11360E-03
  401.00      1.10800E-03
  403.00      1.08170E-03
  405.00      1.09060E-03
  407.00      1.08140E-03
  409.00      1.05510E-03
  411.00      1.00720E-03
  413.00      1.05390E-03
  415.00      1.04610E-03
  417.00      1.03800E-03
  419.00      1.02600E-03
  421.00      1.00850E-03
  423.00      1.01320E-03
  425.00      1.00510E-03
  427.00      9.97070E-04
  429.00      9.89150E-04
  431.00      9.80930E-04
  433.00      9.51810E-04
  435.00      9.21680E-04
  437.00      9.57680E-04
  439.00      9.49940E-04
  441.00      9.43520E-04
  443.00      9.36170E-04
  445.00      9.29020E-04
  447.00      9.18170E-04
  449.00      9.14830E-04
  451.00      9.07870E-04
  453.00      8.99960E-04
  455.00      8.81030E-04
  457.00      8.87420E-04
  459.00      8.80770E-04
  461.00      8.74170E-04
  463.00      8.67520E-04
  465.00      8.60700E-04
  467.00      8.54150E-04
  469.00      8.23210E-04
  471.00      8.41660E-04
  473.00      8.36140E-04
  475.00      8.30050E-04
  477.00      8.24010E-04
  479.00      8.18040E-04
  481.00      8.12130E-04
  483.00      8.05990E-04
  485.00      7.87610E-04
  487.00      7.54280E-04
  489.00      7.88320E-04
  491.00      7.83540E-04
  493.00      7.76590E-04
  495.00      7.72540E-04
  497.00      7.67120E-04
  499.00      7.61760E-04
  501.00      7.55750E-04
  503.00      7.51190E-04
  505.00      7.45870E-04
  507.00      7.40840E-04
  509.00      7.35750E-04
  511.00      7.30710E-04
  513.00      7.25720E-04
  515.00      7.20780E-04
  517.00      7.15890E-04
  519.00      7.11040E-04
  521.00      7.06250E-04
  523.00      7.01510E-04
  525.00      6.96800E-04
  527.00      6.92130E-04
  529.00      6.87550E-04
  531.00      6.82990E-04
  533.00      6.78470E-04
  535.00      6.74000E-04
  537.00      6.69570E-04
  539.00      6.65180E-04
  541.00      6.50360E-04
  543.00      6.56530E-04
  545.00      6.52290E-04
  547.00      6.48070E-04
  549.00      6.43900E-04
  551.00      6.39740E-04
  553.00      6.35660E-04
  555.00      6.31600E-04
  557.00      6.27580E-04
  559.00      6.23490E-04
  561.00      6.19660E-04
  563.00      6.15750E-04
  565.00      6.11880E-04
  567.00      6.08040E-04
  569.00      5.97560E-04
  571.00      5.64800E-04
  573.00      5.61540E-04
  575.00      5.58310E-04
  577.00      5.55210E-04
  579.00      5.52400E-04
  581.00      5.49920E-04
  583.00      5.48310E-04
  585.00      5.47120E-04
  587.00      5.44230E-04
  589.00      5.45560E-04
  591.00      5.45300E-04
  593.00      5.45450E-04
  595.00      5.46070E-04
  597.00      5.46690E-04
  599.00      5.47840E-04
  601.00      5.46130E-04
  603.00      5.43990E-04
  605.00      5.42320E-04
  607.00      5.38530E-04
  609.00      5.36100E-04
  611.00      5.32460E-04
  613.00      5.29370E-04
  615.00      5.27050E-04
  617.00      5.22130E-04
  619.00      5.20850E-04
  621.00      5.17930E-04
  623.00      5.12820E-04
  625.00      5.11580E-04
  627.00      5.09040E-04
  629.00      5.06120E-04
  631.00      5.00300E-04
  633.00      5.00170E-04
  635.00      4.97540E-04
  637.00      4.94720E-04
  639.00      4.91740E-04
  641.00      4.85410E-04
  643.00      4.86410E-04
  645.00      4.83700E-04
  647.00      4.81000E-04
  649.00      4.78320E-04
  651.00      4.75470E-04
  653.00      4.68180E-04
  655.00      4.65890E-04
  657.00      4.42340E-04
  659.00      4.64750E-04
  661.00      4.62710E-04
  663.00      4.60190E-04
  665.00      4.57690E-04
  667.00      4.54080E-04
  669.00      4.47150E-04
  671.00      4.50260E-04
  673.00      4.47870E-04
  675.00      4.45460E-04
  677.00      4.43070E-04
  679.00      4.40700E-04
  681.00      4.38350E-04
  683.00      4.36020E-04
  685.00      4.33710E-04
  687.00      4.31410E-04
  689.00      4.23740E-04
  691.00      4.26700E-04
  693.00      4.24640E-04
  695.00      4.22410E-04
  697.00      4.20210E-04
  699.00      4.18020E-04
  701.00      4.15850E-04
  703.00      4.13690E-04
  705.00      4.11550E-04
  707.00      4.08620E-04
  709.00      4.07330E-04
  711.00      4.05240E-04
  713.00      4.03160E-04
  715.00      4.01110E-04
  717.00      3.95530E-04
  719.00      3.95090E-04
  721.00      3.95030E-04
  723.00      3.93030E-04
  725.00      3.91050E-04
  727.00      3.89090E-04
  729.00      3.86910E-04
  731.00      3.85200E-04
  733.00      3.83280E-04
  735.00      3.81370E-04
  737.00      3.79480E-04
  739.00      3.77600E-04
  741.00      3.75730E-04
  743.00      3.73880E-04
  745.00      3.72040E-04
  747.00      3.70220E-04
  749.00      3.68410E-04
  751.00      3.66610E-04
  753.00      3.64830E-04
  755.00      3.63050E-04
  757.00      3.61290E-04
  759.00      3.54600E-04
  761.00      3.57540E-04
  763.00      3.56090E-04
  765.00      3.54380E-04
  767.00      3.52690E-04
  769.00      3.51000E-04
  771.00      3.49330E-04
  773.00      3.47660E-04
  775.00      3.46020E-04
  777.00      3.44380E-04
  779.00      3.42760E-04
  781.00      3.41140E-04
  783.00      3.39540E-04
  785.00      3.37950E-04
  787.00      3.36370E-04
  789.00      3.34800E-04
  791.00      3.33250E-04
  793.00      3.31700E-04
  795.00      3.30160E-04
  797.00      3.28630E-04
  799.00      3.27120E-04
  801.00      3.25620E-04
  803.00      3.24120E-04
  805.00      3.22640E-04
  807.00      3.21160E-04
  809.00      3.19700E-04
  811.00      3.18240E-04
  813.00      3.16800E-04
  815.00      3.15360E-04
  817.00      3.13930E-04
  819.00      3.11300E-04
  821.00      2.99510E-04
  823.00      2.96640E-04
  825.00      2.96640E-04
  827.00      2.95660E-04
  829.00      2.94430E-04
  831.00      2.93180E-04
  833.00      2.91940E-04
  835.00      2.90720E-04
  837.00      2.89560E-04
  839.00      2.88420E-04
  841.00      2.87380E-04
  843.00      2.86340E-04
  845.00      2.85300E-04
  847.00      2.84360E-04
  849.00      2.83530E-04
  851.00      2.82590E-04
  853.00      2.81860E-04
  855.00      2.80770E-04
  857.00      2.80370E-04
  859.00      2.79140E-04
  861.00      2.78360E-04
  863.00      2.78310E-04
  865.00      2.77250E-04
  867.00      2.75090E-04
  869.00      2.76310E-04
  871.00      2.76040E-04
  873.00      2.74960E-04
  875.00      2.70610E-04
  877.00      2.73030E-04
  879.00      2.73740E-04
  881.00      2.73290E-04
  883.00      2.72470E-04
  885.00      2.68550E-04
  887.00      2.63230E-04
  889.00      2.68550E-04
  891.00      2.68540E-04
  893.00      2.67500E-04
  895.00      2.67030E-04
  897.00      2.65640E-04
  899.00      2.63260E-04
  901.00      2.54790E-04
  903.00      2.57370E-04
  905.00      2.60590E-04
  907.00      2.60240E-04
  909.00      2.59360E-04
  911.00      2.57730E-04
  913.00      2.57290E-04
  915.00      2.56240E-04
  917.00      2.55150E-04
  919.00      2.53760E-04
  921.00      2.50590E-04
  923.00      2.40530E-04
  925.00      2.48040E-04
  927.00      2.49570E-04
  929.00      2.49060E-04
  931.00      2.48030E-04
  933.00      2.46870E-04
  935.00      2.41430E-04
  937.00      2.43970E-04
  939.00      2.44070E-04
  941.00      2.43140E-04
  943.00      2.42170E-04
  945.00      2.41210E-04
  947.00      2.40210E-04
  949.00      2.39310E-04
  951.00      2.37740E-04
  953.00      2.34250E-04
  955.00      2.24610E-04
  957.00      2.33390E-04
  959.00      2.34350E-04
  961.00      2.33730E-04
  963.00      2.32780E-04
  965.00      2.31920E-04
  967.00      2.31020E-04
  969.00      2.30120E-04
  971.00      2.29210E-04
  973.00      2.28340E-04
  975.00      2.27180E-04
  977.00      2.25160E-04
  979.00      2.25720E-04
  981.00      2.24860E-04
  983.00      2.24000E-04
  985.00      2.23140E-04
  987.00      2.22290E-04
  989.00      2.21450E-04
  991.00      2.20610E-04
  993.00      2.19770E-04
  995.00      2.18940E-04
  997.00      2.18110E-04
  999.00      2.17290E-04
  1002.5      2.13130E-04
  1007.5      2.09710E-04
  1012.5      2.08900E-04
  1017.5      2.09910E-04
  1022.5      2.07980E-04
  1027.5      2.06080E-04
  1032.5      2.04130E-04
  1037.5      2.02340E-04
  1042.5      1.99550E-04
  1047.5      1.98710E-04
  1052.5      1.96940E-04
  1057.5      1.95180E-04
  1062.5      1.93450E-04
  1067.5      1.91730E-04
  1072.5      1.90050E-04
  1077.5      1.88390E-04
  1082.5      1.86470E-04
  1087.5      1.85090E-04
  1092.5      1.78420E-04
  1097.5      1.80840E-04
  1102.5      1.80370E-04
  1107.5      1.78840E-04
  1112.5      1.77320E-04
  1117.5      1.75920E-04
  1122.5      1.74430E-04
  1127.5      1.72970E-04
  1132.5      1.71520E-04
  1137.5      1.70090E-04
  1142.5      1.68680E-04
  1147.5      1.67290E-04
  1152.5      1.65910E-04
  1157.5      1.64550E-04
  1162.5      1.61740E-04
  1167.5      1.60840E-04
  1172.5      1.60570E-04
  1177.5      1.59280E-04
  1182.5      1.58000E-04
  1187.5      1.56740E-04
  1192.5      1.55490E-04
  1197.5      1.54160E-04
  1202.5      1.53030E-04
  1207.5      1.51830E-04
  1212.5      1.50640E-04
  1217.5      1.49460E-04
  1222.5      1.48290E-04
  1227.5      1.47140E-04
  1232.5      1.46010E-04
  1237.5      1.44880E-04
  1242.5      1.43770E-04
  1247.5      1.42670E-04
  1252.5      1.41580E-04
  1257.5      1.40520E-04
  1262.5      1.39450E-04
  1267.5      1.38400E-04
  1272.5      1.37370E-04
  1277.5      1.35890E-04
  1282.5      1.31120E-04
  1287.5      1.34170E-04
  1292.5      1.33330E-04
  1297.5      1.32320E-04
  1302.5      1.31380E-04
  1307.5      1.30420E-04
  1312.5      1.29470E-04
  1317.5      1.28530E-04
  1322.5      1.27600E-04
  1327.5      1.26680E-04
  1332.5      1.25770E-04
  1337.5      1.24870E-04
  1342.5      1.23980E-04
  1347.5      1.23100E-04
  1352.5      1.22230E-04
  1357.5      1.21370E-04
  1362.5      1.20520E-04
  1367.5      1.19670E-04
  1372.5      1.18840E-04
  1377.5      1.18010E-04
  1382.5      1.17190E-04
  1387.5      1.16390E-04
  1392.5      1.15580E-04
  1397.5      1.14790E-04
