 Castelli and Kurucz 2004-2012 Atmosphere
 T     47000.     G    4.50000 [-2.0a] N(He)/Ntot=0.0784 VTURB=2.0  L/H=1.25 OD
 Wavelength  Eddington Hnu
   (nm)    (ergs/s/cm2/Hz/sr)
  9.0900      2.06350E-19
  9.3500      5.69650E-19
  9.6100      1.48550E-18
  9.7700      2.62580E-18
  9.9600      5.03180E-18
  10.200      1.10690E-17
  10.380      1.95630E-17
  10.560      3.39510E-17
  10.770      6.31990E-17
  11.040      1.36040E-16
  11.400      3.59120E-16
  11.780      9.44540E-16
  12.130      2.19330E-15
  12.480      4.87580E-15
  12.710      8.07090E-15
  12.840      1.06640E-14
  13.050      1.65200E-14
  13.240      2.42930E-14
  13.390      3.27160E-14
  13.660      5.51090E-14
  13.980      1.00070E-13
  14.330      1.86890E-13
  14.720      3.61350E-13
  15.100      6.75090E-13
  15.520      1.29750E-12
  15.880      2.21740E-12
  16.200      3.52210E-12
  16.600      6.12190E-12
  17.030      1.07590E-11
  17.340      1.59250E-11
  17.680      2.42460E-11
  18.020      3.62910E-11
  18.170      4.28310E-11
  18.610      7.07160E-11
  19.100      1.19430E-10
  19.390      1.61480E-10
  19.840      2.52700E-10
  20.180      3.50290E-10
  20.500      4.72030E-10
  21.050      7.72080E-10
  21.620      1.25330E-09
  21.980      1.68280E-09
  22.300      2.16700E-09
  22.680      2.89320E-09
  23.000      1.97650E-07
  23.400      1.92450E-06
  24.000      2.00690E-05
  24.650      1.01460E-04
  25.240      2.00220E-04
  25.680      1.53160E-04
  26.000      3.08130E-04
  26.400      4.11270E-04
  26.850      4.55920E-04
  27.350      5.36310E-04
  27.850      5.42010E-04
  28.400      6.37620E-04
  29.000      7.17940E-04
  29.600      6.49720E-04
  30.100      3.04710E-04
  30.800      4.33160E-04
  31.800      5.82150E-04
  32.800      6.56580E-04
  33.800      6.31400E-04
  34.800      6.60390E-04
  35.700      8.63990E-04
  36.600      1.01660E-03
  37.500      1.09320E-03
  38.500      1.03860E-03
  39.500      1.22830E-03
  40.500      1.36800E-03
  41.400      1.42360E-03
  42.200      1.42280E-03
  43.000      1.45650E-03
  44.100      1.59130E-03
  45.100      1.65430E-03
  46.000      1.64140E-03
  47.000      1.68720E-03
  48.000      1.77230E-03
  49.000      1.74610E-03
  50.000      1.88510E-03
  50.600      1.82230E-03
  51.200      2.00320E-03
  52.000      2.00610E-03
  53.000      2.05460E-03
  54.000      1.98520E-03
  55.000      1.91140E-03
  56.000      2.13630E-03
  57.000      2.21850E-03
  58.000      2.23500E-03
  59.000      2.29590E-03
  60.000      2.27210E-03
  61.000      2.20040E-03
  62.000      2.34270E-03
  63.000      2.32650E-03
  64.000      2.42250E-03
  65.000      2.40650E-03
  65.800      2.36130E-03
  66.500      2.47210E-03
  67.500      2.51000E-03
  68.500      2.45420E-03
  69.500      2.56020E-03
  70.500      2.47540E-03
  71.600      2.59710E-03
  72.600      2.63870E-03
  73.500      2.65550E-03
  74.500      2.65190E-03
  75.500      2.64790E-03
  76.500      2.61990E-03
  77.500      2.69560E-03
  78.500      2.66420E-03
  79.500      2.70540E-03
  80.500      2.73920E-03
  81.500      2.75740E-03
  82.500      2.77940E-03
  83.500      2.70260E-03
  84.500      2.79540E-03
  85.500      2.77510E-03
  86.500      2.82430E-03
  87.500      2.84600E-03
  88.500      2.84260E-03
  89.500      2.85020E-03
  90.500      2.82940E-03
  91.500      2.25720E-03
  92.500      3.70660E-03
  93.500      4.56630E-03
  94.500      5.28620E-03
  95.500      5.68260E-03
  96.500      6.14730E-03
  97.500      5.28180E-03
  98.500      6.03040E-03
  99.500      5.74580E-03
  100.50      6.00170E-03
  101.50      5.96930E-03
  102.50      5.21880E-03
  103.50      5.92480E-03
  104.50      5.93720E-03
  105.50      5.90800E-03
  106.50      5.79150E-03
  107.50      5.80230E-03
  108.50      5.58220E-03
  109.50      5.75560E-03
  110.50      5.69380E-03
  111.50      5.64600E-03
  112.50      5.56740E-03
  113.50      5.60400E-03
  114.50      5.56740E-03
  115.50      5.49370E-03
  116.50      5.44440E-03
  117.50      5.26200E-03
  118.50      5.40250E-03
  119.50      5.33600E-03
  120.50      5.31720E-03
  121.50      4.62170E-03
  122.50      5.24040E-03
  123.50      5.15730E-03
  124.50      5.11960E-03
  125.50      5.14410E-03
  126.50      5.10670E-03
  127.50      5.07020E-03
  128.50      5.03310E-03
  129.50      4.99910E-03
  130.50      4.95350E-03
  131.50      4.91990E-03
  132.50      4.87430E-03
  133.50      4.84890E-03
  134.50      4.81860E-03
  135.50      4.76690E-03
  136.50      4.71080E-03
  137.50      4.63450E-03
  138.50      4.64980E-03
  139.50      4.58840E-03
  140.50      4.51720E-03
  141.50      4.56220E-03
  142.50      4.52450E-03
  143.50      4.50280E-03
  144.20      4.45090E-03
  144.70      4.44270E-03
  145.50      4.41200E-03
  146.50      4.38340E-03
  147.50      4.36670E-03
  148.50      4.35250E-03
  149.50      4.31660E-03
  150.50      4.29030E-03
  151.20      4.27250E-03
  151.70      4.24890E-03
  152.50      4.23120E-03
  153.50      4.18960E-03
  154.50      4.06570E-03
  155.50      4.04650E-03
  156.50      4.09750E-03
  157.50      4.07630E-03
  158.50      4.03860E-03
  159.50      4.01460E-03
  160.50      3.97830E-03
  161.50      3.95200E-03
  162.50      3.91160E-03
  163.50      3.83620E-03
  164.50      3.67680E-03
  165.50      3.84750E-03
  166.50      3.82330E-03
  167.20      3.79220E-03
  167.70      3.79300E-03
  168.50      3.77250E-03
  169.50      3.74730E-03
  170.50      3.71890E-03
  171.50      3.65860E-03
  172.50      3.65140E-03
  173.50      3.64470E-03
  174.50      3.61780E-03
  175.50      3.59190E-03
  176.50      3.56800E-03
  177.50      3.54430E-03
  178.50      3.52070E-03
  179.50      3.49540E-03
  180.50      3.47160E-03
  181.50      3.44800E-03
  182.50      3.42450E-03
  183.50      3.40130E-03
  184.50      3.37810E-03
  185.50      3.35450E-03
  186.50      3.33190E-03
  187.50      3.30910E-03
  188.50      3.28670E-03
  189.50      3.26560E-03
  190.50      3.24370E-03
  191.50      3.22160E-03
  192.50      3.19670E-03
  193.50      3.17890E-03
  194.50      3.15780E-03
  195.50      3.13670E-03
  196.70      3.11180E-03
  197.60      3.09230E-03
  198.40      3.07700E-03
  199.50      3.05420E-03
  200.50      3.03470E-03
  201.50      3.01480E-03
  202.50      2.99510E-03
  203.50      2.97550E-03
  204.50      2.95450E-03
  205.50      2.32710E-03
  206.50      2.26460E-03
  207.40      2.31870E-03
  207.80      2.37490E-03
  208.50      2.53860E-03
  209.50      2.79170E-03
  210.50      2.84310E-03
  211.50      2.83350E-03
  212.50      2.81610E-03
  213.50      2.79380E-03
  214.50      2.78060E-03
  215.50      2.80480E-03
  216.50      2.72670E-03
  217.50      2.78610E-03
  218.50      2.69460E-03
  219.50      2.75060E-03
  220.50      2.73610E-03
  221.50      2.64260E-03
  222.50      2.70180E-03
  223.50      2.68540E-03
  224.50      2.66750E-03
  225.50      2.58050E-03
  226.50      2.63540E-03
  227.50      2.61940E-03
  228.50      2.60230E-03
  229.50      2.57630E-03
  230.50      2.50430E-03
  231.50      2.55350E-03
  232.50      2.53980E-03
  233.50      2.52440E-03
  234.50      2.50890E-03
  235.50      2.49370E-03
  236.50      2.47860E-03
  237.50      2.46340E-03
  238.50      2.38520E-03
  239.50      2.43150E-03
  240.50      2.41860E-03
  241.50      2.40380E-03
  242.50      2.39070E-03
  243.50      2.37630E-03
  244.50      2.36230E-03
  245.50      2.34660E-03
  246.50      2.33440E-03
  247.50      2.32080E-03
  248.50      2.30700E-03
  249.50      2.25630E-03
  250.50      2.27390E-03
  251.30      2.14330E-03
  251.80      2.25670E-03
  252.50      2.25130E-03
  253.50      2.24070E-03
  254.50      2.22780E-03
  255.50      2.21490E-03
  256.50      2.20230E-03
  257.50      2.18960E-03
  258.50      2.17690E-03
  259.50      2.16230E-03
  260.50      2.15250E-03
  261.50      2.13930E-03
  262.50      2.12820E-03
  263.50      2.11620E-03
  264.50      2.10410E-03
  265.50      2.09240E-03
  266.50      2.08050E-03
  267.50      2.06770E-03
  268.50      2.05730E-03
  269.50      2.04560E-03
  270.50      2.03470E-03
  271.50      2.02340E-03
  272.50      2.01170E-03
  273.50      1.95140E-03
  274.50      1.99010E-03
  275.50      1.97920E-03
  276.50      1.96810E-03
  277.50      1.95750E-03
  278.50      1.94660E-03
  279.50      1.93600E-03
  280.50      1.92580E-03
  281.50      1.91540E-03
  282.50      1.90460E-03
  283.50      1.89480E-03
  284.50      1.88480E-03
  285.50      1.87470E-03
  286.50      1.86470E-03
  287.50      1.85480E-03
  288.50      1.84490E-03
  289.50      1.83510E-03
  291.00      1.82060E-03
  293.00      1.80150E-03
  295.00      1.78240E-03
  297.00      1.76400E-03
  299.00      1.74520E-03
  301.00      1.72760E-03
  303.00      1.70920E-03
  305.00      1.69190E-03
  307.00      1.67440E-03
  309.00      1.65860E-03
  311.00      1.64190E-03
  313.00      1.62530E-03
  315.00      1.60940E-03
  317.00      1.59340E-03
  319.00      1.57700E-03
  321.00      1.54080E-03
  323.00      1.54710E-03
  325.00      1.53200E-03
  327.00      1.51570E-03
  329.00      1.50240E-03
  331.00      1.48800E-03
  333.00      1.47380E-03
  335.00      1.45930E-03
  337.00      1.44600E-03
  339.00      1.43220E-03
  341.00      1.41840E-03
  343.00      1.40580E-03
  345.00      1.39230E-03
  347.00      1.37980E-03
  349.00      1.36710E-03
  351.00      1.35460E-03
  353.00      1.34210E-03
  355.00      1.32980E-03
  357.00      1.31800E-03
  359.00      1.30580E-03
  361.00      1.29420E-03
  363.00      1.28230E-03
  364.00      1.25310E-03
  365.00      1.15370E-03
  367.00      1.14490E-03
  369.00      1.13900E-03
  371.00      1.14070E-03
  373.00      1.14770E-03
  375.00      1.16490E-03
  377.00      1.17720E-03
  379.00      1.18960E-03
  381.00      1.19990E-03
  383.00      1.15800E-03
  385.00      1.19200E-03
  387.00      1.19390E-03
  389.00      1.12010E-03
  391.00      1.17690E-03
  393.00      1.15980E-03
  395.00      1.15890E-03
  397.00      1.08130E-03
  399.00      1.13870E-03
  401.00      1.13290E-03
  403.00      1.10660E-03
  405.00      1.11490E-03
  407.00      1.10550E-03
  409.00      1.07930E-03
  411.00      1.03110E-03
  413.00      1.07740E-03
  415.00      1.06940E-03
  417.00      1.06110E-03
  419.00      1.04890E-03
  421.00      1.03100E-03
  423.00      1.03560E-03
  425.00      1.02730E-03
  427.00      1.01910E-03
  429.00      1.01090E-03
  431.00      1.00270E-03
  433.00      9.73470E-04
  435.00      9.43150E-04
  437.00      9.78750E-04
  439.00      9.71010E-04
  441.00      9.64210E-04
  443.00      9.56700E-04
  445.00      9.49360E-04
  447.00      9.38840E-04
  449.00      9.34830E-04
  451.00      9.27700E-04
  453.00      9.19620E-04
  455.00      9.00440E-04
  457.00      9.06760E-04
  459.00      8.99940E-04
  461.00      8.93190E-04
  463.00      8.86390E-04
  465.00      8.79450E-04
  467.00      8.72710E-04
  469.00      8.41460E-04
  471.00      8.60040E-04
  473.00      8.54250E-04
  475.00      8.48010E-04
  477.00      8.41830E-04
  479.00      8.35710E-04
  481.00      8.29670E-04
  483.00      8.23530E-04
  485.00      8.05070E-04
  487.00      7.71480E-04
  489.00      8.05330E-04
  491.00      8.00400E-04
  493.00      7.93580E-04
  495.00      7.89130E-04
  497.00      7.83580E-04
  499.00      7.78100E-04
  501.00      7.72100E-04
  503.00      7.67280E-04
  505.00      7.61860E-04
  507.00      7.56690E-04
  509.00      7.51480E-04
  511.00      7.46320E-04
  513.00      7.41210E-04
  515.00      7.36150E-04
  517.00      7.31150E-04
  519.00      7.26190E-04
  521.00      7.21290E-04
  523.00      7.16430E-04
  525.00      7.11620E-04
  527.00      7.06830E-04
  529.00      7.02150E-04
  531.00      6.97480E-04
  533.00      6.92860E-04
  535.00      6.88280E-04
  537.00      6.83750E-04
  539.00      6.79260E-04
  541.00      6.64230E-04
  543.00      6.70410E-04
  545.00      6.66070E-04
  547.00      6.61750E-04
  549.00      6.57480E-04
  551.00      6.53230E-04
  553.00      6.49060E-04
  555.00      6.44900E-04
  557.00      6.40790E-04
  559.00      6.36620E-04
  561.00      6.32680E-04
  563.00      6.28680E-04
  565.00      6.24730E-04
  567.00      6.20800E-04
  569.00      6.10130E-04
  571.00      5.76850E-04
  573.00      5.73500E-04
  575.00      5.70200E-04
  577.00      5.67020E-04
  579.00      5.64140E-04
  581.00      5.61580E-04
  583.00      5.59930E-04
  585.00      5.58690E-04
  587.00      5.55950E-04
  589.00      5.57050E-04
  591.00      5.56750E-04
  593.00      5.56890E-04
  595.00      5.57530E-04
  597.00      5.58140E-04
  599.00      5.59290E-04
  601.00      5.57470E-04
  603.00      5.55320E-04
  605.00      5.53670E-04
  607.00      5.49690E-04
  609.00      5.47200E-04
  611.00      5.43480E-04
  613.00      5.40320E-04
  615.00      5.37940E-04
  617.00      5.32920E-04
  619.00      5.31600E-04
  621.00      5.28620E-04
  623.00      5.23410E-04
  625.00      5.22130E-04
  627.00      5.19530E-04
  629.00      5.16550E-04
  631.00      5.10610E-04
  633.00      5.10470E-04
  635.00      5.07780E-04
  637.00      5.04900E-04
  639.00      5.01850E-04
  641.00      4.95390E-04
  643.00      4.96400E-04
  645.00      4.93630E-04
  647.00      4.90870E-04
  649.00      4.88130E-04
  651.00      4.85220E-04
  653.00      4.77790E-04
  655.00      4.75580E-04
  657.00      4.51790E-04
  659.00      4.74280E-04
  661.00      4.72180E-04
  663.00      4.69600E-04
  665.00      4.67040E-04
  667.00      4.63440E-04
  669.00      4.56380E-04
  671.00      4.59450E-04
  673.00      4.57000E-04
  675.00      4.54540E-04
  677.00      4.52100E-04
  679.00      4.49680E-04
  681.00      4.47280E-04
  683.00      4.44890E-04
  685.00      4.42530E-04
  687.00      4.40180E-04
  689.00      4.32370E-04
  691.00      4.35370E-04
  693.00      4.33260E-04
  695.00      4.30990E-04
  697.00      4.28730E-04
  699.00      4.26500E-04
  701.00      4.24280E-04
  703.00      4.22070E-04
  705.00      4.19890E-04
  707.00      4.17040E-04
  709.00      4.15570E-04
  711.00      4.13440E-04
  713.00      4.11320E-04
  715.00      4.09210E-04
  717.00      4.03540E-04
  719.00      4.03070E-04
  721.00      4.03000E-04
  723.00      4.00970E-04
  725.00      3.98940E-04
  727.00      3.96930E-04
  729.00      3.94770E-04
  731.00      3.92960E-04
  733.00      3.91000E-04
  735.00      3.89050E-04
  737.00      3.87120E-04
  739.00      3.85200E-04
  741.00      3.83290E-04
  743.00      3.81400E-04
  745.00      3.79520E-04
  747.00      3.77660E-04
  749.00      3.75810E-04
  751.00      3.73970E-04
  753.00      3.72150E-04
  755.00      3.70340E-04
  757.00      3.68540E-04
  759.00      3.61730E-04
  761.00      3.64710E-04
  763.00      3.63220E-04
  765.00      3.61480E-04
  767.00      3.59750E-04
  769.00      3.58020E-04
  771.00      3.56320E-04
  773.00      3.54610E-04
  775.00      3.52940E-04
  777.00      3.51260E-04
  779.00      3.49600E-04
  781.00      3.47950E-04
  783.00      3.46320E-04
  785.00      3.44690E-04
  787.00      3.43080E-04
  789.00      3.41480E-04
  791.00      3.39890E-04
  793.00      3.38310E-04
  795.00      3.36740E-04
  797.00      3.35180E-04
  799.00      3.33630E-04
  801.00      3.32090E-04
  803.00      3.30570E-04
  805.00      3.29050E-04
  807.00      3.27540E-04
  809.00      3.26050E-04
  811.00      3.24560E-04
  813.00      3.23090E-04
  815.00      3.21620E-04
  817.00      3.20160E-04
  819.00      3.17480E-04
  821.00      3.05450E-04
  823.00      3.02540E-04
  825.00      3.02520E-04
  827.00      3.01520E-04
  829.00      3.00250E-04
  831.00      2.98980E-04
  833.00      2.97710E-04
  835.00      2.96470E-04
  837.00      2.95280E-04
  839.00      2.94120E-04
  841.00      2.93050E-04
  843.00      2.91990E-04
  845.00      2.90940E-04
  847.00      2.89970E-04
  849.00      2.89120E-04
  851.00      2.88160E-04
  853.00      2.87410E-04
  855.00      2.86290E-04
  857.00      2.85880E-04
  859.00      2.84660E-04
  861.00      2.83840E-04
  863.00      2.83760E-04
  865.00      2.82700E-04
  867.00      2.80550E-04
  869.00      2.81710E-04
  871.00      2.81420E-04
  873.00      2.80370E-04
  875.00      2.76040E-04
  877.00      2.78420E-04
  879.00      2.79080E-04
  881.00      2.78620E-04
  883.00      2.77780E-04
  885.00      2.73910E-04
  887.00      2.68570E-04
  889.00      2.73810E-04
  891.00      2.73750E-04
  893.00      2.72740E-04
  895.00      2.72190E-04
  897.00      2.70780E-04
  899.00      2.68420E-04
  901.00      2.59980E-04
  903.00      2.62510E-04
  905.00      2.65660E-04
  907.00      2.65340E-04
  909.00      2.64400E-04
  911.00      2.62710E-04
  913.00      2.62250E-04
  915.00      2.61180E-04
  917.00      2.60090E-04
  919.00      2.58660E-04
  921.00      2.55540E-04
  923.00      2.45450E-04
  925.00      2.52920E-04
  927.00      2.54390E-04
  929.00      2.53850E-04
  931.00      2.52810E-04
  933.00      2.51620E-04
  935.00      2.46090E-04
  937.00      2.48650E-04
  939.00      2.48760E-04
  941.00      2.47810E-04
  943.00      2.46830E-04
  945.00      2.45850E-04
  947.00      2.44830E-04
  949.00      2.43900E-04
  951.00      2.42350E-04
  953.00      2.38880E-04
  955.00      2.29190E-04
  957.00      2.37940E-04
  959.00      2.38850E-04
  961.00      2.38210E-04
  963.00      2.37260E-04
  965.00      2.36360E-04
  967.00      2.35440E-04
  969.00      2.34530E-04
  971.00      2.33620E-04
  973.00      2.32720E-04
  975.00      2.31530E-04
  977.00      2.29460E-04
  979.00      2.30040E-04
  981.00      2.29160E-04
  983.00      2.28280E-04
  985.00      2.27410E-04
  987.00      2.26540E-04
  989.00      2.25680E-04
  991.00      2.24820E-04
  993.00      2.23970E-04
  995.00      2.23120E-04
  997.00      2.22280E-04
  999.00      2.21440E-04
  1002.5      2.17290E-04
  1007.5      2.13820E-04
  1012.5      2.12910E-04
  1017.5      2.13910E-04
  1022.5      2.11940E-04
  1027.5      2.10000E-04
  1032.5      2.08030E-04
  1037.5      2.06190E-04
  1042.5      2.03340E-04
  1047.5      2.02490E-04
  1052.5      2.00680E-04
  1057.5      1.98890E-04
  1062.5      1.97120E-04
  1067.5      1.95370E-04
  1072.5      1.93660E-04
  1077.5      1.91960E-04
  1082.5      1.90050E-04
  1087.5      1.88590E-04
  1092.5      1.81910E-04
  1097.5      1.84300E-04
  1102.5      1.83790E-04
  1107.5      1.82220E-04
  1112.5      1.80670E-04
  1117.5      1.79240E-04
  1122.5      1.77720E-04
  1127.5      1.76230E-04
  1132.5      1.74750E-04
  1137.5      1.73300E-04
  1142.5      1.71860E-04
  1147.5      1.70440E-04
  1152.5      1.69040E-04
  1157.5      1.67650E-04
  1162.5      1.64780E-04
  1167.5      1.63860E-04
  1172.5      1.63590E-04
  1177.5      1.62270E-04
  1182.5      1.60970E-04
  1187.5      1.59680E-04
  1192.5      1.58400E-04
  1197.5      1.57080E-04
  1202.5      1.55900E-04
  1207.5      1.54670E-04
  1212.5      1.53460E-04
  1217.5      1.52260E-04
  1222.5      1.51070E-04
  1227.5      1.49900E-04
  1232.5      1.48740E-04
  1237.5      1.47590E-04
  1242.5      1.46460E-04
  1247.5      1.45340E-04
  1252.5      1.44220E-04
  1257.5      1.43140E-04
  1262.5      1.42050E-04
  1267.5      1.40980E-04
  1272.5      1.39930E-04
  1277.5      1.38490E-04
  1282.5      1.33630E-04
  1287.5      1.36680E-04
  1292.5      1.35810E-04
  1297.5      1.34800E-04
  1302.5      1.33820E-04
  1307.5      1.32840E-04
  1312.5      1.31880E-04
  1317.5      1.30920E-04
  1322.5      1.29970E-04
  1327.5      1.29030E-04
  1332.5      1.28110E-04
  1337.5      1.27190E-04
  1342.5      1.26280E-04
  1347.5      1.25390E-04
  1352.5      1.24500E-04
  1357.5      1.23620E-04
  1362.5      1.22750E-04
  1367.5      1.21890E-04
  1372.5      1.21040E-04
  1377.5      1.20200E-04
  1382.5      1.19360E-04
  1387.5      1.18540E-04
  1392.5      1.17720E-04
  1397.5      1.16910E-04
