 Castelli and Kurucz 2004-2012 Atmosphere
 T     34000.     G    4.50000 [-2.0a] N(He)/Ntot=0.0784 VTURB=2.0  L/H=1.25 OD
 Wavelength  Eddington Hnu
   (nm)    (ergs/s/cm2/Hz/sr)
  9.0900      4.04060E-30
  9.3500      2.20380E-29
  9.6100      1.10090E-28
  9.7700      2.84500E-28
  9.9600      8.45740E-28
  10.200      3.16860E-27
  10.380      8.22160E-27
  10.560      2.06820E-26
  10.770      5.84670E-26
  11.040      2.10540E-25
  11.400      1.06330E-24
  11.780      5.32040E-24
  12.130      2.15460E-23
  12.480      8.10710E-23
  12.710      1.86640E-22
  12.840      2.95360E-22
  13.050      6.08990E-22
  13.240      1.15100E-21
  13.390      1.88030E-21
  13.660      4.44020E-21
  13.980      1.18200E-20
  14.330      3.29480E-20
  14.720      9.79550E-20
  15.100      2.69500E-19
  15.520      7.82570E-19
  15.880      1.87270E-18
  16.200      3.95010E-18
  16.600      9.67700E-18
  17.030      2.42640E-17
  17.340      4.58650E-17
  17.680      9.00200E-17
  18.020      1.72540E-16
  18.170      2.28220E-16
  18.610      5.05990E-16
  19.100      1.17960E-15
  19.390      1.90930E-15
  19.840      3.92510E-15
  20.180      6.62850E-15
  20.500      1.06900E-14
  21.050      2.35180E-14
  21.620      5.11020E-14
  21.980      8.17570E-14
  22.300      1.22600E-13
  22.680      1.95380E-13
  23.000      3.73330E-11
  23.400      2.35640E-10
  24.000      7.69100E-10
  24.650      2.26440E-09
  25.240      4.29890E-09
  25.680      3.02980E-09
  26.000      8.87710E-09
  26.400      1.46010E-08
  26.850      2.29910E-08
  27.350      3.00440E-08
  27.850      3.27800E-08
  28.400      5.25800E-08
  29.000      6.04320E-08
  29.600      5.29830E-08
  30.100      3.11150E-08
  30.800      5.55210E-08
  31.800      1.40990E-07
  32.800      1.87140E-07
  33.800      2.58740E-07
  34.800      3.47880E-07
  35.700      4.32730E-07
  36.600      5.73380E-07
  37.500      7.03810E-07
  38.500      9.26780E-07
  39.500      1.18200E-06
  40.500      1.48220E-06
  41.400      1.83030E-06
  42.200      2.13550E-06
  43.000      2.50150E-06
  44.100      3.13360E-06
  45.100      3.79170E-06
  46.000      4.41000E-06
  47.000      5.31230E-06
  48.000      6.27660E-06
  49.000      7.25450E-06
  50.000      8.63860E-06
  50.600      3.42980E-05
  51.200      1.05050E-04
  52.000      1.04630E-04
  53.000      1.08700E-04
  54.000      1.03100E-04
  55.000      1.13970E-04
  56.000      1.26410E-04
  57.000      1.32080E-04
  58.000      1.29170E-04
  59.000      1.39860E-04
  60.000      1.39920E-04
  61.000      1.45850E-04
  62.000      1.57860E-04
  63.000      1.63130E-04
  64.000      1.66600E-04
  65.000      1.72360E-04
  65.800      1.72660E-04
  66.500      1.79240E-04
  67.500      1.87800E-04
  68.500      1.85900E-04
  69.500      2.00690E-04
  70.500      1.98540E-04
  71.600      2.14780E-04
  72.600      2.20630E-04
  73.500      2.29090E-04
  74.500      2.32870E-04
  75.500      2.38740E-04
  76.500      2.44820E-04
  77.500      2.53140E-04
  78.500      2.62140E-04
  79.500      2.68510E-04
  80.500      2.74370E-04
  81.500      2.82270E-04
  82.500      2.92230E-04
  83.500      2.84720E-04
  84.500      3.05770E-04
  85.500      3.12970E-04
  86.500      3.22050E-04
  87.500      3.29140E-04
  88.500      3.36820E-04
  89.500      3.44560E-04
  90.500      3.49670E-04
  91.500      3.72710E-04
  92.500      1.03110E-03
  93.500      1.58030E-03
  94.500      2.34830E-03
  95.500      2.62520E-03
  96.500      3.15750E-03
  97.500      2.14680E-03
  98.500      3.16030E-03
  99.500      2.97650E-03
  100.50      3.14340E-03
  101.50      3.13660E-03
  102.50      2.21380E-03
  103.50      3.08090E-03
  104.50      3.18730E-03
  105.50      3.17540E-03
  106.50      3.07860E-03
  107.50      3.08620E-03
  108.50      2.93150E-03
  109.50      3.10380E-03
  110.50      3.04350E-03
  111.50      3.02750E-03
  112.50      2.92230E-03
  113.50      3.02250E-03
  114.50      2.98770E-03
  115.50      2.95750E-03
  116.50      2.95640E-03
  117.50      2.66850E-03
  118.50      2.88600E-03
  119.50      2.86780E-03
  120.50      2.79150E-03
  121.50      2.02640E-03
  122.50      2.79090E-03
  123.50      2.82680E-03
  124.50      2.78750E-03
  125.50      2.80900E-03
  126.50      2.79740E-03
  127.50      2.78270E-03
  128.50      2.76740E-03
  129.50      2.69570E-03
  130.50      2.69840E-03
  131.50      2.71500E-03
  132.50      2.68960E-03
  133.50      2.65000E-03
  134.50      2.65980E-03
  135.50      2.64310E-03
  136.50      2.61970E-03
  137.50      2.60060E-03
  138.50      2.58710E-03
  139.50      2.48720E-03
  140.50      2.48020E-03
  141.50      2.53090E-03
  142.50      2.49750E-03
  143.50      2.49990E-03
  144.20      2.49130E-03
  144.70      2.48200E-03
  145.50      2.46430E-03
  146.50      2.45120E-03
  147.50      2.43350E-03
  148.50      2.42430E-03
  149.50      2.40310E-03
  150.50      2.38710E-03
  151.20      2.38260E-03
  151.70      2.37070E-03
  152.50      2.35200E-03
  153.50      2.30330E-03
  154.50      2.23990E-03
  155.50      2.23560E-03
  156.50      2.25440E-03
  157.50      2.25950E-03
  158.50      2.25360E-03
  159.50      2.23980E-03
  160.50      2.19530E-03
  161.50      2.17620E-03
  162.50      2.15870E-03
  163.50      2.12930E-03
  164.50      2.04400E-03
  165.50      2.14800E-03
  166.50      2.13110E-03
  167.20      2.11110E-03
  167.70      2.13630E-03
  168.50      2.12050E-03
  169.50      2.10700E-03
  170.50      2.08930E-03
  171.50      2.05740E-03
  172.50      2.04240E-03
  173.50      2.06000E-03
  174.50      2.04330E-03
  175.50      2.02560E-03
  176.50      2.01870E-03
  177.50      2.00810E-03
  178.50      1.99640E-03
  179.50      1.98190E-03
  180.50      1.97210E-03
  181.50      1.95890E-03
  182.50      1.94520E-03
  183.50      1.93660E-03
  184.50      1.92010E-03
  185.50      1.90320E-03
  186.50      1.89240E-03
  187.50      1.88350E-03
  188.50      1.87010E-03
  189.50      1.85720E-03
  190.50      1.85210E-03
  191.50      1.83560E-03
  192.50      1.81550E-03
  193.50      1.81570E-03
  194.50      1.80770E-03
  195.50      1.79030E-03
  196.70      1.78260E-03
  197.60      1.77480E-03
  198.40      1.76390E-03
  199.50      1.74890E-03
  200.50      1.74330E-03
  201.50      1.73340E-03
  202.50      1.72300E-03
  203.50      1.71180E-03
  204.50      1.70130E-03
  205.50      1.44130E-03
  206.50      1.40770E-03
  207.40      1.42240E-03
  207.80      1.43880E-03
  208.50      1.49500E-03
  209.50      1.60310E-03
  210.50      1.64030E-03
  211.50      1.63610E-03
  212.50      1.62450E-03
  213.50      1.61490E-03
  214.50      1.60660E-03
  215.50      1.60870E-03
  216.50      1.57830E-03
  217.50      1.59670E-03
  218.50      1.56030E-03
  219.50      1.57750E-03
  220.50      1.56940E-03
  221.50      1.53060E-03
  222.50      1.55040E-03
  223.50      1.54140E-03
  224.50      1.53170E-03
  225.50      1.49490E-03
  226.50      1.51420E-03
  227.50      1.50540E-03
  228.50      1.49490E-03
  229.50      1.46880E-03
  230.50      1.45230E-03
  231.50      1.46960E-03
  232.50      1.46170E-03
  233.50      1.45320E-03
  234.50      1.44480E-03
  235.50      1.43650E-03
  236.50      1.42820E-03
  237.50      1.41980E-03
  238.50      1.38600E-03
  239.50      1.40150E-03
  240.50      1.39560E-03
  241.50      1.38750E-03
  242.50      1.37980E-03
  243.50      1.37170E-03
  244.50      1.36410E-03
  245.50      1.35610E-03
  246.50      1.34890E-03
  247.50      1.34130E-03
  248.50      1.33380E-03
  249.50      1.27680E-03
  250.50      1.31640E-03
  251.30      1.26400E-03
  251.80      1.30230E-03
  252.50      1.30430E-03
  253.50      1.29730E-03
  254.50      1.28960E-03
  255.50      1.28270E-03
  256.50      1.27590E-03
  257.50      1.26900E-03
  258.50      1.26210E-03
  259.50      1.25500E-03
  260.50      1.25170E-03
  261.50      1.24480E-03
  262.50      1.23810E-03
  263.50      1.23110E-03
  264.50      1.22410E-03
  265.50      1.21690E-03
  266.50      1.20920E-03
  267.50      1.20160E-03
  268.50      1.19870E-03
  269.50      1.18810E-03
  270.50      1.18600E-03
  271.50      1.17970E-03
  272.50      1.16820E-03
  273.50      1.15000E-03
  274.50      1.16120E-03
  275.50      1.15510E-03
  276.50      1.14320E-03
  277.50      1.14310E-03
  278.50      1.13710E-03
  279.50      1.12910E-03
  280.50      1.12490E-03
  281.50      1.11950E-03
  282.50      1.10710E-03
  283.50      1.10490E-03
  284.50      1.10240E-03
  285.50      1.09670E-03
  286.50      1.09100E-03
  287.50      1.08550E-03
  288.50      1.08010E-03
  289.50      1.07460E-03
  291.00      1.06630E-03
  293.00      1.05580E-03
  295.00      1.04030E-03
  297.00      1.03470E-03
  299.00      1.02420E-03
  301.00      1.01420E-03
  303.00      1.00400E-03
  305.00      9.94350E-04
  307.00      9.85090E-04
  309.00      9.74810E-04
  311.00      9.66010E-04
  313.00      9.57110E-04
  315.00      9.47810E-04
  317.00      9.38920E-04
  319.00      9.24670E-04
  321.00      9.14810E-04
  323.00      9.12520E-04
  325.00      9.04020E-04
  327.00      8.95700E-04
  329.00      8.87110E-04
  331.00      8.79710E-04
  333.00      8.71540E-04
  335.00      8.62520E-04
  337.00      8.55840E-04
  339.00      8.48270E-04
  341.00      8.40650E-04
  343.00      8.31230E-04
  345.00      8.21850E-04
  347.00      8.16190E-04
  349.00      8.08950E-04
  351.00      8.02540E-04
  353.00      7.96320E-04
  355.00      7.89120E-04
  357.00      7.85460E-04
  359.00      7.74700E-04
  361.00      7.69950E-04
  363.00      7.61360E-04
  364.00      7.59040E-04
  365.00      7.37800E-04
  367.00      7.33490E-04
  369.00      7.27710E-04
  371.00      7.16580E-04
  373.00      7.05920E-04
  375.00      7.09880E-04
  377.00      7.03970E-04
  379.00      7.25230E-04
  381.00      7.47740E-04
  383.00      6.85480E-04
  385.00      7.61060E-04
  387.00      7.68150E-04
  389.00      6.65960E-04
  391.00      7.62760E-04
  393.00      7.56760E-04
  395.00      7.51150E-04
  397.00      6.41940E-04
  399.00      7.36590E-04
  401.00      7.34570E-04
  403.00      7.08790E-04
  405.00      7.28350E-04
  407.00      7.19410E-04
  409.00      6.84630E-04
  411.00      6.26470E-04
  413.00      6.97400E-04
  415.00      6.94610E-04
  417.00      6.92800E-04
  419.00      6.86610E-04
  421.00      6.78980E-04
  423.00      6.77080E-04
  425.00      6.71460E-04
  427.00      6.65870E-04
  429.00      6.60680E-04
  431.00      6.53260E-04
  433.00      6.15350E-04
  435.00      5.78950E-04
  437.00      6.37330E-04
  439.00      6.24670E-04
  441.00      6.30260E-04
  443.00      6.24620E-04
  445.00      6.21020E-04
  447.00      5.99230E-04
  449.00      6.11410E-04
  451.00      6.07020E-04
  453.00      6.02230E-04
  455.00      5.93710E-04
  457.00      5.93380E-04
  459.00      5.88770E-04
  461.00      5.84480E-04
  463.00      5.79990E-04
  465.00      5.73720E-04
  467.00      5.71460E-04
  469.00      5.58180E-04
  471.00      5.58510E-04
  473.00      5.59310E-04
  475.00      5.55210E-04
  477.00      5.51230E-04
  479.00      5.47250E-04
  481.00      5.43250E-04
  483.00      5.37300E-04
  485.00      5.12010E-04
  487.00      4.74410E-04
  489.00      5.24850E-04
  491.00      5.23690E-04
  493.00      5.12090E-04
  495.00      5.16750E-04
  497.00      5.13300E-04
  499.00      5.09720E-04
  501.00      5.02070E-04
  503.00      5.02640E-04
  505.00      4.97520E-04
  507.00      4.95770E-04
  509.00      4.92370E-04
  511.00      4.89010E-04
  513.00      4.85680E-04
  515.00      4.82390E-04
  517.00      4.79110E-04
  519.00      4.75900E-04
  521.00      4.72700E-04
  523.00      4.69540E-04
  525.00      4.66400E-04
  527.00      4.63300E-04
  529.00      4.60230E-04
  531.00      4.57190E-04
  533.00      4.54180E-04
  535.00      4.51200E-04
  537.00      4.48250E-04
  539.00      4.45320E-04
  541.00      4.39620E-04
  543.00      4.39560E-04
  545.00      4.36720E-04
  547.00      4.33910E-04
  549.00      4.31120E-04
  551.00      4.28360E-04
  553.00      4.25630E-04
  555.00      4.22920E-04
  557.00      4.20240E-04
  559.00      4.17550E-04
  561.00      4.14950E-04
  563.00      4.12340E-04
  565.00      4.09760E-04
  567.00      4.07200E-04
  569.00      4.03600E-04
  571.00      3.97190E-04
  573.00      3.94820E-04
  575.00      3.92430E-04
  577.00      3.90120E-04
  579.00      3.87800E-04
  581.00      3.85520E-04
  583.00      3.83300E-04
  585.00      3.81250E-04
  587.00      3.71380E-04
  589.00      3.76940E-04
  591.00      3.75530E-04
  593.00      3.73740E-04
  595.00      3.71960E-04
  597.00      3.70230E-04
  599.00      3.68670E-04
  601.00      3.67200E-04
  603.00      3.65030E-04
  605.00      3.62880E-04
  607.00      3.60750E-04
  609.00      3.58630E-04
  611.00      3.56530E-04
  613.00      3.54450E-04
  615.00      3.52390E-04
  617.00      3.50350E-04
  619.00      3.48330E-04
  621.00      3.46320E-04
  623.00      3.44330E-04
  625.00      3.42350E-04
  627.00      3.40400E-04
  629.00      3.38460E-04
  631.00      3.36530E-04
  633.00      3.34630E-04
  635.00      3.32740E-04
  637.00      3.30870E-04
  639.00      3.29010E-04
  641.00      3.27160E-04
  643.00      3.25340E-04
  645.00      3.23520E-04
  647.00      3.21720E-04
  649.00      3.19940E-04
  651.00      3.18170E-04
  653.00      3.15130E-04
  655.00      3.07120E-04
  657.00      2.82650E-04
  659.00      3.09430E-04
  661.00      3.09430E-04
  663.00      3.07860E-04
  665.00      3.06290E-04
  667.00      3.02380E-04
  669.00      3.00410E-04
  671.00      3.01330E-04
  673.00      2.99730E-04
  675.00      2.98140E-04
  677.00      2.96550E-04
  679.00      2.94970E-04
  681.00      2.93400E-04
  683.00      2.91850E-04
  685.00      2.90310E-04
  687.00      2.88780E-04
  689.00      2.86950E-04
  691.00      2.85750E-04
  693.00      2.84260E-04
  695.00      2.82780E-04
  697.00      2.81310E-04
  699.00      2.79850E-04
  701.00      2.78400E-04
  703.00      2.76960E-04
  705.00      2.75540E-04
  707.00      2.71040E-04
  709.00      2.72720E-04
  711.00      2.71330E-04
  713.00      2.69950E-04
  715.00      2.68580E-04
  717.00      2.66920E-04
  719.00      2.65730E-04
  721.00      2.64520E-04
  723.00      2.63160E-04
  725.00      2.61870E-04
  727.00      2.60560E-04
  729.00      2.57750E-04
  731.00      2.57950E-04
  733.00      2.56690E-04
  735.00      2.55420E-04
  737.00      2.54160E-04
  739.00      2.52900E-04
  741.00      2.51660E-04
  743.00      2.50420E-04
  745.00      2.49220E-04
  747.00      2.48000E-04
  749.00      2.46790E-04
  751.00      2.45540E-04
  753.00      2.44400E-04
  755.00      2.43220E-04
  757.00      2.42050E-04
  759.00      2.40490E-04
  761.00      2.39720E-04
  763.00      2.38580E-04
  765.00      2.37440E-04
  767.00      2.36310E-04
  769.00      2.35180E-04
  771.00      2.34070E-04
  773.00      2.32950E-04
  775.00      2.31860E-04
  777.00      2.30770E-04
  779.00      2.29680E-04
  781.00      2.28530E-04
  783.00      2.27540E-04
  785.00      2.26610E-04
  787.00      2.25550E-04
  789.00      2.24460E-04
  791.00      2.23460E-04
  793.00      2.22430E-04
  795.00      2.21400E-04
  797.00      2.20290E-04
  799.00      2.19370E-04
  801.00      2.18360E-04
  803.00      2.17360E-04
  805.00      2.16330E-04
  807.00      2.15370E-04
  809.00      2.14180E-04
  811.00      2.13260E-04
  813.00      2.12390E-04
  815.00      2.11260E-04
  817.00      2.10520E-04
  819.00      2.09320E-04
  821.00      2.07330E-04
  823.00      2.06320E-04
  825.00      2.05770E-04
  827.00      2.04420E-04
  829.00      2.04000E-04
  831.00      2.03150E-04
  833.00      2.02190E-04
  835.00      2.00760E-04
  837.00      2.00270E-04
  839.00      1.99560E-04
  841.00      1.98710E-04
  843.00      1.97760E-04
  845.00      1.96150E-04
  847.00      1.96070E-04
  849.00      1.94990E-04
  851.00      1.94280E-04
  853.00      1.93260E-04
  855.00      1.92040E-04
  857.00      1.92470E-04
  859.00      1.88980E-04
  861.00      1.89240E-04
  863.00      1.90750E-04
  865.00      1.87910E-04
  867.00      1.83600E-04
  869.00      1.88380E-04
  871.00      1.88890E-04
  873.00      1.85540E-04
  875.00      1.77030E-04
  877.00      1.82560E-04
  879.00      1.86310E-04
  881.00      1.86110E-04
  883.00      1.84700E-04
  885.00      1.77200E-04
  887.00      1.70080E-04
  889.00      1.80940E-04
  891.00      1.82470E-04
  893.00      1.82040E-04
  895.00      1.81580E-04
  897.00      1.80480E-04
  899.00      1.76890E-04
  901.00      1.64250E-04
  903.00      1.69250E-04
  905.00      1.76410E-04
  907.00      1.75780E-04
  909.00      1.76280E-04
  911.00      1.76120E-04
  913.00      1.75480E-04
  915.00      1.74760E-04
  917.00      1.73390E-04
  919.00      1.72210E-04
  921.00      1.66650E-04
  923.00      1.53550E-04
  925.00      1.65320E-04
  927.00      1.69260E-04
  929.00      1.69400E-04
  931.00      1.68590E-04
  933.00      1.68480E-04
  935.00      1.67050E-04
  937.00      1.67150E-04
  939.00      1.66480E-04
  941.00      1.65810E-04
  943.00      1.65150E-04
  945.00      1.64500E-04
  947.00      1.63130E-04
  949.00      1.62740E-04
  951.00      1.60350E-04
  953.00      1.55030E-04
  955.00      1.43450E-04
  957.00      1.56300E-04
  959.00      1.58980E-04
  961.00      1.58790E-04
  963.00      1.58170E-04
  965.00      1.58140E-04
  967.00      1.57530E-04
  969.00      1.56840E-04
  971.00      1.55970E-04
  973.00      1.55700E-04
  975.00      1.55100E-04
  977.00      1.54500E-04
  979.00      1.53910E-04
  981.00      1.53320E-04
  983.00      1.52730E-04
  985.00      1.52150E-04
  987.00      1.51570E-04
  989.00      1.50990E-04
  991.00      1.50400E-04
  993.00      1.49850E-04
  995.00      1.49280E-04
  997.00      1.48710E-04
  999.00      1.47810E-04
  1002.5      1.42150E-04
  1007.5      1.39400E-04
  1012.5      1.43410E-04
  1017.5      1.43110E-04
  1022.5      1.41760E-04
  1027.5      1.40490E-04
  1032.5      1.38800E-04
  1037.5      1.37950E-04
  1042.5      1.36700E-04
  1047.5      1.35470E-04
  1052.5      1.34250E-04
  1057.5      1.33050E-04
  1062.5      1.31870E-04
  1067.5      1.30540E-04
  1072.5      1.29550E-04
  1077.5      1.28410E-04
  1082.5      1.26380E-04
  1087.5      1.25850E-04
  1092.5      1.17350E-04
  1097.5      1.21710E-04
  1102.5      1.22400E-04
  1107.5      1.21830E-04
  1112.5      1.20860E-04
  1117.5      1.19840E-04
  1122.5      1.18790E-04
  1127.5      1.17830E-04
  1132.5      1.16840E-04
  1137.5      1.15870E-04
  1142.5      1.14910E-04
  1147.5      1.13960E-04
  1152.5      1.13020E-04
  1157.5      1.12090E-04
  1162.5      1.11020E-04
  1167.5      1.10240E-04
  1172.5      1.09380E-04
  1177.5      1.08500E-04
  1182.5      1.07620E-04
  1187.5      1.06760E-04
  1192.5      1.05910E-04
  1197.5      1.04260E-04
  1202.5      1.04240E-04
  1207.5      1.03420E-04
  1212.5      1.02610E-04
  1217.5      1.01800E-04
  1222.5      1.01010E-04
  1227.5      1.00230E-04
  1232.5      9.94530E-05
  1237.5      9.86870E-05
  1242.5      9.79300E-05
  1247.5      9.71820E-05
  1252.5      9.63080E-05
  1257.5      9.57110E-05
  1262.5      9.49880E-05
  1267.5      9.42730E-05
  1272.5      9.35310E-05
  1277.5      9.15460E-05
  1282.5      8.64940E-05
  1287.5      9.09580E-05
  1292.5      9.08160E-05
  1297.5      8.96990E-05
  1302.5      8.94880E-05
  1307.5      8.88350E-05
  1312.5      8.81890E-05
  1317.5      8.75490E-05
  1322.5      8.69160E-05
  1327.5      8.62900E-05
  1332.5      8.56710E-05
  1337.5      8.50580E-05
  1342.5      8.44060E-05
  1347.5      8.38530E-05
  1352.5      8.32600E-05
  1357.5      8.26730E-05
  1362.5      8.20910E-05
  1367.5      8.15180E-05
  1372.5      8.09480E-05
  1377.5      8.03860E-05
  1382.5      7.98290E-05
  1387.5      7.92780E-05
  1392.5      7.87330E-05
  1397.5      7.81930E-05
