 Castelli and Kurucz 2004-2012 Atmosphere
 T     36000.     G    4.50000 [-2.0a] N(He)/Ntot=0.0784 VTURB=2.0  L/H=1.25 OD
 Wavelength  Eddington Hnu
   (nm)    (ergs/s/cm2/Hz/sr)
  9.0900      1.63460E-27
  9.3500      7.61940E-27
  9.6100      3.27910E-26
  9.7700      7.76270E-26
  9.9600      2.08680E-25
  10.200      6.92200E-25
  10.380      1.64590E-24
  10.560      3.80690E-24
  10.770      9.79170E-24
  11.040      3.13800E-23
  11.400      1.36770E-22
  11.780      5.91780E-22
  12.130      2.11650E-21
  12.480      7.08690E-21
  12.710      1.51670E-20
  12.840      2.30620E-20
  13.050      4.46530E-20
  13.240      7.98830E-20
  13.390      1.25120E-19
  13.660      2.74490E-19
  13.980      6.72240E-19
  14.330      1.71720E-18
  14.720      4.65290E-18
  15.100      1.17570E-17
  15.520      3.11880E-17
  15.880      6.93230E-17
  16.200      1.37190E-16
  16.600      3.11340E-16
  17.030      7.21770E-16
  17.340      1.29140E-15
  17.680      2.39060E-15
  18.020      4.33160E-15
  18.170      5.59240E-15
  18.610      1.15700E-14
  19.100      2.50290E-14
  19.390      3.88380E-14
  19.840      7.49300E-14
  20.180      1.20730E-13
  20.500      1.86540E-13
  21.050      3.82670E-13
  21.620      7.75430E-13
  21.980      1.18880E-12
  22.300      1.71840E-12
  22.680      2.62620E-12
  23.000      4.00000E-10
  23.400      2.08650E-09
  24.000      6.56240E-09
  24.650      2.48370E-08
  25.240      6.40640E-08
  25.680      4.50880E-08
  26.000      2.13050E-07
  26.400      5.20050E-07
  26.850      9.67270E-07
  27.350      1.38500E-06
  27.850      1.48220E-06
  28.400      2.43520E-06
  29.000      2.73030E-06
  29.600      1.70440E-06
  30.100      3.23790E-07
  30.800      1.13150E-06
  31.800      3.50120E-06
  32.800      4.43120E-06
  33.800      5.01020E-06
  34.800      5.94840E-06
  35.700      6.94720E-06
  36.600      8.34090E-06
  37.500      9.00910E-06
  38.500      9.98200E-06
  39.500      1.15970E-05
  40.500      1.31180E-05
  41.400      1.47490E-05
  42.200      1.58060E-05
  43.000      1.71750E-05
  44.100      2.00550E-05
  45.100      2.26340E-05
  46.000      2.47810E-05
  47.000      2.82020E-05
  48.000      3.17450E-05
  49.000      3.46460E-05
  50.000      3.97900E-05
  50.600      1.09140E-04
  51.200      2.68330E-04
  52.000      2.67150E-04
  53.000      2.73760E-04
  54.000      2.61390E-04
  55.000      2.80050E-04
  56.000      3.15220E-04
  57.000      3.28060E-04
  58.000      3.23340E-04
  59.000      3.44530E-04
  60.000      3.40970E-04
  61.000      3.51340E-04
  62.000      3.82280E-04
  63.000      3.90850E-04
  64.000      4.01590E-04
  65.000      4.08260E-04
  65.800      4.03640E-04
  66.500      4.21150E-04
  67.500      4.41730E-04
  68.500      4.34020E-04
  69.500      4.61940E-04
  70.500      4.51720E-04
  71.600      4.87520E-04
  72.600      4.98090E-04
  73.500      5.12510E-04
  74.500      5.15290E-04
  75.500      5.24010E-04
  76.500      5.31770E-04
  77.500      5.46610E-04
  78.500      5.59150E-04
  79.500      5.70400E-04
  80.500      5.78680E-04
  81.500      5.92000E-04
  82.500      6.08200E-04
  83.500      5.87110E-04
  84.500      6.26100E-04
  85.500      6.35030E-04
  86.500      6.51030E-04
  87.500      6.61410E-04
  88.500      6.71490E-04
  89.500      6.81650E-04
  90.500      6.86720E-04
  91.500      6.67250E-04
  92.500      1.46490E-03
  93.500      2.07640E-03
  94.500      2.83180E-03
  95.500      3.12130E-03
  96.500      3.65740E-03
  97.500      2.69200E-03
  98.500      3.63630E-03
  99.500      3.42780E-03
  100.50      3.61610E-03
  101.50      3.63190E-03
  102.50      2.75580E-03
  103.50      3.57210E-03
  104.50      3.64550E-03
  105.50      3.63100E-03
  106.50      3.54030E-03
  107.50      3.53650E-03
  108.50      3.37440E-03
  109.50      3.55070E-03
  110.50      3.50010E-03
  111.50      3.46930E-03
  112.50      3.37230E-03
  113.50      3.46060E-03
  114.50      3.43440E-03
  115.50      3.38730E-03
  116.50      3.38280E-03
  117.50      3.09390E-03
  118.50      3.31070E-03
  119.50      3.29860E-03
  120.50      3.23390E-03
  121.50      2.51600E-03
  122.50      3.22090E-03
  123.50      3.23590E-03
  124.50      3.19530E-03
  125.50      3.21760E-03
  126.50      3.20260E-03
  127.50      3.18570E-03
  128.50      3.16830E-03
  129.50      3.11110E-03
  130.50      3.10920E-03
  131.50      3.10890E-03
  132.50      3.08340E-03
  133.50      3.05670E-03
  134.50      3.04920E-03
  135.50      3.02660E-03
  136.50      3.00160E-03
  137.50      2.97530E-03
  138.50      2.96320E-03
  139.50      2.87970E-03
  140.50      2.85890E-03
  141.50      2.90470E-03
  142.50      2.86700E-03
  143.50      2.86720E-03
  144.20      2.85300E-03
  144.70      2.84360E-03
  145.50      2.82380E-03
  146.50      2.80940E-03
  147.50      2.79090E-03
  148.50      2.78100E-03
  149.50      2.75730E-03
  150.50      2.74360E-03
  151.20      2.73540E-03
  151.70      2.72160E-03
  152.50      2.70160E-03
  153.50      2.65240E-03
  154.50      2.57120E-03
  155.50      2.56990E-03
  156.50      2.59410E-03
  157.50      2.59850E-03
  158.50      2.58960E-03
  159.50      2.57320E-03
  160.50      2.52660E-03
  161.50      2.50710E-03
  162.50      2.48240E-03
  163.50      2.44210E-03
  164.50      2.34140E-03
  165.50      2.46940E-03
  166.50      2.45140E-03
  167.20      2.42730E-03
  167.70      2.45370E-03
  168.50      2.43670E-03
  169.50      2.42230E-03
  170.50      2.40270E-03
  171.50      2.36260E-03
  172.50      2.35110E-03
  173.50      2.36810E-03
  174.50      2.34940E-03
  175.50      2.32920E-03
  176.50      2.32230E-03
  177.50      2.31000E-03
  178.50      2.29640E-03
  179.50      2.27890E-03
  180.50      2.26720E-03
  181.50      2.25270E-03
  182.50      2.23720E-03
  183.50      2.22710E-03
  184.50      2.21070E-03
  185.50      2.19440E-03
  186.50      2.18020E-03
  187.50      2.16760E-03
  188.50      2.15440E-03
  189.50      2.14320E-03
  190.50      2.13250E-03
  191.50      2.11780E-03
  192.50      2.09530E-03
  193.50      2.09290E-03
  194.50      2.08130E-03
  195.50      2.06520E-03
  196.70      2.05280E-03
  197.60      2.04240E-03
  198.40      2.03180E-03
  199.50      2.01720E-03
  200.50      2.00690E-03
  201.50      1.99510E-03
  202.50      1.98290E-03
  203.50      1.97080E-03
  204.50      1.95870E-03
  205.50      1.58750E-03
  206.50      1.54450E-03
  207.40      1.57140E-03
  207.80      1.60180E-03
  208.50      1.68790E-03
  209.50      1.84480E-03
  210.50      1.89020E-03
  211.50      1.88520E-03
  212.50      1.87230E-03
  213.50      1.86060E-03
  214.50      1.85220E-03
  215.50      1.86120E-03
  216.50      1.81690E-03
  217.50      1.84990E-03
  218.50      1.79640E-03
  219.50      1.82760E-03
  220.50      1.81870E-03
  221.50      1.76270E-03
  222.50      1.79670E-03
  223.50      1.78680E-03
  224.50      1.77500E-03
  225.50      1.72260E-03
  226.50      1.75530E-03
  227.50      1.74510E-03
  228.50      1.73320E-03
  229.50      1.70610E-03
  230.50      1.67410E-03
  231.50      1.70340E-03
  232.50      1.69470E-03
  233.50      1.68500E-03
  234.50      1.67530E-03
  235.50      1.66560E-03
  236.50      1.65600E-03
  237.50      1.64630E-03
  238.50      1.59760E-03
  239.50      1.62430E-03
  240.50      1.61830E-03
  241.50      1.60890E-03
  242.50      1.60010E-03
  243.50      1.59080E-03
  244.50      1.58200E-03
  245.50      1.57240E-03
  246.50      1.56430E-03
  247.50      1.55550E-03
  248.50      1.54670E-03
  249.50      1.48500E-03
  250.50      1.52570E-03
  251.30      1.44760E-03
  251.80      1.50960E-03
  252.50      1.51240E-03
  253.50      1.50440E-03
  254.50      1.49600E-03
  255.50      1.48770E-03
  256.50      1.47970E-03
  257.50      1.47170E-03
  258.50      1.46370E-03
  259.50      1.45510E-03
  260.50      1.45000E-03
  261.50      1.44200E-03
  262.50      1.43440E-03
  263.50      1.42640E-03
  264.50      1.41850E-03
  265.50      1.41040E-03
  266.50      1.40210E-03
  267.50      1.39340E-03
  268.50      1.38870E-03
  269.50      1.37840E-03
  270.50      1.37420E-03
  271.50      1.36680E-03
  272.50      1.35560E-03
  273.50      1.32420E-03
  274.50      1.34540E-03
  275.50      1.33830E-03
  276.50      1.32660E-03
  277.50      1.32440E-03
  278.50      1.31740E-03
  279.50      1.30910E-03
  280.50      1.30350E-03
  281.50      1.29700E-03
  282.50      1.28510E-03
  283.50      1.28140E-03
  284.50      1.27710E-03
  285.50      1.27050E-03
  286.50      1.26400E-03
  287.50      1.25750E-03
  288.50      1.25120E-03
  289.50      1.24470E-03
  291.00      1.23520E-03
  293.00      1.22290E-03
  295.00      1.20660E-03
  297.00      1.19840E-03
  299.00      1.18600E-03
  301.00      1.17460E-03
  303.00      1.16250E-03
  305.00      1.15120E-03
  307.00      1.14060E-03
  309.00      1.12910E-03
  311.00      1.11840E-03
  313.00      1.10800E-03
  315.00      1.09730E-03
  317.00      1.08690E-03
  319.00      1.07170E-03
  321.00      1.05530E-03
  323.00      1.05640E-03
  325.00      1.04650E-03
  327.00      1.03610E-03
  329.00      1.02680E-03
  331.00      1.01780E-03
  333.00      1.00840E-03
  335.00      9.98080E-04
  337.00      9.90080E-04
  339.00      9.81200E-04
  341.00      9.72300E-04
  343.00      9.62150E-04
  345.00      9.51770E-04
  347.00      9.44770E-04
  349.00      9.36340E-04
  351.00      9.29210E-04
  353.00      9.20920E-04
  355.00      9.12490E-04
  357.00      9.07130E-04
  359.00      8.95840E-04
  361.00      8.89630E-04
  363.00      8.80170E-04
  364.00      8.71900E-04
  365.00      8.30260E-04
  367.00      8.24850E-04
  369.00      8.18980E-04
  371.00      8.11370E-04
  373.00      8.06340E-04
  375.00      8.12600E-04
  377.00      8.10300E-04
  379.00      8.29350E-04
  381.00      8.49440E-04
  383.00      7.90920E-04
  385.00      8.57280E-04
  387.00      8.62810E-04
  389.00      7.68180E-04
  391.00      8.54850E-04
  393.00      8.45850E-04
  395.00      8.41900E-04
  397.00      7.40660E-04
  399.00      8.26430E-04
  401.00      8.22780E-04
  403.00      7.97120E-04
  405.00      8.14310E-04
  407.00      8.05750E-04
  409.00      7.73560E-04
  411.00      7.17500E-04
  413.00      7.82450E-04
  415.00      7.78060E-04
  417.00      7.74920E-04
  419.00      7.67150E-04
  421.00      7.56530E-04
  423.00      7.57130E-04
  425.00      7.50980E-04
  427.00      7.44950E-04
  429.00      7.39140E-04
  431.00      7.31710E-04
  433.00      6.96680E-04
  435.00      6.61320E-04
  437.00      7.14100E-04
  439.00      7.02470E-04
  441.00      7.05230E-04
  443.00      6.99180E-04
  445.00      6.94740E-04
  447.00      6.75320E-04
  449.00      6.84120E-04
  451.00      6.79040E-04
  453.00      6.73450E-04
  455.00      6.61600E-04
  457.00      6.63910E-04
  459.00      6.58850E-04
  461.00      6.54010E-04
  463.00      6.48940E-04
  465.00      6.42400E-04
  467.00      6.39360E-04
  469.00      6.20060E-04
  471.00      6.26340E-04
  473.00      6.25870E-04
  475.00      6.21340E-04
  477.00      6.16860E-04
  479.00      6.12420E-04
  481.00      6.07990E-04
  483.00      6.02310E-04
  485.00      5.78940E-04
  487.00      5.41940E-04
  489.00      5.88430E-04
  491.00      5.86510E-04
  493.00      5.75480E-04
  495.00      5.78470E-04
  497.00      5.74520E-04
  499.00      5.70530E-04
  501.00      5.63030E-04
  503.00      5.62640E-04
  505.00      5.57460E-04
  507.00      5.54940E-04
  509.00      5.51150E-04
  511.00      5.47390E-04
  513.00      5.43670E-04
  515.00      5.39980E-04
  517.00      5.36330E-04
  519.00      5.32730E-04
  521.00      5.29150E-04
  523.00      5.25620E-04
  525.00      5.22110E-04
  527.00      5.18620E-04
  529.00      5.15210E-04
  531.00      5.11810E-04
  533.00      5.08450E-04
  535.00      5.05110E-04
  537.00      5.01810E-04
  539.00      4.98540E-04
  541.00      4.89850E-04
  543.00      4.92090E-04
  545.00      4.88920E-04
  547.00      4.85770E-04
  549.00      4.82660E-04
  551.00      4.79560E-04
  553.00      4.76510E-04
  555.00      4.73490E-04
  557.00      4.70490E-04
  559.00      4.67440E-04
  561.00      4.64570E-04
  563.00      4.61660E-04
  565.00      4.58770E-04
  567.00      4.55900E-04
  569.00      4.50590E-04
  571.00      4.37680E-04
  573.00      4.35110E-04
  575.00      4.32560E-04
  577.00      4.30060E-04
  579.00      4.27590E-04
  581.00      4.25210E-04
  583.00      4.23040E-04
  585.00      4.21270E-04
  587.00      4.12890E-04
  589.00      4.17770E-04
  591.00      4.16630E-04
  593.00      4.15310E-04
  595.00      4.14070E-04
  597.00      4.12890E-04
  599.00      4.11830E-04
  601.00      4.10270E-04
  603.00      4.08550E-04
  605.00      4.06490E-04
  607.00      4.04100E-04
  609.00      4.01730E-04
  611.00      3.99370E-04
  613.00      3.97040E-04
  615.00      3.94730E-04
  617.00      3.92440E-04
  619.00      3.90170E-04
  621.00      3.87920E-04
  623.00      3.85540E-04
  625.00      3.83470E-04
  627.00      3.81280E-04
  629.00      3.79110E-04
  631.00      3.76590E-04
  633.00      3.74810E-04
  635.00      3.72690E-04
  637.00      3.70590E-04
  639.00      3.68500E-04
  641.00      3.65860E-04
  643.00      3.64380E-04
  645.00      3.62350E-04
  647.00      3.60330E-04
  649.00      3.58330E-04
  651.00      3.56340E-04
  653.00      3.52520E-04
  655.00      3.45690E-04
  657.00      3.21230E-04
  659.00      3.47080E-04
  661.00      3.46670E-04
  663.00      3.44790E-04
  665.00      3.42990E-04
  667.00      3.39000E-04
  669.00      3.36070E-04
  671.00      3.37420E-04
  673.00      3.35650E-04
  675.00      3.33850E-04
  677.00      3.32070E-04
  679.00      3.30300E-04
  681.00      3.28550E-04
  683.00      3.26800E-04
  685.00      3.25070E-04
  687.00      3.23360E-04
  689.00      3.20380E-04
  691.00      3.19960E-04
  693.00      3.18290E-04
  695.00      3.16630E-04
  697.00      3.14980E-04
  699.00      3.13350E-04
  701.00      3.11720E-04
  703.00      3.10100E-04
  705.00      3.08510E-04
  707.00      3.04100E-04
  709.00      3.05350E-04
  711.00      3.03790E-04
  713.00      3.02240E-04
  715.00      3.00700E-04
  717.00      2.98210E-04
  719.00      2.97180E-04
  721.00      2.96150E-04
  723.00      2.94660E-04
  725.00      2.93180E-04
  727.00      2.91710E-04
  729.00      2.88890E-04
  731.00      2.88790E-04
  733.00      2.87360E-04
  735.00      2.85940E-04
  737.00      2.84520E-04
  739.00      2.83110E-04
  741.00      2.81720E-04
  743.00      2.80330E-04
  745.00      2.78970E-04
  747.00      2.77600E-04
  749.00      2.76240E-04
  751.00      2.74870E-04
  753.00      2.73570E-04
  755.00      2.72240E-04
  757.00      2.70920E-04
  759.00      2.68140E-04
  761.00      2.68300E-04
  763.00      2.67030E-04
  765.00      2.65750E-04
  767.00      2.64480E-04
  769.00      2.63210E-04
  771.00      2.61970E-04
  773.00      2.60710E-04
  775.00      2.59490E-04
  777.00      2.58270E-04
  779.00      2.57050E-04
  781.00      2.55790E-04
  783.00      2.54640E-04
  785.00      2.53560E-04
  787.00      2.52370E-04
  789.00      2.51200E-04
  791.00      2.50030E-04
  793.00      2.48870E-04
  795.00      2.47720E-04
  797.00      2.46540E-04
  799.00      2.45440E-04
  801.00      2.44320E-04
  803.00      2.43190E-04
  805.00      2.42080E-04
  807.00      2.40980E-04
  809.00      2.39770E-04
  811.00      2.38690E-04
  813.00      2.37710E-04
  815.00      2.36460E-04
  817.00      2.35550E-04
  819.00      2.34050E-04
  821.00      2.30080E-04
  823.00      2.28370E-04
  825.00      2.28130E-04
  827.00      2.26960E-04
  829.00      2.26320E-04
  831.00      2.25380E-04
  833.00      2.24340E-04
  835.00      2.22980E-04
  837.00      2.22310E-04
  839.00      2.21470E-04
  841.00      2.20560E-04
  843.00      2.19580E-04
  845.00      2.18100E-04
  847.00      2.17780E-04
  849.00      2.16760E-04
  851.00      2.15980E-04
  853.00      2.15000E-04
  855.00      2.13870E-04
  857.00      2.13990E-04
  859.00      2.11110E-04
  861.00      2.11110E-04
  863.00      2.12110E-04
  865.00      2.09710E-04
  867.00      2.06060E-04
  869.00      2.09750E-04
  871.00      2.10020E-04
  873.00      2.07190E-04
  875.00      1.99790E-04
  877.00      2.04410E-04
  879.00      2.07420E-04
  881.00      2.07130E-04
  883.00      2.05840E-04
  885.00      1.99090E-04
  887.00      1.92460E-04
  889.00      2.02050E-04
  891.00      2.03220E-04
  893.00      2.02640E-04
  895.00      2.02070E-04
  897.00      2.00950E-04
  899.00      1.97630E-04
  901.00      1.85900E-04
  903.00      1.90350E-04
  905.00      1.96690E-04
  907.00      1.95980E-04
  909.00      1.96270E-04
  911.00      1.95890E-04
  913.00      1.95180E-04
  915.00      1.94380E-04
  917.00      1.93130E-04
  919.00      1.91820E-04
  921.00      1.86690E-04
  923.00      1.74320E-04
  925.00      1.85140E-04
  927.00      1.88570E-04
  929.00      1.88650E-04
  931.00      1.87720E-04
  933.00      1.87390E-04
  935.00      1.84800E-04
  937.00      1.85890E-04
  939.00      1.85160E-04
  941.00      1.84430E-04
  943.00      1.83690E-04
  945.00      1.82960E-04
  947.00      1.81680E-04
  949.00      1.81240E-04
  951.00      1.78860E-04
  953.00      1.73900E-04
  955.00      1.62830E-04
  957.00      1.74780E-04
  959.00      1.77080E-04
  961.00      1.76870E-04
  963.00      1.76120E-04
  965.00      1.75890E-04
  967.00      1.75210E-04
  969.00      1.74470E-04
  971.00      1.73560E-04
  973.00      1.73180E-04
  975.00      1.72510E-04
  977.00      1.71730E-04
  979.00      1.71190E-04
  981.00      1.70530E-04
  983.00      1.69880E-04
  985.00      1.69230E-04
  987.00      1.68580E-04
  989.00      1.67940E-04
  991.00      1.67300E-04
  993.00      1.66670E-04
  995.00      1.66030E-04
  997.00      1.65400E-04
  999.00      1.64590E-04
  1002.5      1.59110E-04
  1007.5      1.56260E-04
  1012.5      1.59080E-04
  1017.5      1.59170E-04
  1022.5      1.57680E-04
  1027.5      1.56260E-04
  1032.5      1.54460E-04
  1037.5      1.53420E-04
  1042.5      1.51910E-04
  1047.5      1.50660E-04
  1052.5      1.49310E-04
  1057.5      1.47980E-04
  1062.5      1.46660E-04
  1067.5      1.45230E-04
  1072.5      1.44080E-04
  1077.5      1.42820E-04
  1082.5      1.40730E-04
  1087.5      1.40070E-04
  1092.5      1.31930E-04
  1097.5      1.35860E-04
  1102.5      1.36330E-04
  1107.5      1.35500E-04
  1112.5      1.34410E-04
  1117.5      1.33280E-04
  1122.5      1.32130E-04
  1127.5      1.31040E-04
  1132.5      1.29950E-04
  1137.5      1.28860E-04
  1142.5      1.27790E-04
  1147.5      1.26740E-04
  1152.5      1.25690E-04
  1157.5      1.24660E-04
  1162.5      1.23170E-04
  1167.5      1.22460E-04
  1172.5      1.21640E-04
  1177.5      1.20660E-04
  1182.5      1.19690E-04
  1187.5      1.18730E-04
  1192.5      1.17780E-04
  1197.5      1.16160E-04
  1202.5      1.15920E-04
  1207.5      1.15010E-04
  1212.5      1.14110E-04
  1217.5      1.13220E-04
  1222.5      1.12330E-04
  1227.5      1.11460E-04
  1232.5      1.10600E-04
  1237.5      1.09750E-04
  1242.5      1.08910E-04
  1247.5      1.08070E-04
  1252.5      1.07140E-04
  1257.5      1.06440E-04
  1262.5      1.05630E-04
  1267.5      1.04840E-04
  1272.5      1.04050E-04
  1277.5      1.02080E-04
  1282.5      9.72020E-05
  1287.5      1.01300E-04
  1292.5      1.00990E-04
  1297.5      9.98830E-05
  1302.5      9.95140E-05
  1307.5      9.87870E-05
  1312.5      9.80680E-05
  1317.5      9.73560E-05
  1322.5      9.66520E-05
  1327.5      9.59560E-05
  1332.5      9.52670E-05
  1337.5      9.45850E-05
  1342.5      9.38720E-05
  1347.5      9.32440E-05
  1352.5      9.25840E-05
  1357.5      9.19310E-05
  1362.5      9.12850E-05
  1367.5      9.06460E-05
  1372.5      9.00130E-05
  1377.5      8.93880E-05
  1382.5      8.87680E-05
  1387.5      8.81550E-05
  1392.5      8.75480E-05
  1397.5      8.69480E-05
