 Castelli and Kurucz 2004-2012 Atmosphere
 T     46000.     G    5.00000 [-2.0a] N(He)/Ntot=0.0784 VTURB=2.0  L/H=1.25 OD
 Wavelength  Eddington Hnu
   (nm)    (ergs/s/cm2/Hz/sr)
  9.0900      6.09150E-20
  9.3500      1.75770E-19
  9.6100      4.79230E-19
  9.7700      8.67860E-19
  9.9600      1.71370E-18
  10.200      3.91180E-18
  10.380      7.09970E-18
  10.560      1.26420E-17
  10.770      2.42280E-17
  11.040      5.40820E-17
  11.400      1.49490E-16
  11.780      4.12200E-16
  12.130      9.97990E-16
  12.480      2.31260E-15
  12.710      3.92980E-15
  12.840      5.26500E-15
  13.050      8.35160E-15
  13.240      1.25410E-14
  13.390      1.71660E-14
  13.660      2.97670E-14
  13.980      5.58460E-14
  14.330      1.08030E-13
  14.720      2.17560E-13
  15.100      4.19450E-13
  15.520      8.35690E-13
  15.880      1.47120E-12
  16.200      2.38960E-12
  16.600      4.27430E-12
  17.030      7.75230E-12
  17.340      1.17120E-11
  17.680      1.81710E-11
  18.020      2.77200E-11
  18.170      3.31190E-11
  18.610      5.57240E-11
  19.100      9.64420E-11
  19.390      1.31910E-10
  19.840      2.10410E-10
  20.180      2.95540E-10
  20.500      4.02830E-10
  21.050      6.71420E-10
  21.620      1.10960E-09
  21.980      1.50430E-09
  22.300      1.95450E-09
  22.680      2.63830E-09
  23.000      1.14880E-07
  23.400      5.19310E-07
  24.000      3.64180E-06
  24.650      4.01870E-05
  25.240      1.06520E-04
  25.680      7.73790E-05
  26.000      1.95520E-04
  26.400      2.86460E-04
  26.850      3.47590E-04
  27.350      4.21240E-04
  27.850      4.31790E-04
  28.400      5.21590E-04
  29.000      5.86410E-04
  29.600      5.15400E-04
  30.100      1.99380E-04
  30.800      3.30080E-04
  31.800      4.81150E-04
  32.800      5.54040E-04
  33.800      5.33520E-04
  34.800      5.60580E-04
  35.700      7.23710E-04
  36.600      8.37090E-04
  37.500      8.94200E-04
  38.500      8.60810E-04
  39.500      9.97860E-04
  40.500      1.08870E-03
  41.400      1.12540E-03
  42.200      1.11950E-03
  43.000      1.13730E-03
  44.100      1.22560E-03
  45.100      1.26580E-03
  46.000      1.25340E-03
  47.000      1.28510E-03
  48.000      1.34310E-03
  49.000      1.31870E-03
  50.000      1.41530E-03
  50.600      1.42250E-03
  51.200      1.70050E-03
  52.000      1.70470E-03
  53.000      1.74890E-03
  54.000      1.69040E-03
  55.000      1.67350E-03
  56.000      1.84220E-03
  57.000      1.90470E-03
  58.000      1.90550E-03
  59.000      1.96480E-03
  60.000      1.94690E-03
  61.000      1.91260E-03
  62.000      2.02530E-03
  63.000      2.02900E-03
  64.000      2.09590E-03
  65.000      2.08740E-03
  65.800      2.04970E-03
  66.500      2.13800E-03
  67.500      2.18320E-03
  68.500      2.14160E-03
  69.500      2.22910E-03
  70.500      2.16270E-03
  71.600      2.27310E-03
  72.600      2.30810E-03
  73.500      2.32720E-03
  74.500      2.32600E-03
  75.500      2.33250E-03
  76.500      2.32290E-03
  77.500      2.37750E-03
  78.500      2.36600E-03
  79.500      2.39670E-03
  80.500      2.42410E-03
  81.500      2.44550E-03
  82.500      2.47210E-03
  83.500      2.40260E-03
  84.500      2.49060E-03
  85.500      2.48310E-03
  86.500      2.52480E-03
  87.500      2.54430E-03
  88.500      2.54880E-03
  89.500      2.55690E-03
  90.500      2.54260E-03
  91.500      2.00900E-03
  92.500      3.20760E-03
  93.500      4.08180E-03
  94.500      5.11890E-03
  95.500      5.62250E-03
  96.500      6.48140E-03
  97.500      5.16850E-03
  98.500      6.45110E-03
  99.500      6.02250E-03
  100.50      6.43140E-03
  101.50      6.36870E-03
  102.50      5.06730E-03
  103.50      6.27390E-03
  104.50      6.32160E-03
  105.50      6.28510E-03
  106.50      6.13920E-03
  107.50      6.13130E-03
  108.50      5.78080E-03
  109.50      6.08140E-03
  110.50      6.00480E-03
  111.50      5.94750E-03
  112.50      5.83960E-03
  113.50      5.88230E-03
  114.50      5.83680E-03
  115.50      5.74380E-03
  116.50      5.69230E-03
  117.50      5.44500E-03
  118.50      5.62190E-03
  119.50      5.55390E-03
  120.50      5.49880E-03
  121.50      4.46000E-03
  122.50      5.39870E-03
  123.50      5.35240E-03
  124.50      5.30580E-03
  125.50      5.32580E-03
  126.50      5.28260E-03
  127.50      5.24100E-03
  128.50      5.19960E-03
  129.50      5.15480E-03
  130.50      5.10840E-03
  131.50      5.06980E-03
  132.50      5.02090E-03
  133.50      4.98760E-03
  134.50      4.95050E-03
  135.50      4.89970E-03
  136.50      4.84500E-03
  137.50      4.77370E-03
  138.50      4.76980E-03
  139.50      4.69380E-03
  140.50      4.62770E-03
  141.50      4.66430E-03
  142.50      4.61970E-03
  143.50      4.59420E-03
  144.20      4.54770E-03
  144.70      4.53530E-03
  145.50      4.50230E-03
  146.50      4.47020E-03
  147.50      4.44440E-03
  148.50      4.42320E-03
  149.50      4.38480E-03
  150.50      4.35490E-03
  151.20      4.33440E-03
  151.70      4.31090E-03
  152.50      4.28670E-03
  153.50      4.23910E-03
  154.50      4.10650E-03
  155.50      4.09250E-03
  156.50      4.13680E-03
  157.50      4.11480E-03
  158.50      4.07900E-03
  159.50      4.05080E-03
  160.50      4.00820E-03
  161.50      3.97800E-03
  162.50      3.93520E-03
  163.50      3.83210E-03
  164.50      3.66490E-03
  165.50      3.86980E-03
  166.50      3.84340E-03
  167.20      3.81080E-03
  167.70      3.81330E-03
  168.50      3.79050E-03
  169.50      3.76350E-03
  170.50      3.73340E-03
  171.50      3.67070E-03
  172.50      3.66250E-03
  173.50      3.65540E-03
  174.50      3.62650E-03
  175.50      3.59830E-03
  176.50      3.57420E-03
  177.50      3.54960E-03
  178.50      3.52510E-03
  179.50      3.49790E-03
  180.50      3.47330E-03
  181.50      3.44860E-03
  182.50      3.42380E-03
  183.50      3.40000E-03
  184.50      3.37550E-03
  185.50      3.35080E-03
  186.50      3.32700E-03
  187.50      3.30300E-03
  188.50      3.27980E-03
  189.50      3.25840E-03
  190.50      3.23570E-03
  191.50      3.21260E-03
  192.50      3.18520E-03
  193.50      3.16850E-03
  194.50      3.14660E-03
  195.50      3.12440E-03
  196.70      3.09900E-03
  197.60      3.07960E-03
  198.40      3.06300E-03
  199.50      3.03990E-03
  200.50      3.01950E-03
  201.50      2.99900E-03
  202.50      2.97870E-03
  203.50      2.95860E-03
  204.50      2.93780E-03
  205.50      2.26770E-03
  206.50      2.18970E-03
  207.40      2.22310E-03
  207.80      2.26610E-03
  208.50      2.38440E-03
  209.50      2.64480E-03
  210.50      2.80480E-03
  211.50      2.81280E-03
  212.50      2.79530E-03
  213.50      2.77120E-03
  214.50      2.75830E-03
  215.50      2.78230E-03
  216.50      2.69390E-03
  217.50      2.77000E-03
  218.50      2.65710E-03
  219.50      2.73500E-03
  220.50      2.72400E-03
  221.50      2.59960E-03
  222.50      2.68850E-03
  223.50      2.67480E-03
  224.50      2.65270E-03
  225.50      2.53610E-03
  226.50      2.62260E-03
  227.50      2.60700E-03
  228.50      2.58900E-03
  229.50      2.56030E-03
  230.50      2.46040E-03
  231.50      2.53630E-03
  232.50      2.52520E-03
  233.50      2.50950E-03
  234.50      2.49370E-03
  235.50      2.47810E-03
  236.50      2.46270E-03
  237.50      2.44680E-03
  238.50      2.34180E-03
  239.50      2.41200E-03
  240.50      2.40160E-03
  241.50      2.38640E-03
  242.50      2.37290E-03
  243.50      2.35810E-03
  244.50      2.34390E-03
  245.50      2.32830E-03
  246.50      2.31560E-03
  247.50      2.30170E-03
  248.50      2.28770E-03
  249.50      2.23250E-03
  250.50      2.24740E-03
  251.30      2.08750E-03
  251.80      2.23130E-03
  252.50      2.23160E-03
  253.50      2.22020E-03
  254.50      2.20720E-03
  255.50      2.19400E-03
  256.50      2.18120E-03
  257.50      2.16840E-03
  258.50      2.15570E-03
  259.50      2.14110E-03
  260.50      2.13100E-03
  261.50      2.11800E-03
  262.50      2.10640E-03
  263.50      2.09430E-03
  264.50      2.08220E-03
  265.50      2.07030E-03
  266.50      2.05830E-03
  267.50      2.04520E-03
  268.50      2.03480E-03
  269.50      2.02280E-03
  270.50      2.01210E-03
  271.50      2.00070E-03
  272.50      1.98740E-03
  273.50      1.91310E-03
  274.50      1.96710E-03
  275.50      1.95620E-03
  276.50      1.94420E-03
  277.50      1.93440E-03
  278.50      1.92350E-03
  279.50      1.91250E-03
  280.50      1.90240E-03
  281.50      1.89200E-03
  282.50      1.88040E-03
  283.50      1.87090E-03
  284.50      1.86120E-03
  285.50      1.85110E-03
  286.50      1.84110E-03
  287.50      1.83110E-03
  288.50      1.82120E-03
  289.50      1.81130E-03
  291.00      1.79670E-03
  293.00      1.77760E-03
  295.00      1.75780E-03
  297.00      1.74000E-03
  299.00      1.72100E-03
  301.00      1.70350E-03
  303.00      1.68500E-03
  305.00      1.66770E-03
  307.00      1.65080E-03
  309.00      1.63450E-03
  311.00      1.61780E-03
  313.00      1.60120E-03
  315.00      1.58550E-03
  317.00      1.56940E-03
  319.00      1.55130E-03
  321.00      1.51260E-03
  323.00      1.52340E-03
  325.00      1.50830E-03
  327.00      1.49190E-03
  329.00      1.47880E-03
  331.00      1.46450E-03
  333.00      1.45040E-03
  335.00      1.43590E-03
  337.00      1.42280E-03
  339.00      1.40920E-03
  341.00      1.39570E-03
  343.00      1.38310E-03
  345.00      1.36930E-03
  347.00      1.35730E-03
  349.00      1.34470E-03
  351.00      1.33220E-03
  353.00      1.31960E-03
  355.00      1.30730E-03
  357.00      1.29590E-03
  359.00      1.28320E-03
  361.00      1.27200E-03
  363.00      1.25980E-03
  364.00      1.23100E-03
  365.00      1.13000E-03
  367.00      1.12140E-03
  369.00      1.11410E-03
  371.00      1.11170E-03
  373.00      1.11640E-03
  375.00      1.12810E-03
  377.00      1.13850E-03
  379.00      1.15620E-03
  381.00      1.17410E-03
  383.00      1.12560E-03
  385.00      1.17020E-03
  387.00      1.17740E-03
  389.00      1.08350E-03
  391.00      1.16140E-03
  393.00      1.14890E-03
  395.00      1.14460E-03
  397.00      1.04420E-03
  399.00      1.12330E-03
  401.00      1.12070E-03
  403.00      1.09050E-03
  405.00      1.10590E-03
  407.00      1.09460E-03
  409.00      1.05640E-03
  411.00      1.00160E-03
  413.00      1.06520E-03
  415.00      1.05950E-03
  417.00      1.05190E-03
  419.00      1.03670E-03
  421.00      1.01820E-03
  423.00      1.02640E-03
  425.00      1.01800E-03
  427.00      1.00980E-03
  429.00      1.00160E-03
  431.00      9.91450E-04
  433.00      9.51040E-04
  435.00      9.17420E-04
  437.00      9.67160E-04
  439.00      9.59870E-04
  441.00      9.54730E-04
  443.00      9.47130E-04
  445.00      9.39890E-04
  447.00      9.25450E-04
  449.00      9.25290E-04
  451.00      9.18170E-04
  453.00      9.08820E-04
  455.00      8.86290E-04
  457.00      8.97200E-04
  459.00      8.90370E-04
  461.00      8.83610E-04
  463.00      8.76740E-04
  465.00      8.69630E-04
  467.00      8.62640E-04
  469.00      8.27910E-04
  471.00      8.49500E-04
  473.00      8.44670E-04
  475.00      8.38420E-04
  477.00      8.32250E-04
  479.00      8.26140E-04
  481.00      8.20090E-04
  483.00      8.12420E-04
  485.00      7.86370E-04
  487.00      7.49720E-04
  489.00      7.93700E-04
  491.00      7.90850E-04
  493.00      7.82190E-04
  495.00      7.79610E-04
  497.00      7.74080E-04
  499.00      7.68600E-04
  501.00      7.61810E-04
  503.00      7.57810E-04
  505.00      7.52220E-04
  507.00      7.47250E-04
  509.00      7.42050E-04
  511.00      7.36910E-04
  513.00      7.31820E-04
  515.00      7.26780E-04
  517.00      7.21790E-04
  519.00      7.16860E-04
  521.00      7.11970E-04
  523.00      7.07140E-04
  525.00      7.02350E-04
  527.00      6.97580E-04
  529.00      6.92920E-04
  531.00      6.88280E-04
  533.00      6.83680E-04
  535.00      6.79130E-04
  537.00      6.74620E-04
  539.00      6.70150E-04
  541.00      6.52100E-04
  543.00      6.61060E-04
  545.00      6.57030E-04
  547.00      6.52740E-04
  549.00      6.48500E-04
  551.00      6.44270E-04
  553.00      6.40120E-04
  555.00      6.36000E-04
  557.00      6.31910E-04
  559.00      6.27740E-04
  561.00      6.23850E-04
  563.00      6.19880E-04
  565.00      6.15950E-04
  567.00      6.12050E-04
  569.00      6.01280E-04
  571.00      5.67240E-04
  573.00      5.63950E-04
  575.00      5.60690E-04
  577.00      5.57500E-04
  579.00      5.54460E-04
  581.00      5.51600E-04
  583.00      5.49410E-04
  585.00      5.47610E-04
  587.00      5.43470E-04
  589.00      5.45130E-04
  591.00      5.44540E-04
  593.00      5.44220E-04
  595.00      5.44290E-04
  597.00      5.44580E-04
  599.00      5.45520E-04
  601.00      5.45050E-04
  603.00      5.44580E-04
  605.00      5.44030E-04
  607.00      5.40820E-04
  609.00      5.38080E-04
  611.00      5.35320E-04
  613.00      5.32400E-04
  615.00      5.29900E-04
  617.00      5.25220E-04
  619.00      5.23520E-04
  621.00      5.20660E-04
  623.00      5.15860E-04
  625.00      5.14130E-04
  627.00      5.11650E-04
  629.00      5.08690E-04
  631.00      5.03250E-04
  633.00      5.02540E-04
  635.00      5.00000E-04
  637.00      4.97150E-04
  639.00      4.93980E-04
  641.00      4.88220E-04
  643.00      4.88700E-04
  645.00      4.85990E-04
  647.00      4.83260E-04
  649.00      4.80540E-04
  651.00      4.77250E-04
  653.00      4.70160E-04
  655.00      4.65000E-04
  657.00      4.39610E-04
  659.00      4.65690E-04
  661.00      4.64750E-04
  663.00      4.62200E-04
  665.00      4.59680E-04
  667.00      4.55280E-04
  669.00      4.48590E-04
  671.00      4.52150E-04
  673.00      4.49740E-04
  675.00      4.47310E-04
  677.00      4.44900E-04
  679.00      4.42510E-04
  681.00      4.40130E-04
  683.00      4.37770E-04
  685.00      4.35430E-04
  687.00      4.33100E-04
  689.00      4.24860E-04
  691.00      4.28090E-04
  693.00      4.26270E-04
  695.00      4.24020E-04
  697.00      4.21800E-04
  699.00      4.19580E-04
  701.00      4.17390E-04
  703.00      4.15210E-04
  705.00      4.13050E-04
  707.00      4.09620E-04
  709.00      4.08790E-04
  711.00      4.06680E-04
  713.00      4.04580E-04
  715.00      4.02500E-04
  717.00      3.96390E-04
  719.00      3.95770E-04
  721.00      3.96370E-04
  723.00      3.94350E-04
  725.00      3.92360E-04
  727.00      3.90370E-04
  729.00      3.87980E-04
  731.00      3.86450E-04
  733.00      3.84510E-04
  735.00      3.82590E-04
  737.00      3.80680E-04
  739.00      3.78780E-04
  741.00      3.76900E-04
  743.00      3.75030E-04
  745.00      3.73170E-04
  747.00      3.71340E-04
  749.00      3.69510E-04
  751.00      3.67700E-04
  753.00      3.65900E-04
  755.00      3.64110E-04
  757.00      3.62330E-04
  759.00      3.54600E-04
  761.00      3.58310E-04
  763.00      3.57090E-04
  765.00      3.55370E-04
  767.00      3.53660E-04
  769.00      3.51960E-04
  771.00      3.50280E-04
  773.00      3.48600E-04
  775.00      3.46940E-04
  777.00      3.45290E-04
  779.00      3.43650E-04
  781.00      3.42020E-04
  783.00      3.40410E-04
  785.00      3.38820E-04
  787.00      3.37230E-04
  789.00      3.35650E-04
  791.00      3.34080E-04
  793.00      3.32520E-04
  795.00      3.30980E-04
  797.00      3.29430E-04
  799.00      3.27910E-04
  801.00      3.26390E-04
  803.00      3.24890E-04
  805.00      3.23390E-04
  807.00      3.21910E-04
  809.00      3.20430E-04
  811.00      3.18970E-04
  813.00      3.17510E-04
  815.00      3.16060E-04
  817.00      3.14620E-04
  819.00      3.11950E-04
  821.00      3.00190E-04
  823.00      2.97070E-04
  825.00      2.97140E-04
  827.00      2.96330E-04
  829.00      2.95110E-04
  831.00      2.93850E-04
  833.00      2.92600E-04
  835.00      2.91340E-04
  837.00      2.90150E-04
  839.00      2.88970E-04
  841.00      2.87840E-04
  843.00      2.86710E-04
  845.00      2.85550E-04
  847.00      2.84570E-04
  849.00      2.83640E-04
  851.00      2.82680E-04
  853.00      2.81790E-04
  855.00      2.80760E-04
  857.00      2.80100E-04
  859.00      2.78930E-04
  861.00      2.78200E-04
  863.00      2.77840E-04
  865.00      2.76740E-04
  867.00      2.75150E-04
  869.00      2.75620E-04
  871.00      2.75230E-04
  873.00      2.74010E-04
  875.00      2.70890E-04
  877.00      2.72140E-04
  879.00      2.72770E-04
  881.00      2.72410E-04
  883.00      2.71540E-04
  885.00      2.67830E-04
  887.00      2.63840E-04
  889.00      2.67940E-04
  891.00      2.68360E-04
  893.00      2.67740E-04
  895.00      2.66980E-04
  897.00      2.65580E-04
  899.00      2.62840E-04
  901.00      2.54950E-04
  903.00      2.56870E-04
  905.00      2.60420E-04
  907.00      2.60130E-04
  909.00      2.59610E-04
  911.00      2.58340E-04
  913.00      2.57900E-04
  915.00      2.56840E-04
  917.00      2.55420E-04
  919.00      2.53620E-04
  921.00      2.49710E-04
  923.00      2.40130E-04
  925.00      2.47120E-04
  927.00      2.49380E-04
  929.00      2.49270E-04
  931.00      2.48490E-04
  933.00      2.47070E-04
  935.00      2.41010E-04
  937.00      2.44620E-04
  939.00      2.44540E-04
  941.00      2.43660E-04
  943.00      2.42680E-04
  945.00      2.41720E-04
  947.00      2.40630E-04
  949.00      2.39520E-04
  951.00      2.37420E-04
  953.00      2.33050E-04
  955.00      2.23540E-04
  957.00      2.32440E-04
  959.00      2.34130E-04
  961.00      2.33940E-04
  963.00      2.33160E-04
  965.00      2.32360E-04
  967.00      2.31460E-04
  969.00      2.30560E-04
  971.00      2.29610E-04
  973.00      2.28770E-04
  975.00      2.27560E-04
  977.00      2.25850E-04
  979.00      2.26130E-04
  981.00      2.25260E-04
  983.00      2.24400E-04
  985.00      2.23540E-04
  987.00      2.22690E-04
  989.00      2.21840E-04
  991.00      2.20990E-04
  993.00      2.20150E-04
  995.00      2.19310E-04
  997.00      2.18480E-04
  999.00      2.17520E-04
  1002.5      2.12340E-04
  1007.5      2.08880E-04
  1012.5      2.08800E-04
  1017.5      2.10230E-04
  1022.5      2.08290E-04
  1027.5      2.06380E-04
  1032.5      2.04380E-04
  1037.5      2.02630E-04
  1042.5      1.99840E-04
  1047.5      1.98980E-04
  1052.5      1.97200E-04
  1057.5      1.95430E-04
  1062.5      1.93690E-04
  1067.5      1.91960E-04
  1072.5      1.90280E-04
  1077.5      1.88610E-04
  1082.5      1.86560E-04
  1087.5      1.85070E-04
  1092.5      1.77360E-04
  1097.5      1.80230E-04
  1102.5      1.80490E-04
  1107.5      1.79020E-04
  1112.5      1.77500E-04
  1117.5      1.76080E-04
  1122.5      1.74590E-04
  1127.5      1.73120E-04
  1132.5      1.71670E-04
  1137.5      1.70240E-04
  1142.5      1.68820E-04
  1147.5      1.67420E-04
  1152.5      1.66040E-04
  1157.5      1.64670E-04
  1162.5      1.61560E-04
  1167.5      1.60770E-04
  1172.5      1.60680E-04
  1177.5      1.59380E-04
  1182.5      1.58100E-04
  1187.5      1.56830E-04
  1192.5      1.55580E-04
  1197.5      1.54170E-04
  1202.5      1.53120E-04
  1207.5      1.51910E-04
  1212.5      1.50710E-04
  1217.5      1.49530E-04
  1222.5      1.48370E-04
  1227.5      1.47210E-04
  1232.5      1.46070E-04
  1237.5      1.44950E-04
  1242.5      1.43830E-04
  1247.5      1.42730E-04
  1252.5      1.41620E-04
  1257.5      1.40570E-04
  1262.5      1.39500E-04
  1267.5      1.38450E-04
  1272.5      1.37410E-04
  1277.5      1.35550E-04
  1282.5      1.30180E-04
  1287.5      1.33980E-04
  1292.5      1.33360E-04
  1297.5      1.32320E-04
  1302.5      1.31410E-04
  1307.5      1.30440E-04
  1312.5      1.29490E-04
  1317.5      1.28550E-04
  1322.5      1.27620E-04
  1327.5      1.26700E-04
  1332.5      1.25790E-04
  1337.5      1.24890E-04
  1342.5      1.23990E-04
  1347.5      1.23110E-04
  1352.5      1.22240E-04
  1357.5      1.21380E-04
  1362.5      1.20520E-04
  1367.5      1.19680E-04
  1372.5      1.18840E-04
  1377.5      1.18010E-04
  1382.5      1.17190E-04
  1387.5      1.16380E-04
  1392.5      1.15580E-04
  1397.5      1.14780E-04
