 Castelli and Kurucz 2004-2012 Atmosphere
 T     42000.     G    5.00000 [-2.0a] N(He)/Ntot=0.0784 VTURB=2.0  L/H=1.25 OD
 Wavelength  Eddington Hnu
   (nm)    (ergs/s/cm2/Hz/sr)
  9.0900      3.37750E-22
  9.3500      1.12720E-21
  9.6100      3.53840E-21
  9.7700      6.96150E-21
  9.9600      1.51380E-20
  10.200      3.88880E-20
  10.380      7.69460E-20
  10.560      1.49030E-19
  10.770      3.14140E-19
  11.040      7.89210E-19
  11.400      2.53530E-18
  11.780      8.11880E-18
  12.130      2.23990E-17
  12.480      5.87240E-17
  12.710      1.07870E-16
  12.840      1.50810E-16
  13.050      2.55940E-16
  13.240      4.07750E-16
  13.390      5.84240E-16
  13.660      1.09730E-15
  13.980      2.25330E-15
  14.330      4.79010E-15
  14.720      1.06800E-14
  15.100      2.25520E-14
  15.520      4.95230E-14
  15.880      9.43410E-14
  16.200      1.63730E-13
  16.600      3.17260E-13
  17.030      6.25240E-13
  17.340      1.00000E-12
  17.680      1.64490E-12
  18.020      2.65650E-12
  18.170      3.26150E-12
  18.610      5.86760E-12
  19.100      1.09310E-11
  19.390      1.55730E-11
  19.840      2.64270E-11
  20.180      3.88110E-11
  20.500      5.50810E-11
  21.050      9.81030E-11
  21.620      1.72950E-10
  21.980      2.43730E-10
  22.300      3.27490E-10
  22.680      4.59790E-10
  23.000      2.36360E-08
  23.400      9.60440E-08
  24.000      3.01830E-07
  24.650      3.05810E-06
  25.240      1.14720E-05
  25.680      8.57400E-06
  26.000      3.17460E-05
  26.400      5.68110E-05
  26.850      8.19460E-05
  27.350      1.07750E-04
  27.850      1.13940E-04
  28.400      1.52450E-04
  29.000      1.74980E-04
  29.600      1.40660E-04
  30.100      3.41510E-05
  30.800      8.50380E-05
  31.800      1.56610E-04
  32.800      1.89160E-04
  33.800      1.87480E-04
  34.800      2.04710E-04
  35.700      2.60920E-04
  36.600      3.04480E-04
  37.500      3.25220E-04
  38.500      3.20580E-04
  39.500      3.68790E-04
  40.500      4.00080E-04
  41.400      4.16570E-04
  42.200      4.15230E-04
  43.000      4.20800E-04
  44.100      4.55340E-04
  45.100      4.73700E-04
  46.000      4.74160E-04
  47.000      4.91420E-04
  48.000      5.17160E-04
  49.000      5.13620E-04
  50.000      5.56300E-04
  50.600      6.67300E-04
  51.200      9.95500E-04
  52.000      9.99070E-04
  53.000      1.02740E-03
  54.000      9.90820E-04
  55.000      1.00850E-03
  56.000      1.11720E-03
  57.000      1.15780E-03
  58.000      1.15480E-03
  59.000      1.20440E-03
  60.000      1.19430E-03
  61.000      1.19150E-03
  62.000      1.27310E-03
  63.000      1.28700E-03
  64.000      1.32860E-03
  65.000      1.33040E-03
  65.800      1.30950E-03
  66.500      1.36640E-03
  67.500      1.41060E-03
  68.500      1.38710E-03
  69.500      1.45090E-03
  70.500      1.41210E-03
  71.600      1.49760E-03
  72.600      1.52520E-03
  73.500      1.54570E-03
  74.500      1.54840E-03
  75.500      1.56160E-03
  76.500      1.56640E-03
  77.500      1.60280E-03
  78.500      1.60820E-03
  79.500      1.63280E-03
  80.500      1.65300E-03
  81.500      1.67580E-03
  82.500      1.70300E-03
  83.500      1.65100E-03
  84.500      1.72640E-03
  85.500      1.73100E-03
  86.500      1.76430E-03
  87.500      1.78210E-03
  88.500      1.79320E-03
  89.500      1.80410E-03
  90.500      1.80090E-03
  91.500      1.47500E-03
  92.500      2.44050E-03
  93.500      3.19820E-03
  94.500      4.17940E-03
  95.500      4.62650E-03
  96.500      5.46700E-03
  97.500      4.19200E-03
  98.500      5.48700E-03
  99.500      5.10160E-03
  100.50      5.47500E-03
  101.50      5.43400E-03
  102.50      4.14350E-03
  103.50      5.34240E-03
  104.50      5.40740E-03
  105.50      5.37960E-03
  106.50      5.25290E-03
  107.50      5.23560E-03
  108.50      4.92490E-03
  109.50      5.21360E-03
  110.50      5.15020E-03
  111.50      5.09730E-03
  112.50      4.99000E-03
  113.50      5.04840E-03
  114.50      5.01110E-03
  115.50      4.92920E-03
  116.50      4.89870E-03
  117.50      4.61730E-03
  118.50      4.81890E-03
  119.50      4.77450E-03
  120.50      4.70970E-03
  121.50      3.69990E-03
  122.50      4.62980E-03
  123.50      4.62290E-03
  124.50      4.57780E-03
  125.50      4.59570E-03
  126.50      4.56260E-03
  127.50      4.52960E-03
  128.50      4.49690E-03
  129.50      4.45340E-03
  130.50      4.41990E-03
  131.50      4.39140E-03
  132.50      4.35160E-03
  133.50      4.32250E-03
  134.50      4.29160E-03
  135.50      4.25200E-03
  136.50      4.21000E-03
  137.50      4.15870E-03
  138.50      4.14550E-03
  139.50      4.06920E-03
  140.50      4.02020E-03
  141.50      4.05540E-03
  142.50      4.01260E-03
  143.50      3.99510E-03
  144.20      3.96240E-03
  144.70      3.95020E-03
  145.50      3.92190E-03
  146.50      3.89570E-03
  147.50      3.87070E-03
  148.50      3.85210E-03
  149.50      3.81900E-03
  150.50      3.79500E-03
  151.20      3.77800E-03
  151.70      3.75850E-03
  152.50      3.73490E-03
  153.50      3.68690E-03
  154.50      3.56900E-03
  155.50      3.56260E-03
  156.50      3.59900E-03
  157.50      3.58640E-03
  158.50      3.56080E-03
  159.50      3.53620E-03
  160.50      3.49160E-03
  161.50      3.46500E-03
  162.50      3.42720E-03
  163.50      3.33880E-03
  164.50      3.19370E-03
  165.50      3.38210E-03
  166.50      3.35920E-03
  167.20      3.32880E-03
  167.70      3.33980E-03
  168.50      3.31910E-03
  169.50      3.29670E-03
  170.50      3.27020E-03
  171.50      3.21450E-03
  172.50      3.20670E-03
  173.50      3.20760E-03
  174.50      3.18210E-03
  175.50      3.15650E-03
  176.50      3.13880E-03
  177.50      3.11830E-03
  178.50      3.09790E-03
  179.50      3.07420E-03
  180.50      3.05410E-03
  181.50      3.03310E-03
  182.50      3.01150E-03
  183.50      2.99230E-03
  184.50      2.97110E-03
  185.50      2.95000E-03
  186.50      2.92940E-03
  187.50      2.90910E-03
  188.50      2.88930E-03
  189.50      2.87210E-03
  190.50      2.85300E-03
  191.50      2.83340E-03
  192.50      2.80740E-03
  193.50      2.79580E-03
  194.50      2.77730E-03
  195.50      2.75770E-03
  196.70      2.73670E-03
  197.60      2.72030E-03
  198.40      2.70600E-03
  199.50      2.68630E-03
  200.50      2.66890E-03
  201.50      2.65140E-03
  202.50      2.63390E-03
  203.50      2.61670E-03
  204.50      2.59930E-03
  205.50      2.00770E-03
  206.50      1.93870E-03
  207.40      1.96830E-03
  207.80      2.00830E-03
  208.50      2.11360E-03
  209.50      2.34090E-03
  210.50      2.48480E-03
  211.50      2.49350E-03
  212.50      2.47780E-03
  213.50      2.45790E-03
  214.50      2.44640E-03
  215.50      2.46500E-03
  216.50      2.39060E-03
  217.50      2.45420E-03
  218.50      2.35830E-03
  219.50      2.42400E-03
  220.50      2.41460E-03
  221.50      2.30770E-03
  222.50      2.38380E-03
  223.50      2.37230E-03
  224.50      2.35290E-03
  225.50      2.25210E-03
  226.50      2.32700E-03
  227.50      2.31340E-03
  228.50      2.29740E-03
  229.50      2.26930E-03
  230.50      2.18620E-03
  231.50      2.25230E-03
  232.50      2.24260E-03
  233.50      2.22900E-03
  234.50      2.21540E-03
  235.50      2.20190E-03
  236.50      2.18850E-03
  237.50      2.17460E-03
  238.50      2.08280E-03
  239.50      2.14360E-03
  240.50      2.13560E-03
  241.50      2.12240E-03
  242.50      2.11050E-03
  243.50      2.09760E-03
  244.50      2.08530E-03
  245.50      2.07180E-03
  246.50      2.06060E-03
  247.50      2.04860E-03
  248.50      2.03640E-03
  249.50      1.97900E-03
  250.50      2.00150E-03
  251.30      1.86180E-03
  251.80      1.98590E-03
  252.50      1.98820E-03
  253.50      1.97770E-03
  254.50      1.96630E-03
  255.50      1.95480E-03
  256.50      1.94370E-03
  257.50      1.93260E-03
  258.50      1.92150E-03
  259.50      1.90920E-03
  260.50      1.90060E-03
  261.50      1.88940E-03
  262.50      1.87910E-03
  263.50      1.86860E-03
  264.50      1.85790E-03
  265.50      1.84750E-03
  266.50      1.83670E-03
  267.50      1.82520E-03
  268.50      1.81660E-03
  269.50      1.80520E-03
  270.50      1.79670E-03
  271.50      1.78670E-03
  272.50      1.77410E-03
  273.50      1.71080E-03
  274.50      1.75740E-03
  275.50      1.74780E-03
  276.50      1.73590E-03
  277.50      1.72880E-03
  278.50      1.71930E-03
  279.50      1.70930E-03
  280.50      1.70070E-03
  281.50      1.69160E-03
  282.50      1.68000E-03
  283.50      1.67230E-03
  284.50      1.66470E-03
  285.50      1.65580E-03
  286.50      1.64690E-03
  287.50      1.63820E-03
  288.50      1.62950E-03
  289.50      1.62080E-03
  291.00      1.60800E-03
  293.00      1.59130E-03
  295.00      1.57260E-03
  297.00      1.55820E-03
  299.00      1.54150E-03
  301.00      1.52620E-03
  303.00      1.50980E-03
  305.00      1.49460E-03
  307.00      1.48020E-03
  309.00      1.46540E-03
  311.00      1.45070E-03
  313.00      1.43630E-03
  315.00      1.42240E-03
  317.00      1.40820E-03
  319.00      1.39070E-03
  321.00      1.35890E-03
  323.00      1.36760E-03
  325.00      1.35430E-03
  327.00      1.33980E-03
  329.00      1.32820E-03
  331.00      1.31570E-03
  333.00      1.30330E-03
  335.00      1.29020E-03
  337.00      1.27890E-03
  339.00      1.26690E-03
  341.00      1.25500E-03
  343.00      1.24440E-03
  345.00      1.23170E-03
  347.00      1.22150E-03
  349.00      1.21000E-03
  351.00      1.19880E-03
  353.00      1.18750E-03
  355.00      1.17640E-03
  357.00      1.16710E-03
  359.00      1.15470E-03
  361.00      1.14540E-03
  363.00      1.13380E-03
  364.00      1.11150E-03
  365.00      1.02790E-03
  367.00      1.02030E-03
  369.00      1.01360E-03
  371.00      1.00970E-03
  373.00      1.01310E-03
  375.00      1.02210E-03
  377.00      1.02750E-03
  379.00      1.04340E-03
  381.00      1.06200E-03
  383.00      1.01050E-03
  385.00      1.06240E-03
  387.00      1.07060E-03
  389.00      9.73950E-04
  391.00      1.05750E-03
  393.00      1.04770E-03
  395.00      1.04230E-03
  397.00      9.38660E-04
  399.00      1.02270E-03
  401.00      1.02110E-03
  403.00      9.90950E-04
  405.00      1.00880E-03
  407.00      9.97960E-04
  409.00      9.59140E-04
  411.00      9.04090E-04
  413.00      9.70480E-04
  415.00      9.65770E-04
  417.00      9.60080E-04
  419.00      9.47030E-04
  421.00      9.30830E-04
  423.00      9.37180E-04
  425.00      9.29630E-04
  427.00      9.22110E-04
  429.00      9.14730E-04
  431.00      9.04900E-04
  433.00      8.63750E-04
  435.00      8.29980E-04
  437.00      8.82570E-04
  439.00      8.73960E-04
  441.00      8.72260E-04
  443.00      8.65190E-04
  445.00      8.58850E-04
  447.00      8.41260E-04
  449.00      8.45600E-04
  451.00      8.39130E-04
  453.00      8.30850E-04
  455.00      8.10960E-04
  457.00      8.20160E-04
  459.00      8.13930E-04
  461.00      8.07800E-04
  463.00      8.01530E-04
  465.00      7.94730E-04
  467.00      7.88850E-04
  469.00      7.57910E-04
  471.00      7.75550E-04
  473.00      7.72500E-04
  475.00      7.66830E-04
  477.00      7.61220E-04
  479.00      7.55680E-04
  481.00      7.50180E-04
  483.00      7.42720E-04
  485.00      7.15810E-04
  487.00      6.79460E-04
  489.00      7.25420E-04
  491.00      7.23500E-04
  493.00      7.13320E-04
  495.00      7.13410E-04
  497.00      7.08400E-04
  499.00      7.03420E-04
  501.00      6.96110E-04
  503.00      6.93610E-04
  505.00      6.88160E-04
  507.00      6.84020E-04
  509.00      6.79290E-04
  511.00      6.74620E-04
  513.00      6.69990E-04
  515.00      6.65410E-04
  517.00      6.60870E-04
  519.00      6.56380E-04
  521.00      6.51940E-04
  523.00      6.47540E-04
  525.00      6.43190E-04
  527.00      6.38850E-04
  529.00      6.34610E-04
  531.00      6.30390E-04
  533.00      6.26200E-04
  535.00      6.22060E-04
  537.00      6.17960E-04
  539.00      6.13890E-04
  541.00      5.98020E-04
  543.00      6.05640E-04
  545.00      6.01950E-04
  547.00      5.98040E-04
  549.00      5.94170E-04
  551.00      5.90320E-04
  553.00      5.86550E-04
  555.00      5.82790E-04
  557.00      5.79070E-04
  559.00      5.75260E-04
  561.00      5.71730E-04
  563.00      5.68110E-04
  565.00      5.64530E-04
  567.00      5.60980E-04
  569.00      5.51800E-04
  571.00      5.23510E-04
  573.00      5.20480E-04
  575.00      5.17490E-04
  577.00      5.14550E-04
  579.00      5.11710E-04
  581.00      5.09000E-04
  583.00      5.06790E-04
  585.00      5.05040E-04
  587.00      4.99470E-04
  589.00      5.02380E-04
  591.00      5.01740E-04
  593.00      5.01230E-04
  595.00      5.00970E-04
  597.00      5.00890E-04
  599.00      5.01240E-04
  601.00      5.00630E-04
  603.00      4.99680E-04
  605.00      4.98990E-04
  607.00      4.96170E-04
  609.00      4.93990E-04
  611.00      4.91040E-04
  613.00      4.88430E-04
  615.00      4.85860E-04
  617.00      4.82170E-04
  619.00      4.80210E-04
  621.00      4.77430E-04
  623.00      4.73600E-04
  625.00      4.71640E-04
  627.00      4.69210E-04
  629.00      4.66520E-04
  631.00      4.62180E-04
  633.00      4.61030E-04
  635.00      4.58590E-04
  637.00      4.55990E-04
  639.00      4.53220E-04
  641.00      4.48510E-04
  643.00      4.48300E-04
  645.00      4.45800E-04
  647.00      4.43300E-04
  649.00      4.40830E-04
  651.00      4.37930E-04
  653.00      4.31910E-04
  655.00      4.25480E-04
  657.00      4.00650E-04
  659.00      4.26840E-04
  661.00      4.26400E-04
  663.00      4.24080E-04
  665.00      4.21800E-04
  667.00      4.17330E-04
  669.00      4.11990E-04
  671.00      4.14910E-04
  673.00      4.12720E-04
  675.00      4.10500E-04
  677.00      4.08300E-04
  679.00      4.06110E-04
  681.00      4.03940E-04
  683.00      4.01790E-04
  685.00      3.99650E-04
  687.00      3.97530E-04
  689.00      3.90980E-04
  691.00      3.93070E-04
  693.00      3.91280E-04
  695.00      3.89230E-04
  697.00      3.87190E-04
  699.00      3.85170E-04
  701.00      3.83160E-04
  703.00      3.81170E-04
  705.00      3.79200E-04
  707.00      3.75300E-04
  709.00      3.75300E-04
  711.00      3.73380E-04
  713.00      3.71460E-04
  715.00      3.69560E-04
  717.00      3.64530E-04
  719.00      3.63850E-04
  721.00      3.63950E-04
  723.00      3.62110E-04
  725.00      3.60290E-04
  727.00      3.58470E-04
  729.00      3.55870E-04
  731.00      3.54880E-04
  733.00      3.53110E-04
  735.00      3.51350E-04
  737.00      3.49610E-04
  739.00      3.47870E-04
  741.00      3.46150E-04
  743.00      3.44450E-04
  745.00      3.42750E-04
  747.00      3.41070E-04
  749.00      3.39400E-04
  751.00      3.37740E-04
  753.00      3.36100E-04
  755.00      3.34460E-04
  757.00      3.32830E-04
  759.00      3.26430E-04
  761.00      3.29250E-04
  763.00      3.28040E-04
  765.00      3.26460E-04
  767.00      3.24900E-04
  769.00      3.23340E-04
  771.00      3.21800E-04
  773.00      3.20260E-04
  775.00      3.18750E-04
  777.00      3.17240E-04
  779.00      3.15740E-04
  781.00      3.14250E-04
  783.00      3.12780E-04
  785.00      3.11350E-04
  787.00      3.09890E-04
  789.00      3.08450E-04
  791.00      3.07010E-04
  793.00      3.05580E-04
  795.00      3.04170E-04
  797.00      3.02750E-04
  799.00      3.01360E-04
  801.00      2.99970E-04
  803.00      2.98590E-04
  805.00      2.97220E-04
  807.00      2.95860E-04
  809.00      2.94510E-04
  811.00      2.93170E-04
  813.00      2.91840E-04
  815.00      2.90510E-04
  817.00      2.89190E-04
  819.00      2.86870E-04
  821.00      2.77390E-04
  823.00      2.74490E-04
  825.00      2.74580E-04
  827.00      2.73800E-04
  829.00      2.72740E-04
  831.00      2.71600E-04
  833.00      2.70420E-04
  835.00      2.69180E-04
  837.00      2.68140E-04
  839.00      2.67050E-04
  841.00      2.65990E-04
  843.00      2.64920E-04
  845.00      2.63710E-04
  847.00      2.62870E-04
  849.00      2.61950E-04
  851.00      2.61060E-04
  853.00      2.60140E-04
  855.00      2.59200E-04
  857.00      2.58570E-04
  859.00      2.57170E-04
  861.00      2.56660E-04
  863.00      2.56410E-04
  865.00      2.55110E-04
  867.00      2.53460E-04
  869.00      2.54190E-04
  871.00      2.53900E-04
  873.00      2.52360E-04
  875.00      2.48930E-04
  877.00      2.50360E-04
  879.00      2.51400E-04
  881.00      2.51090E-04
  883.00      2.50080E-04
  885.00      2.45800E-04
  887.00      2.41720E-04
  889.00      2.46500E-04
  891.00      2.47170E-04
  893.00      2.46620E-04
  895.00      2.45940E-04
  897.00      2.44590E-04
  899.00      2.41560E-04
  901.00      2.33150E-04
  903.00      2.35430E-04
  905.00      2.39640E-04
  907.00      2.39320E-04
  909.00      2.39040E-04
  911.00      2.38120E-04
  913.00      2.37700E-04
  915.00      2.36730E-04
  917.00      2.35170E-04
  919.00      2.33530E-04
  921.00      2.29100E-04
  923.00      2.19330E-04
  925.00      2.26830E-04
  927.00      2.29610E-04
  929.00      2.29560E-04
  931.00      2.28870E-04
  933.00      2.27840E-04
  935.00      2.22560E-04
  937.00      2.25670E-04
  939.00      2.25500E-04
  941.00      2.24610E-04
  943.00      2.23710E-04
  945.00      2.22820E-04
  947.00      2.21660E-04
  949.00      2.20610E-04
  951.00      2.18370E-04
  953.00      2.13660E-04
  955.00      2.04200E-04
  957.00      2.13520E-04
  959.00      2.15620E-04
  961.00      2.15500E-04
  963.00      2.14820E-04
  965.00      2.14220E-04
  967.00      2.13390E-04
  969.00      2.12540E-04
  971.00      2.11610E-04
  973.00      2.10920E-04
  975.00      2.09900E-04
  977.00      2.08520E-04
  979.00      2.08490E-04
  981.00      2.07690E-04
  983.00      2.06890E-04
  985.00      2.06110E-04
  987.00      2.05320E-04
  989.00      2.04540E-04
  991.00      2.03760E-04
  993.00      2.02990E-04
  995.00      2.02220E-04
  997.00      2.01450E-04
  999.00      2.00410E-04
  1002.5      1.95040E-04
  1007.5      1.91810E-04
  1012.5      1.92670E-04
  1017.5      1.93860E-04
  1022.5      1.92070E-04
  1027.5      1.90320E-04
  1032.5      1.88360E-04
  1037.5      1.86870E-04
  1042.5      1.84530E-04
  1047.5      1.83510E-04
  1052.5      1.81870E-04
  1057.5      1.80240E-04
  1062.5      1.78640E-04
  1067.5      1.77010E-04
  1072.5      1.75500E-04
  1077.5      1.73960E-04
  1082.5      1.71850E-04
  1087.5      1.70610E-04
  1092.5      1.62700E-04
  1097.5      1.65840E-04
  1102.5      1.66350E-04
  1107.5      1.65120E-04
  1112.5      1.63730E-04
  1117.5      1.62410E-04
  1122.5      1.61020E-04
  1127.5      1.59680E-04
  1132.5      1.58340E-04
  1137.5      1.57020E-04
  1142.5      1.55720E-04
  1147.5      1.54430E-04
  1152.5      1.53160E-04
  1157.5      1.51910E-04
  1162.5      1.49240E-04
  1167.5      1.48550E-04
  1172.5      1.48230E-04
  1177.5      1.47030E-04
  1182.5      1.45850E-04
  1187.5      1.44690E-04
  1192.5      1.43530E-04
  1197.5      1.42010E-04
  1202.5      1.41270E-04
  1207.5      1.40150E-04
  1212.5      1.39050E-04
  1217.5      1.37970E-04
  1222.5      1.36890E-04
  1227.5      1.35830E-04
  1232.5      1.34780E-04
  1237.5      1.33750E-04
  1242.5      1.32720E-04
  1247.5      1.31710E-04
  1252.5      1.30650E-04
  1257.5      1.29710E-04
  1262.5      1.28730E-04
  1267.5      1.27760E-04
  1272.5      1.26800E-04
  1277.5      1.24780E-04
  1282.5      1.19610E-04
  1287.5      1.23500E-04
  1292.5      1.23080E-04
  1297.5      1.22020E-04
  1302.5      1.21280E-04
  1307.5      1.20390E-04
  1312.5      1.19520E-04
  1317.5      1.18650E-04
  1322.5      1.17790E-04
  1327.5      1.16940E-04
  1332.5      1.16100E-04
  1337.5      1.15270E-04
  1342.5      1.14440E-04
  1347.5      1.13640E-04
  1352.5      1.12840E-04
  1357.5      1.12040E-04
  1362.5      1.11250E-04
  1367.5      1.10470E-04
  1372.5      1.09700E-04
  1377.5      1.08940E-04
  1382.5      1.08180E-04
  1387.5      1.07440E-04
  1392.5      1.06700E-04
  1397.5      1.05960E-04
