 Castelli and Kurucz 2004-2012 Atmosphere
 T     38000.     G    4.50000 [-2.0a] N(He)/Ntot=0.0784 VTURB=2.0  L/H=1.25 OD
 Wavelength  Eddington Hnu
   (nm)    (ergs/s/cm2/Hz/sr)
  9.0900      2.02200E-25
  9.3500      8.28740E-25
  9.6100      3.15860E-24
  9.7700      6.96310E-24
  9.9600      1.72410E-23
  10.200      5.18000E-23
  10.380      1.14640E-22
  10.560      2.47360E-22
  10.770      5.88730E-22
  11.040      1.71550E-21
  11.400      6.63790E-21
  11.780      2.55390E-20
  12.130      8.25270E-20
  12.480      2.51220E-19
  12.710      5.06580E-19
  12.840      7.45580E-19
  13.050      1.37180E-18
  13.240      2.34650E-18
  13.390      3.55040E-18
  13.660      7.33710E-18
  13.980      1.67970E-17
  14.330      4.00140E-17
  14.720      1.00730E-16
  15.100      2.37930E-16
  15.520      5.88330E-16
  15.880      1.23510E-15
  16.200      2.32940E-15
  16.600      4.98950E-15
  17.030      1.09030E-14
  17.340      1.87330E-14
  17.680      3.32320E-14
  18.020      5.77520E-14
  18.170      7.32290E-14
  18.610      1.44060E-13
  19.100      2.95410E-13
  19.390      4.44450E-13
  19.840      8.18650E-13
  20.180      1.27600E-12
  20.500      1.91220E-12
  21.050      3.72640E-12
  21.620      7.18010E-12
  21.980      1.06770E-11
  22.300      1.50290E-11
  22.680      2.22650E-11
  23.000      2.60960E-09
  23.400      1.15730E-08
  24.000      3.14850E-08
  24.650      1.70480E-07
  25.240      6.34060E-07
  25.680      4.59730E-07
  26.000      2.42740E-06
  26.400      5.60510E-06
  26.850      9.55000E-06
  27.350      1.33550E-05
  27.850      1.41620E-05
  28.400      2.16740E-05
  29.000      2.48020E-05
  29.600      1.63240E-05
  30.100      2.20100E-06
  30.800      9.38520E-06
  31.800      2.55880E-05
  32.800      3.28190E-05
  33.800      3.46270E-05
  34.800      3.95790E-05
  35.700      4.97920E-05
  36.600      5.95760E-05
  37.500      6.36560E-05
  38.500      6.46820E-05
  39.500      7.45010E-05
  40.500      8.15190E-05
  41.400      8.66060E-05
  42.200      8.76460E-05
  43.000      8.99590E-05
  44.100      9.97790E-05
  45.100      1.06450E-04
  46.000      1.09640E-04
  47.000      1.17240E-04
  48.000      1.26500E-04
  49.000      1.29940E-04
  50.000      1.44640E-04
  50.600      2.56030E-04
  51.200      4.88100E-04
  52.000      4.88100E-04
  53.000      4.98200E-04
  54.000      4.79220E-04
  55.000      4.98100E-04
  56.000      5.64890E-04
  57.000      5.88710E-04
  58.000      5.85280E-04
  59.000      6.17970E-04
  60.000      6.10510E-04
  61.000      6.20420E-04
  62.000      6.74990E-04
  63.000      6.86740E-04
  64.000      7.10380E-04
  65.000      7.16010E-04
  65.800      7.05320E-04
  66.500      7.38610E-04
  67.500      7.72110E-04
  68.500      7.58640E-04
  69.500      8.01180E-04
  70.500      7.79580E-04
  71.600      8.39180E-04
  72.600      8.57490E-04
  73.500      8.75870E-04
  74.500      8.78450E-04
  75.500      8.90080E-04
  76.500      8.97870E-04
  77.500      9.22180E-04
  78.500      9.33490E-04
  79.500      9.51910E-04
  80.500      9.64500E-04
  81.500      9.83680E-04
  82.500      1.00570E-03
  83.500      9.69580E-04
  84.500      1.02740E-03
  85.500      1.03610E-03
  86.500      1.06040E-03
  87.500      1.07470E-03
  88.500      1.08630E-03
  89.500      1.09760E-03
  90.500      1.10040E-03
  91.500      9.80030E-04
  92.500      1.87820E-03
  93.500      2.54170E-03
  94.500      3.28150E-03
  95.500      3.58740E-03
  96.500      4.11840E-03
  97.500      3.19460E-03
  98.500      4.07880E-03
  99.500      3.85130E-03
  100.50      4.05940E-03
  101.50      4.07450E-03
  102.50      3.24060E-03
  103.50      4.02250E-03
  104.50      4.07040E-03
  105.50      4.05310E-03
  106.50      3.96220E-03
  107.50      3.95490E-03
  108.50      3.78350E-03
  109.50      3.96190E-03
  110.50      3.91740E-03
  111.50      3.87780E-03
  112.50      3.78920E-03
  113.50      3.86170E-03
  114.50      3.83760E-03
  115.50      3.78070E-03
  116.50      3.77130E-03
  117.50      3.50220E-03
  118.50      3.70430E-03
  119.50      3.68650E-03
  120.50      3.64110E-03
  121.50      2.94580E-03
  122.50      3.60790E-03
  123.50      3.60350E-03
  124.50      3.56480E-03
  125.50      3.58560E-03
  126.50      3.56660E-03
  127.50      3.54700E-03
  128.50      3.52680E-03
  129.50      3.48820E-03
  130.50      3.47190E-03
  131.50      3.45890E-03
  132.50      3.43130E-03
  133.50      3.41110E-03
  134.50      3.39330E-03
  135.50      3.36570E-03
  136.50      3.33680E-03
  137.50      3.30340E-03
  138.50      3.29400E-03
  139.50      3.22410E-03
  140.50      3.19080E-03
  141.50      3.23150E-03
  142.50      3.19390E-03
  143.50      3.18940E-03
  144.20      3.16860E-03
  144.70      3.15940E-03
  145.50      3.13790E-03
  146.50      3.12150E-03
  147.50      3.10300E-03
  148.50      3.09240E-03
  149.50      3.06660E-03
  150.50      3.05200E-03
  151.20      3.04170E-03
  151.70      3.02590E-03
  152.50      3.00650E-03
  153.50      2.95970E-03
  154.50      2.86470E-03
  155.50      2.86390E-03
  156.50      2.89430E-03
  157.50      2.89480E-03
  158.50      2.88040E-03
  159.50      2.86260E-03
  160.50      2.81770E-03
  161.50      2.79830E-03
  162.50      2.76850E-03
  163.50      2.71610E-03
  164.50      2.60310E-03
  165.50      2.74810E-03
  166.50      2.72990E-03
  167.20      2.70330E-03
  167.70      2.72560E-03
  168.50      2.70820E-03
  169.50      2.69240E-03
  170.50      2.67120E-03
  171.50      2.62500E-03
  172.50      2.61840E-03
  173.50      2.62980E-03
  174.50      2.60980E-03
  175.50      2.58830E-03
  176.50      2.57870E-03
  177.50      2.56450E-03
  178.50      2.54950E-03
  179.50      2.53010E-03
  180.50      2.51640E-03
  181.50      2.50060E-03
  182.50      2.48370E-03
  183.50      2.47090E-03
  184.50      2.45420E-03
  185.50      2.43720E-03
  186.50      2.42130E-03
  187.50      2.40630E-03
  188.50      2.39180E-03
  189.50      2.37960E-03
  190.50      2.36590E-03
  191.50      2.35050E-03
  192.50      2.32800E-03
  193.50      2.32220E-03
  194.50      2.30820E-03
  195.50      2.29240E-03
  196.70      2.27700E-03
  197.60      2.26460E-03
  198.40      2.25350E-03
  199.50      2.23810E-03
  200.50      2.22520E-03
  201.50      2.21170E-03
  202.50      2.19810E-03
  203.50      2.18480E-03
  204.50      2.17130E-03
  205.50      1.71010E-03
  206.50      1.66120E-03
  207.40      1.70090E-03
  207.80      1.74220E-03
  208.50      1.85570E-03
  209.50      2.04680E-03
  210.50      2.09620E-03
  211.50      2.09100E-03
  212.50      2.07740E-03
  213.50      2.06350E-03
  214.50      2.05490E-03
  215.50      2.07080E-03
  216.50      2.01460E-03
  217.50      2.05940E-03
  218.50      1.99230E-03
  219.50      2.03480E-03
  220.50      2.02520E-03
  221.50      1.95530E-03
  222.50      2.00060E-03
  223.50      1.98970E-03
  224.50      1.97640E-03
  225.50      1.91150E-03
  226.50      1.95450E-03
  227.50      1.94320E-03
  228.50      1.93030E-03
  229.50      1.90420E-03
  230.50      1.85810E-03
  231.50      1.89650E-03
  232.50      1.88710E-03
  233.50      1.87630E-03
  234.50      1.86540E-03
  235.50      1.85470E-03
  236.50      1.84400E-03
  237.50      1.83320E-03
  238.50      1.77330E-03
  239.50      1.80870E-03
  240.50      1.80200E-03
  241.50      1.79140E-03
  242.50      1.78170E-03
  243.50      1.77150E-03
  244.50      1.76160E-03
  245.50      1.75080E-03
  246.50      1.74190E-03
  247.50      1.73220E-03
  248.50      1.72240E-03
  249.50      1.66200E-03
  250.50      1.69830E-03
  251.30      1.60090E-03
  251.80      1.68220E-03
  252.50      1.68390E-03
  253.50      1.67520E-03
  254.50      1.66590E-03
  255.50      1.65660E-03
  256.50      1.64770E-03
  257.50      1.63880E-03
  258.50      1.62980E-03
  259.50      1.61990E-03
  260.50      1.61350E-03
  261.50      1.60440E-03
  262.50      1.59610E-03
  263.50      1.58740E-03
  264.50      1.57860E-03
  265.50      1.57000E-03
  266.50      1.56100E-03
  267.50      1.55160E-03
  268.50      1.54520E-03
  269.50      1.53520E-03
  270.50      1.52910E-03
  271.50      1.52090E-03
  272.50      1.51010E-03
  273.50      1.46830E-03
  274.50      1.49710E-03
  275.50      1.48920E-03
  276.50      1.47830E-03
  277.50      1.47360E-03
  278.50      1.46590E-03
  279.50      1.45730E-03
  280.50      1.45060E-03
  281.50      1.44320E-03
  282.50      1.43230E-03
  283.50      1.42700E-03
  284.50      1.42120E-03
  285.50      1.41390E-03
  286.50      1.40660E-03
  287.50      1.39950E-03
  288.50      1.39240E-03
  289.50      1.38520E-03
  291.00      1.37470E-03
  293.00      1.36090E-03
  295.00      1.34450E-03
  297.00      1.33360E-03
  299.00      1.31970E-03
  301.00      1.30720E-03
  303.00      1.29350E-03
  305.00      1.28100E-03
  307.00      1.26920E-03
  309.00      1.25680E-03
  311.00      1.24460E-03
  313.00      1.23280E-03
  315.00      1.22120E-03
  317.00      1.20950E-03
  319.00      1.19420E-03
  321.00      1.17190E-03
  323.00      1.17560E-03
  325.00      1.16460E-03
  327.00      1.15260E-03
  329.00      1.14270E-03
  331.00      1.13250E-03
  333.00      1.12210E-03
  335.00      1.11090E-03
  337.00      1.10170E-03
  339.00      1.09180E-03
  341.00      1.08190E-03
  343.00      1.07130E-03
  345.00      1.06040E-03
  347.00      1.05230E-03
  349.00      1.04370E-03
  351.00      1.03450E-03
  353.00      1.02500E-03
  355.00      1.01560E-03
  357.00      1.00860E-03
  359.00      9.97310E-04
  361.00      9.89820E-04
  363.00      9.79790E-04
  364.00      9.64620E-04
  365.00      9.02700E-04
  367.00      8.96450E-04
  369.00      8.90930E-04
  371.00      8.87590E-04
  373.00      8.88290E-04
  375.00      8.98210E-04
  377.00      9.01110E-04
  379.00      9.17380E-04
  381.00      9.33970E-04
  383.00      8.82350E-04
  385.00      9.36400E-04
  387.00      9.40740E-04
  389.00      8.56360E-04
  391.00      9.30380E-04
  393.00      9.18820E-04
  395.00      9.16410E-04
  397.00      8.26250E-04
  399.00      9.00140E-04
  401.00      8.96400E-04
  403.00      8.70340E-04
  405.00      8.84990E-04
  407.00      8.76450E-04
  409.00      8.47430E-04
  411.00      7.95890E-04
  413.00      8.52600E-04
  415.00      8.47100E-04
  417.00      8.42620E-04
  419.00      8.33390E-04
  421.00      8.20370E-04
  423.00      8.23090E-04
  425.00      8.16540E-04
  427.00      8.10100E-04
  429.00      8.03780E-04
  431.00      7.96400E-04
  433.00      7.64590E-04
  435.00      7.32010E-04
  437.00      7.77490E-04
  439.00      7.67420E-04
  441.00      7.67150E-04
  443.00      7.60890E-04
  445.00      7.55640E-04
  447.00      7.39300E-04
  449.00      7.44200E-04
  451.00      7.38620E-04
  453.00      7.32390E-04
  455.00      7.17730E-04
  457.00      7.22250E-04
  459.00      7.16830E-04
  461.00      7.11550E-04
  463.00      7.06090E-04
  465.00      6.99700E-04
  467.00      6.95500E-04
  469.00      6.71580E-04
  471.00      6.82990E-04
  473.00      6.81040E-04
  475.00      6.76140E-04
  477.00      6.71280E-04
  479.00      6.66480E-04
  481.00      6.61710E-04
  483.00      6.56140E-04
  485.00      6.35280E-04
  487.00      6.00520E-04
  489.00      6.41420E-04
  491.00      6.38650E-04
  493.00      6.28890E-04
  495.00      6.29780E-04
  497.00      6.25460E-04
  499.00      6.21140E-04
  501.00      6.14110E-04
  503.00      6.12610E-04
  505.00      6.07540E-04
  507.00      6.04270E-04
  509.00      6.00160E-04
  511.00      5.96090E-04
  513.00      5.92060E-04
  515.00      5.88070E-04
  517.00      5.84110E-04
  519.00      5.80210E-04
  521.00      5.76330E-04
  523.00      5.72500E-04
  525.00      5.68700E-04
  527.00      5.64920E-04
  529.00      5.61220E-04
  531.00      5.57540E-04
  533.00      5.53890E-04
  535.00      5.50270E-04
  537.00      5.46690E-04
  539.00      5.43150E-04
  541.00      5.32020E-04
  543.00      5.36150E-04
  545.00      5.32720E-04
  547.00      5.29310E-04
  549.00      5.25930E-04
  551.00      5.22570E-04
  553.00      5.19270E-04
  555.00      5.15980E-04
  557.00      5.12730E-04
  559.00      5.09390E-04
  561.00      5.06310E-04
  563.00      5.03150E-04
  565.00      5.00010E-04
  567.00      4.96910E-04
  569.00      4.89770E-04
  571.00      4.69310E-04
  573.00      4.66610E-04
  575.00      4.63930E-04
  577.00      4.61310E-04
  579.00      4.58790E-04
  581.00      4.56480E-04
  583.00      4.54600E-04
  585.00      4.53260E-04
  587.00      4.47000E-04
  589.00      4.50920E-04
  591.00      4.50220E-04
  593.00      4.49570E-04
  595.00      4.49100E-04
  597.00      4.48700E-04
  599.00      4.48480E-04
  601.00      4.47140E-04
  603.00      4.45200E-04
  605.00      4.43530E-04
  607.00      4.41010E-04
  609.00      4.38430E-04
  611.00      4.35710E-04
  613.00      4.33190E-04
  615.00      4.30840E-04
  617.00      4.27820E-04
  619.00      4.25880E-04
  621.00      4.23440E-04
  623.00      4.20230E-04
  625.00      4.18530E-04
  627.00      4.16220E-04
  629.00      4.13850E-04
  631.00      4.10370E-04
  633.00      4.09180E-04
  635.00      4.06880E-04
  637.00      4.04600E-04
  639.00      4.02320E-04
  641.00      3.98520E-04
  643.00      3.97850E-04
  645.00      3.95640E-04
  647.00      3.93440E-04
  649.00      3.91270E-04
  651.00      3.89040E-04
  653.00      3.84230E-04
  655.00      3.79070E-04
  657.00      3.55570E-04
  659.00      3.79550E-04
  661.00      3.78580E-04
  663.00      3.76530E-04
  665.00      3.74550E-04
  667.00      3.70650E-04
  669.00      3.66430E-04
  671.00      3.68490E-04
  673.00      3.66560E-04
  675.00      3.64600E-04
  677.00      3.62660E-04
  679.00      3.60740E-04
  681.00      3.58820E-04
  683.00      3.56930E-04
  685.00      3.55050E-04
  687.00      3.53180E-04
  689.00      3.48590E-04
  691.00      3.49460E-04
  693.00      3.47670E-04
  695.00      3.45860E-04
  697.00      3.44070E-04
  699.00      3.42280E-04
  701.00      3.40510E-04
  703.00      3.38760E-04
  705.00      3.37020E-04
  707.00      3.32990E-04
  709.00      3.33590E-04
  711.00      3.31880E-04
  713.00      3.30200E-04
  715.00      3.28520E-04
  717.00      3.24920E-04
  719.00      3.24210E-04
  721.00      3.23570E-04
  723.00      3.21950E-04
  725.00      3.20330E-04
  727.00      3.18730E-04
  729.00      3.16090E-04
  731.00      3.15560E-04
  733.00      3.14000E-04
  735.00      3.12450E-04
  737.00      3.10910E-04
  739.00      3.09380E-04
  741.00      3.07860E-04
  743.00      3.06350E-04
  745.00      3.04860E-04
  747.00      3.03370E-04
  749.00      3.01890E-04
  751.00      3.00410E-04
  753.00      2.98980E-04
  755.00      2.97530E-04
  757.00      2.96100E-04
  759.00      2.91820E-04
  761.00      2.93200E-04
  763.00      2.91860E-04
  765.00      2.90470E-04
  767.00      2.89080E-04
  769.00      2.87700E-04
  771.00      2.86340E-04
  773.00      2.84970E-04
  775.00      2.83650E-04
  777.00      2.82310E-04
  779.00      2.80990E-04
  781.00      2.79640E-04
  783.00      2.78360E-04
  785.00      2.77130E-04
  787.00      2.75840E-04
  789.00      2.74560E-04
  791.00      2.73290E-04
  793.00      2.72030E-04
  795.00      2.70770E-04
  797.00      2.69520E-04
  799.00      2.68290E-04
  801.00      2.67060E-04
  803.00      2.65840E-04
  805.00      2.64630E-04
  807.00      2.63420E-04
  809.00      2.62200E-04
  811.00      2.61040E-04
  813.00      2.59860E-04
  815.00      2.58640E-04
  817.00      2.57520E-04
  819.00      2.55640E-04
  821.00      2.48940E-04
  823.00      2.46650E-04
  825.00      2.46670E-04
  827.00      2.45680E-04
  829.00      2.44830E-04
  831.00      2.43810E-04
  833.00      2.42740E-04
  835.00      2.41480E-04
  837.00      2.40640E-04
  839.00      2.39710E-04
  841.00      2.38770E-04
  843.00      2.37800E-04
  845.00      2.36560E-04
  847.00      2.35990E-04
  849.00      2.35090E-04
  851.00      2.34290E-04
  853.00      2.33440E-04
  855.00      2.32390E-04
  857.00      2.32280E-04
  859.00      2.30140E-04
  861.00      2.29860E-04
  863.00      2.30390E-04
  865.00      2.28580E-04
  867.00      2.25670E-04
  869.00      2.28230E-04
  871.00      2.28290E-04
  873.00      2.26170E-04
  875.00      2.20160E-04
  877.00      2.23770E-04
  879.00      2.25860E-04
  881.00      2.25510E-04
  883.00      2.24430E-04
  885.00      2.18850E-04
  887.00      2.12880E-04
  889.00      2.20740E-04
  891.00      2.21460E-04
  893.00      2.20730E-04
  895.00      2.20110E-04
  897.00      2.18950E-04
  899.00      2.16090E-04
  901.00      2.05770E-04
  903.00      2.09470E-04
  905.00      2.14600E-04
  907.00      2.13970E-04
  909.00      2.13950E-04
  911.00      2.13140E-04
  913.00      2.12510E-04
  915.00      2.11640E-04
  917.00      2.10500E-04
  919.00      2.09110E-04
  921.00      2.04770E-04
  923.00      1.93550E-04
  925.00      2.02970E-04
  927.00      2.05640E-04
  929.00      2.05600E-04
  931.00      2.04610E-04
  933.00      2.03990E-04
  935.00      2.00210E-04
  937.00      2.02030E-04
  939.00      2.01640E-04
  941.00      2.00840E-04
  943.00      2.00050E-04
  945.00      1.99260E-04
  947.00      1.98090E-04
  949.00      1.97560E-04
  951.00      1.95360E-04
  953.00      1.91060E-04
  955.00      1.80820E-04
  957.00      1.91380E-04
  959.00      1.93120E-04
  961.00      1.92820E-04
  963.00      1.92040E-04
  965.00      1.91590E-04
  967.00      1.90850E-04
  969.00      1.90070E-04
  971.00      1.89180E-04
  973.00      1.88640E-04
  975.00      1.87840E-04
  977.00      1.86700E-04
  979.00      1.86480E-04
  981.00      1.85770E-04
  983.00      1.85060E-04
  985.00      1.84360E-04
  987.00      1.83660E-04
  989.00      1.82960E-04
  991.00      1.82260E-04
  993.00      1.81580E-04
  995.00      1.80890E-04
  997.00      1.80210E-04
  999.00      1.79500E-04
  1002.5      1.74470E-04
  1007.5      1.71520E-04
  1012.5      1.72910E-04
  1017.5      1.73440E-04
  1022.5      1.71830E-04
  1027.5      1.70280E-04
  1032.5      1.68450E-04
  1037.5      1.67200E-04
  1042.5      1.65330E-04
  1047.5      1.64210E-04
  1052.5      1.62740E-04
  1057.5      1.61290E-04
  1062.5      1.59860E-04
  1067.5      1.58370E-04
  1072.5      1.57060E-04
  1077.5      1.55680E-04
  1082.5      1.53620E-04
  1087.5      1.52820E-04
  1092.5      1.45340E-04
  1097.5      1.48660E-04
  1102.5      1.48840E-04
  1107.5      1.47780E-04
  1112.5      1.46550E-04
  1117.5      1.45350E-04
  1122.5      1.44100E-04
  1127.5      1.42920E-04
  1132.5      1.41720E-04
  1137.5      1.40540E-04
  1142.5      1.39380E-04
  1147.5      1.38230E-04
  1152.5      1.37100E-04
  1157.5      1.35970E-04
  1162.5      1.34030E-04
  1167.5      1.33310E-04
  1172.5      1.32690E-04
  1177.5      1.31620E-04
  1182.5      1.30570E-04
  1187.5      1.29530E-04
  1192.5      1.28500E-04
  1197.5      1.26960E-04
  1202.5      1.26470E-04
  1207.5      1.25480E-04
  1212.5      1.24490E-04
  1217.5      1.23520E-04
  1222.5      1.22570E-04
  1227.5      1.21620E-04
  1232.5      1.20680E-04
  1237.5      1.19750E-04
  1242.5      1.18840E-04
  1247.5      1.17930E-04
  1252.5      1.16960E-04
  1257.5      1.16150E-04
  1262.5      1.15280E-04
  1267.5      1.14410E-04
  1272.5      1.13550E-04
  1277.5      1.11740E-04
  1282.5      1.07080E-04
  1287.5      1.10710E-04
  1292.5      1.10220E-04
  1297.5      1.09170E-04
  1302.5      1.08620E-04
  1307.5      1.07820E-04
  1312.5      1.07040E-04
  1317.5      1.06270E-04
  1322.5      1.05500E-04
  1327.5      1.04740E-04
  1332.5      1.03990E-04
  1337.5      1.03250E-04
  1342.5      1.02490E-04
  1347.5      1.01790E-04
  1352.5      1.01070E-04
  1357.5      1.00360E-04
  1362.5      9.96570E-05
  1367.5      9.89600E-05
  1372.5      9.82710E-05
  1377.5      9.75890E-05
  1382.5      9.69150E-05
  1387.5      9.62470E-05
  1392.5      9.55860E-05
  1397.5      9.49310E-05
