 Castelli and Kurucz 2004-2012 Atmosphere
 T     35000.     G    5.00000 [-2.0a] N(He)/Ntot=0.0784 VTURB=2.0  L/H=1.25 OD
 Wavelength  Eddington Hnu
   (nm)    (ergs/s/cm2/Hz/sr)
  9.0900      9.92940E-29
  9.3500      5.04580E-28
  9.6100      2.35570E-27
  9.7700      5.84680E-27
  9.9600      1.65890E-26
  10.200      5.87040E-26
  10.380      1.46110E-25
  10.560      3.53130E-25
  10.770      9.53760E-25
  11.040      3.24290E-24
  11.400      1.52080E-23
  11.780      7.05710E-23
  12.130      2.67620E-22
  12.480      9.45460E-22
  12.710      2.09120E-21
  12.840      3.23700E-21
  13.050      6.44400E-21
  13.240      1.18050E-20
  13.390      1.88250E-20
  13.660      4.26060E-20
  13.980      1.08000E-19
  14.330      2.85900E-19
  14.720      8.04160E-19
  15.100      2.10050E-18
  15.520      5.77120E-18
  15.880      1.31940E-17
  16.200      2.67610E-17
  16.600      6.25220E-17
  17.030      1.49300E-16
  17.340      2.72760E-16
  17.680      5.16280E-16
  18.020      9.55590E-16
  18.170      1.24520E-15
  18.610      2.64540E-15
  19.100      5.89190E-15
  19.390      9.29120E-15
  19.840      1.83750E-14
  20.180      3.01640E-14
  20.500      4.74090E-14
  21.050      9.99850E-14
  21.620      2.08440E-13
  21.980      3.25240E-13
  22.300      4.77270E-13
  22.680      7.41950E-13
  23.000      7.78240E-11
  23.400      5.67070E-10
  24.000      2.14840E-09
  24.650      6.94940E-09
  25.240      1.37190E-08
  25.680      9.59490E-09
  26.000      2.79040E-08
  26.400      4.39070E-08
  26.850      6.78600E-08
  27.350      8.83210E-08
  27.850      9.60190E-08
  28.400      1.47000E-07
  29.000      1.66590E-07
  29.600      1.42440E-07
  30.100      7.67430E-08
  30.800      1.33810E-07
  31.800      3.08700E-07
  32.800      3.89140E-07
  33.800      5.07740E-07
  34.800      6.58020E-07
  35.700      7.94610E-07
  36.600      1.02240E-06
  37.500      1.22520E-06
  38.500      1.57350E-06
  39.500      1.96560E-06
  40.500      2.41870E-06
  41.400      2.94080E-06
  42.200      3.39050E-06
  43.000      3.92740E-06
  44.100      4.84370E-06
  45.100      5.79230E-06
  46.000      6.67100E-06
  47.000      7.94820E-06
  48.000      9.29390E-06
  49.000      1.06500E-05
  50.000      1.25480E-05
  50.600      4.13100E-05
  51.200      1.35700E-04
  52.000      1.35920E-04
  53.000      1.44090E-04
  54.000      1.35710E-04
  55.000      1.50320E-04
  56.000      1.63920E-04
  57.000      1.70630E-04
  58.000      1.66830E-04
  59.000      1.79870E-04
  60.000      1.80570E-04
  61.000      1.86630E-04
  62.000      1.99890E-04
  63.000      2.06320E-04
  64.000      2.10020E-04
  65.000      2.16690E-04
  65.800      2.17470E-04
  66.500      2.24670E-04
  67.500      2.34070E-04
  68.500      2.32020E-04
  69.500      2.49070E-04
  70.500      2.46840E-04
  71.600      2.64530E-04
  72.600      2.71270E-04
  73.500      2.80970E-04
  74.500      2.85350E-04
  75.500      2.92080E-04
  76.500      2.98930E-04
  77.500      3.08180E-04
  78.500      3.18210E-04
  79.500      3.25140E-04
  80.500      3.31910E-04
  81.500      3.40640E-04
  82.500      3.51690E-04
  83.500      3.43650E-04
  84.500      3.66920E-04
  85.500      3.74780E-04
  86.500      3.84560E-04
  87.500      3.92440E-04
  88.500      4.00760E-04
  89.500      4.09180E-04
  90.500      4.14850E-04
  91.500      4.18790E-04
  92.500      9.80640E-04
  93.500      1.53780E-03
  94.500      2.46510E-03
  95.500      2.84260E-03
  96.500      3.60350E-03
  97.500      2.29530E-03
  98.500      3.72820E-03
  99.500      3.45770E-03
  100.50      3.72910E-03
  101.50      3.66730E-03
  102.50      2.29060E-03
  103.50      3.56700E-03
  104.50      3.73540E-03
  105.50      3.72230E-03
  106.50      3.60310E-03
  107.50      3.60390E-03
  108.50      3.36460E-03
  109.50      3.61230E-03
  110.50      3.53850E-03
  111.50      3.51540E-03
  112.50      3.39500E-03
  113.50      3.49840E-03
  114.50      3.45160E-03
  115.50      3.41300E-03
  116.50      3.40480E-03
  117.50      3.07960E-03
  118.50      3.31910E-03
  119.50      3.28820E-03
  120.50      3.16490E-03
  121.50      2.08760E-03
  122.50      3.13910E-03
  123.50      3.21840E-03
  124.50      3.17500E-03
  125.50      3.19650E-03
  126.50      3.17870E-03
  127.50      3.15790E-03
  128.50      3.13650E-03
  129.50      3.05240E-03
  130.50      3.05300E-03
  131.50      3.06670E-03
  132.50      3.03510E-03
  133.50      2.98770E-03
  134.50      2.99410E-03
  135.50      2.97380E-03
  136.50      2.94510E-03
  137.50      2.92170E-03
  138.50      2.90210E-03
  139.50      2.79410E-03
  140.50      2.78470E-03
  141.50      2.83280E-03
  142.50      2.79610E-03
  143.50      2.79250E-03
  144.20      2.78120E-03
  144.70      2.76970E-03
  145.50      2.74930E-03
  146.50      2.73140E-03
  147.50      2.70910E-03
  148.50      2.69550E-03
  149.50      2.67160E-03
  150.50      2.64990E-03
  151.20      2.64270E-03
  151.70      2.62990E-03
  152.50      2.60870E-03
  153.50      2.55920E-03
  154.50      2.48750E-03
  155.50      2.48160E-03
  156.50      2.50000E-03
  157.50      2.49930E-03
  158.50      2.48980E-03
  159.50      2.47260E-03
  160.50      2.42790E-03
  161.50      2.40440E-03
  162.50      2.38460E-03
  163.50      2.34240E-03
  164.50      2.24450E-03
  165.50      2.36340E-03
  166.50      2.34540E-03
  167.20      2.32410E-03
  167.70      2.34360E-03
  168.50      2.32640E-03
  169.50      2.30990E-03
  170.50      2.29020E-03
  171.50      2.25600E-03
  172.50      2.23760E-03
  173.50      2.25180E-03
  174.50      2.23290E-03
  175.50      2.21320E-03
  176.50      2.20320E-03
  177.50      2.19010E-03
  178.50      2.17600E-03
  179.50      2.15990E-03
  180.50      2.14740E-03
  181.50      2.13210E-03
  182.50      2.11650E-03
  183.50      2.10510E-03
  184.50      2.08680E-03
  185.50      2.06810E-03
  186.50      2.05550E-03
  187.50      2.04470E-03
  188.50      2.02920E-03
  189.50      2.01430E-03
  190.50      2.00680E-03
  191.50      1.98870E-03
  192.50      1.96670E-03
  193.50      1.96510E-03
  194.50      1.95530E-03
  195.50      1.93660E-03
  196.70      1.92660E-03
  197.60      1.91720E-03
  198.40      1.90500E-03
  199.50      1.88860E-03
  200.50      1.88110E-03
  201.50      1.86960E-03
  202.50      1.85770E-03
  203.50      1.84510E-03
  204.50      1.83320E-03
  205.50      1.56210E-03
  206.50      1.52520E-03
  207.40      1.52900E-03
  207.80      1.53860E-03
  208.50      1.57790E-03
  209.50      1.67090E-03
  210.50      1.75050E-03
  211.50      1.75670E-03
  212.50      1.74520E-03
  213.50      1.73400E-03
  214.50      1.72390E-03
  215.50      1.72180E-03
  216.50      1.69250E-03
  217.50      1.70790E-03
  218.50      1.67020E-03
  219.50      1.68680E-03
  220.50      1.67860E-03
  221.50      1.63490E-03
  222.50      1.65750E-03
  223.50      1.64780E-03
  224.50      1.63630E-03
  225.50      1.59340E-03
  226.50      1.61740E-03
  227.50      1.60760E-03
  228.50      1.59600E-03
  229.50      1.56890E-03
  230.50      1.54520E-03
  231.50      1.56720E-03
  232.50      1.55900E-03
  233.50      1.54950E-03
  234.50      1.54030E-03
  235.50      1.53100E-03
  236.50      1.52180E-03
  237.50      1.51250E-03
  238.50      1.47210E-03
  239.50      1.49230E-03
  240.50      1.48580E-03
  241.50      1.47680E-03
  242.50      1.46820E-03
  243.50      1.45930E-03
  244.50      1.45100E-03
  245.50      1.44210E-03
  246.50      1.43410E-03
  247.50      1.42570E-03
  248.50      1.41750E-03
  249.50      1.36400E-03
  250.50      1.39750E-03
  251.30      1.33700E-03
  251.80      1.38320E-03
  252.50      1.38500E-03
  253.50      1.37720E-03
  254.50      1.36890E-03
  255.50      1.36120E-03
  256.50      1.35380E-03
  257.50      1.34620E-03
  258.50      1.33870E-03
  259.50      1.33100E-03
  260.50      1.32730E-03
  261.50      1.31980E-03
  262.50      1.31250E-03
  263.50      1.30510E-03
  264.50      1.29750E-03
  265.50      1.28970E-03
  266.50      1.28130E-03
  267.50      1.27280E-03
  268.50      1.26940E-03
  269.50      1.25760E-03
  270.50      1.25560E-03
  271.50      1.24870E-03
  272.50      1.23570E-03
  273.50      1.21440E-03
  274.50      1.22850E-03
  275.50      1.22190E-03
  276.50      1.20840E-03
  277.50      1.20890E-03
  278.50      1.20230E-03
  279.50      1.19370E-03
  280.50      1.18910E-03
  281.50      1.18320E-03
  282.50      1.16930E-03
  283.50      1.16630E-03
  284.50      1.16460E-03
  285.50      1.15840E-03
  286.50      1.15230E-03
  287.50      1.14630E-03
  288.50      1.14040E-03
  289.50      1.13440E-03
  291.00      1.12550E-03
  293.00      1.11400E-03
  295.00      1.09650E-03
  297.00      1.09130E-03
  299.00      1.08000E-03
  301.00      1.06920E-03
  303.00      1.05820E-03
  305.00      1.04780E-03
  307.00      1.03770E-03
  309.00      1.02680E-03
  311.00      1.01720E-03
  313.00      1.00770E-03
  315.00      9.97670E-04
  317.00      9.88090E-04
  319.00      9.71900E-04
  321.00      9.61960E-04
  323.00      9.59710E-04
  325.00      9.50570E-04
  327.00      9.41730E-04
  329.00      9.32360E-04
  331.00      9.24490E-04
  333.00      9.15740E-04
  335.00      9.06060E-04
  337.00      8.98910E-04
  339.00      8.90780E-04
  341.00      8.82630E-04
  343.00      8.72510E-04
  345.00      8.62420E-04
  347.00      8.56390E-04
  349.00      8.48750E-04
  351.00      8.41610E-04
  353.00      8.35000E-04
  355.00      8.27240E-04
  357.00      8.23670E-04
  359.00      8.11420E-04
  361.00      8.07160E-04
  363.00      7.97280E-04
  364.00      7.96040E-04
  365.00      7.75730E-04
  367.00      7.71150E-04
  369.00      7.65340E-04
  371.00      7.52980E-04
  373.00      7.45020E-04
  375.00      7.40580E-04
  377.00      7.27420E-04
  379.00      7.43460E-04
  381.00      7.67070E-04
  383.00      7.00440E-04
  385.00      7.83920E-04
  387.00      7.97640E-04
  389.00      6.75660E-04
  391.00      7.92650E-04
  393.00      7.92060E-04
  395.00      7.81360E-04
  397.00      6.50710E-04
  399.00      7.64230E-04
  401.00      7.67650E-04
  403.00      7.35510E-04
  405.00      7.61730E-04
  407.00      7.51890E-04
  409.00      7.03090E-04
  411.00      6.39170E-04
  413.00      7.27180E-04
  415.00      7.26230E-04
  417.00      7.25580E-04
  419.00      7.18760E-04
  421.00      7.11370E-04
  423.00      7.08950E-04
  425.00      7.02950E-04
  427.00      6.96920E-04
  429.00      6.90710E-04
  431.00      6.81320E-04
  433.00      6.30010E-04
  435.00      5.91440E-04
  437.00      6.63770E-04
  439.00      6.49770E-04
  441.00      6.58920E-04
  443.00      6.52940E-04
  445.00      6.49190E-04
  447.00      6.20690E-04
  449.00      6.38710E-04
  451.00      6.34340E-04
  453.00      6.29170E-04
  455.00      6.20190E-04
  457.00      6.19870E-04
  459.00      6.14980E-04
  461.00      6.10420E-04
  463.00      6.05700E-04
  465.00      5.99310E-04
  467.00      5.96560E-04
  469.00      5.82350E-04
  471.00      5.82320E-04
  473.00      5.83750E-04
  475.00      5.79410E-04
  477.00      5.75200E-04
  479.00      5.70980E-04
  481.00      5.65950E-04
  483.00      5.58680E-04
  485.00      5.24030E-04
  487.00      4.83890E-04
  489.00      5.44680E-04
  491.00      5.44530E-04
  493.00      5.31340E-04
  495.00      5.38700E-04
  497.00      5.35060E-04
  499.00      5.31280E-04
  501.00      5.22680E-04
  503.00      5.23800E-04
  505.00      5.18230E-04
  507.00      5.16550E-04
  509.00      5.12960E-04
  511.00      5.09410E-04
  513.00      5.05900E-04
  515.00      5.02420E-04
  517.00      4.98960E-04
  519.00      4.95570E-04
  521.00      4.92210E-04
  523.00      4.88870E-04
  525.00      4.85560E-04
  527.00      4.82290E-04
  529.00      4.79060E-04
  531.00      4.75860E-04
  533.00      4.72690E-04
  535.00      4.69550E-04
  537.00      4.66440E-04
  539.00      4.63360E-04
  541.00      4.57120E-04
  543.00      4.57290E-04
  545.00      4.54310E-04
  547.00      4.51350E-04
  549.00      4.48420E-04
  551.00      4.45510E-04
  553.00      4.42640E-04
  555.00      4.39800E-04
  557.00      4.36970E-04
  559.00      4.34150E-04
  561.00      4.31420E-04
  563.00      4.28670E-04
  565.00      4.25960E-04
  567.00      4.23270E-04
  569.00      4.19670E-04
  571.00      4.13620E-04
  573.00      4.11110E-04
  575.00      4.08580E-04
  577.00      4.06140E-04
  579.00      4.03690E-04
  581.00      4.01270E-04
  583.00      3.98860E-04
  585.00      3.96500E-04
  587.00      3.84720E-04
  589.00      3.91340E-04
  591.00      3.90060E-04
  593.00      3.88060E-04
  595.00      3.86070E-04
  597.00      3.84140E-04
  599.00      3.82240E-04
  601.00      3.80330E-04
  603.00      3.78840E-04
  605.00      3.76730E-04
  607.00      3.74500E-04
  609.00      3.72280E-04
  611.00      3.70090E-04
  613.00      3.67910E-04
  615.00      3.65750E-04
  617.00      3.63610E-04
  619.00      3.61490E-04
  621.00      3.59390E-04
  623.00      3.57310E-04
  625.00      3.55240E-04
  627.00      3.53190E-04
  629.00      3.51160E-04
  631.00      3.49150E-04
  633.00      3.47160E-04
  635.00      3.45180E-04
  637.00      3.43220E-04
  639.00      3.41270E-04
  641.00      3.39340E-04
  643.00      3.37430E-04
  645.00      3.35530E-04
  647.00      3.33650E-04
  649.00      3.31780E-04
  651.00      3.29640E-04
  653.00      3.26220E-04
  655.00      3.14950E-04
  657.00      2.88660E-04
  659.00      3.19540E-04
  661.00      3.20310E-04
  663.00      3.19160E-04
  665.00      3.17510E-04
  667.00      3.12980E-04
  669.00      3.11020E-04
  671.00      3.12340E-04
  673.00      3.10670E-04
  675.00      3.09000E-04
  677.00      3.07340E-04
  679.00      3.05690E-04
  681.00      3.04060E-04
  683.00      3.02430E-04
  685.00      3.00830E-04
  687.00      2.99230E-04
  689.00      2.97430E-04
  691.00      2.96070E-04
  693.00      2.94510E-04
  695.00      2.92970E-04
  697.00      2.91430E-04
  699.00      2.89910E-04
  701.00      2.88400E-04
  703.00      2.86900E-04
  705.00      2.85410E-04
  707.00      2.80540E-04
  709.00      2.82470E-04
  711.00      2.81020E-04
  713.00      2.79580E-04
  715.00      2.78150E-04
  717.00      2.76510E-04
  719.00      2.75210E-04
  721.00      2.73920E-04
  723.00      2.72500E-04
  725.00      2.71150E-04
  727.00      2.69790E-04
  729.00      2.66800E-04
  731.00      2.67070E-04
  733.00      2.65750E-04
  735.00      2.64430E-04
  737.00      2.63110E-04
  739.00      2.61810E-04
  741.00      2.60510E-04
  743.00      2.59220E-04
  745.00      2.57960E-04
  747.00      2.56690E-04
  749.00      2.55440E-04
  751.00      2.54140E-04
  753.00      2.52950E-04
  755.00      2.51720E-04
  757.00      2.50500E-04
  759.00      2.48930E-04
  761.00      2.48070E-04
  763.00      2.46880E-04
  765.00      2.45700E-04
  767.00      2.44520E-04
  769.00      2.43340E-04
  771.00      2.42180E-04
  773.00      2.41030E-04
  775.00      2.39890E-04
  777.00      2.38750E-04
  779.00      2.37620E-04
  781.00      2.36430E-04
  783.00      2.35390E-04
  785.00      2.34420E-04
  787.00      2.33310E-04
  789.00      2.32210E-04
  791.00      2.31140E-04
  793.00      2.30070E-04
  795.00      2.29000E-04
  797.00      2.27890E-04
  799.00      2.26880E-04
  801.00      2.25840E-04
  803.00      2.24800E-04
  805.00      2.23760E-04
  807.00      2.22740E-04
  809.00      2.21560E-04
  811.00      2.20560E-04
  813.00      2.19670E-04
  815.00      2.18500E-04
  817.00      2.17680E-04
  819.00      2.16410E-04
  821.00      2.14530E-04
  823.00      2.13470E-04
  825.00      2.12820E-04
  827.00      2.11520E-04
  829.00      2.11040E-04
  831.00      2.10170E-04
  833.00      2.09160E-04
  835.00      2.07730E-04
  837.00      2.07200E-04
  839.00      2.06460E-04
  841.00      2.05560E-04
  843.00      2.04600E-04
  845.00      2.02950E-04
  847.00      2.02870E-04
  849.00      2.01780E-04
  851.00      2.01100E-04
  853.00      1.99900E-04
  855.00      1.99110E-04
  857.00      1.98680E-04
  859.00      1.95850E-04
  861.00      1.96250E-04
  863.00      1.96630E-04
  865.00      1.94140E-04
  867.00      1.91650E-04
  869.00      1.94110E-04
  871.00      1.94320E-04
  873.00      1.91060E-04
  875.00      1.85250E-04
  877.00      1.88250E-04
  879.00      1.91470E-04
  881.00      1.91440E-04
  883.00      1.89730E-04
  885.00      1.82400E-04
  887.00      1.77090E-04
  889.00      1.85730E-04
  891.00      1.87740E-04
  893.00      1.87570E-04
  895.00      1.87110E-04
  897.00      1.85700E-04
  899.00      1.81340E-04
  901.00      1.69720E-04
  903.00      1.73690E-04
  905.00      1.81030E-04
  907.00      1.80900E-04
  909.00      1.81740E-04
  911.00      1.81520E-04
  913.00      1.80860E-04
  915.00      1.80010E-04
  917.00      1.78660E-04
  919.00      1.76990E-04
  921.00      1.70420E-04
  923.00      1.58190E-04
  925.00      1.68830E-04
  927.00      1.73850E-04
  929.00      1.74530E-04
  931.00      1.73780E-04
  933.00      1.73910E-04
  935.00      1.72430E-04
  937.00      1.72590E-04
  939.00      1.71890E-04
  941.00      1.71200E-04
  943.00      1.70520E-04
  945.00      1.69770E-04
  947.00      1.68030E-04
  949.00      1.67630E-04
  951.00      1.64650E-04
  953.00      1.58160E-04
  955.00      1.47100E-04
  957.00      1.59490E-04
  959.00      1.63340E-04
  961.00      1.63580E-04
  963.00      1.62990E-04
  965.00      1.63250E-04
  967.00      1.62610E-04
  969.00      1.61880E-04
  971.00      1.60990E-04
  973.00      1.60720E-04
  975.00      1.60100E-04
  977.00      1.59480E-04
  979.00      1.58860E-04
  981.00      1.58250E-04
  983.00      1.57640E-04
  985.00      1.57030E-04
  987.00      1.56430E-04
  989.00      1.55830E-04
  991.00      1.55220E-04
  993.00      1.54640E-04
  995.00      1.54050E-04
  997.00      1.53180E-04
  999.00      1.52210E-04
  1002.5      1.45430E-04
  1007.5      1.42610E-04
  1012.5      1.47700E-04
  1017.5      1.47660E-04
  1022.5      1.46260E-04
  1027.5      1.44950E-04
  1032.5      1.43140E-04
  1037.5      1.42310E-04
  1042.5      1.41020E-04
  1047.5      1.39740E-04
  1052.5      1.38480E-04
  1057.5      1.37240E-04
  1062.5      1.36020E-04
  1067.5      1.34630E-04
  1072.5      1.33610E-04
  1077.5      1.32440E-04
  1082.5      1.30300E-04
  1087.5      1.29430E-04
  1092.5      1.19900E-04
  1097.5      1.24510E-04
  1102.5      1.26010E-04
  1107.5      1.25560E-04
  1112.5      1.24620E-04
  1117.5      1.23560E-04
  1122.5      1.22470E-04
  1127.5      1.21480E-04
  1132.5      1.20460E-04
  1137.5      1.19450E-04
  1142.5      1.18450E-04
  1147.5      1.17470E-04
  1152.5      1.16500E-04
  1157.5      1.15540E-04
  1162.5      1.14430E-04
  1167.5      1.13650E-04
  1172.5      1.12730E-04
  1177.5      1.11820E-04
  1182.5      1.10920E-04
  1187.5      1.10030E-04
  1192.5      1.09150E-04
  1197.5      1.07270E-04
  1202.5      1.07420E-04
  1207.5      1.06570E-04
  1212.5      1.05730E-04
  1217.5      1.04900E-04
  1222.5      1.04080E-04
  1227.5      1.03270E-04
  1232.5      1.02470E-04
  1237.5      1.01680E-04
  1242.5      1.00900E-04
  1247.5      1.00120E-04
  1252.5      9.92060E-05
  1257.5      9.86040E-05
  1262.5      9.78570E-05
  1267.5      9.71180E-05
  1272.5      9.62340E-05
  1277.5      9.38920E-05
  1282.5      8.82320E-05
  1287.5      9.33590E-05
  1292.5      9.34410E-05
  1297.5      9.23170E-05
  1302.5      9.21740E-05
  1307.5      9.15000E-05
  1312.5      9.08320E-05
  1317.5      9.01710E-05
  1322.5      8.95180E-05
  1327.5      8.88710E-05
  1332.5      8.82320E-05
  1337.5      8.75990E-05
  1342.5      8.69240E-05
  1347.5      8.63530E-05
  1352.5      8.57410E-05
  1357.5      8.51350E-05
  1362.5      8.45340E-05
  1367.5      8.39420E-05
  1372.5      8.33540E-05
  1377.5      8.27730E-05
  1382.5      8.21980E-05
  1387.5      8.16290E-05
  1392.5      8.10660E-05
  1397.5      8.05090E-05
