 Castelli and Kurucz 2004-2012 Atmosphere
 T     45000.     G    4.50000 [-2.0a] N(He)/Ntot=0.0784 VTURB=2.0  L/H=1.25 OD
 Wavelength  Eddington Hnu
   (nm)    (ergs/s/cm2/Hz/sr)
  9.0900      1.36070E-20
  9.3500      4.00470E-20
  9.6100      1.11330E-19
  9.7700      2.04200E-19
  9.9600      4.09090E-19
  10.200      9.50830E-19
  10.380      1.75010E-18
  10.560      3.16040E-18
  10.770      6.16010E-18
  11.040      1.40470E-17
  11.400      3.99070E-17
  11.780      1.13090E-16
  12.130      2.80580E-16
  12.480      6.65400E-16
  12.710      1.14730E-15
  12.840      1.54970E-15
  13.050      2.48970E-15
  13.240      3.78060E-15
  13.390      5.22040E-15
  13.660      9.18940E-15
  13.980      1.75440E-14
  14.330      3.45530E-14
  14.720      7.08780E-14
  15.100      1.39270E-13
  15.520      2.83010E-13
  15.880      5.06240E-13
  16.200      8.34170E-13
  16.600      1.51790E-12
  17.030      2.80330E-12
  17.340      4.28970E-12
  17.680      6.74850E-12
  18.020      1.04370E-11
  18.170      1.25320E-11
  18.610      2.14730E-11
  19.100      3.78750E-11
  19.390      5.23860E-11
  19.840      8.49650E-11
  20.180      1.20820E-10
  20.500      1.66620E-10
  21.050      2.83210E-10
  21.620      4.77110E-10
  21.980      6.54830E-10
  22.300      8.59910E-10
  22.680      1.17490E-09
  23.000      9.33020E-08
  23.400      4.87730E-07
  24.000      5.12610E-06
  24.650      4.31830E-05
  25.240      9.89600E-05
  25.680      7.11570E-05
  26.000      1.70180E-04
  26.400      2.42280E-04
  26.850      2.84290E-04
  27.350      3.42420E-04
  27.850      3.46850E-04
  28.400      4.23290E-04
  29.000      4.79560E-04
  29.600      4.15550E-04
  30.100      1.50240E-04
  30.800      2.62300E-04
  31.800      3.87410E-04
  32.800      4.50020E-04
  33.800      4.34200E-04
  34.800      4.58250E-04
  35.700      6.11130E-04
  36.600      7.24990E-04
  37.500      7.83590E-04
  38.500      7.52440E-04
  39.500      8.91530E-04
  40.500      9.92930E-04
  41.400      1.03580E-03
  42.200      1.03580E-03
  43.000      1.05620E-03
  44.100      1.15690E-03
  45.100      1.20480E-03
  46.000      1.19660E-03
  47.000      1.23240E-03
  48.000      1.29760E-03
  49.000      1.27340E-03
  50.000      1.38200E-03
  50.600      1.35820E-03
  51.200      1.56330E-03
  52.000      1.56800E-03
  53.000      1.60530E-03
  54.000      1.55130E-03
  55.000      1.50800E-03
  56.000      1.69370E-03
  57.000      1.76380E-03
  58.000      1.77260E-03
  59.000      1.82930E-03
  60.000      1.81060E-03
  61.000      1.76520E-03
  62.000      1.88870E-03
  63.000      1.88570E-03
  64.000      1.96100E-03
  65.000      1.95150E-03
  65.800      1.91480E-03
  66.500      2.00730E-03
  67.500      2.04920E-03
  68.500      2.00600E-03
  69.500      2.09690E-03
  70.500      2.02860E-03
  71.600      2.14050E-03
  72.600      2.17760E-03
  73.500      2.19630E-03
  74.500      2.19520E-03
  75.500      2.19930E-03
  76.500      2.18490E-03
  77.500      2.24590E-03
  78.500      2.22680E-03
  79.500      2.26500E-03
  80.500      2.29350E-03
  81.500      2.31530E-03
  82.500      2.33980E-03
  83.500      2.27210E-03
  84.500      2.35980E-03
  85.500      2.34920E-03
  86.500      2.39380E-03
  87.500      2.41530E-03
  88.500      2.41800E-03
  89.500      2.42700E-03
  90.500      2.41340E-03
  91.500      1.94720E-03
  92.500      3.26300E-03
  93.500      4.09170E-03
  94.500      4.81980E-03
  95.500      5.19680E-03
  96.500      5.68460E-03
  97.500      4.80660E-03
  98.500      5.58300E-03
  99.500      5.31000E-03
  100.50      5.56300E-03
  101.50      5.53900E-03
  102.50      4.77130E-03
  103.50      5.49740E-03
  104.50      5.51110E-03
  105.50      5.48490E-03
  106.50      5.37380E-03
  107.50      5.37700E-03
  108.50      5.16930E-03
  109.50      5.34740E-03
  110.50      5.28960E-03
  111.50      5.24470E-03
  112.50      5.16490E-03
  113.50      5.20730E-03
  114.50      5.17440E-03
  115.50      5.10290E-03
  116.50      5.06400E-03
  117.50      4.86450E-03
  118.50      5.01890E-03
  119.50      4.96270E-03
  120.50      4.94290E-03
  121.50      4.24770E-03
  122.50      4.87300E-03
  123.50      4.80600E-03
  124.50      4.76860E-03
  125.50      4.79170E-03
  126.50      4.75810E-03
  127.50      4.72550E-03
  128.50      4.69280E-03
  129.50      4.65990E-03
  130.50      4.61990E-03
  131.50      4.58980E-03
  132.50      4.54890E-03
  133.50      4.52530E-03
  134.50      4.49730E-03
  135.50      4.45150E-03
  136.50      4.40230E-03
  137.50      4.33770E-03
  138.50      4.34540E-03
  139.50      4.28400E-03
  140.50      4.22090E-03
  141.50      4.26360E-03
  142.50      4.22700E-03
  143.50      4.20810E-03
  144.20      4.16320E-03
  144.70      4.15490E-03
  145.50      4.12650E-03
  146.50      4.10090E-03
  147.50      4.08350E-03
  148.50      4.06980E-03
  149.50      4.03640E-03
  150.50      4.01290E-03
  151.20      3.99690E-03
  151.70      3.97500E-03
  152.50      3.95760E-03
  153.50      3.91680E-03
  154.50      3.79570E-03
  155.50      3.78230E-03
  156.50      3.83050E-03
  157.50      3.81340E-03
  158.50      3.77980E-03
  159.50      3.75750E-03
  160.50      3.72080E-03
  161.50      3.69660E-03
  162.50      3.65780E-03
  163.50      3.58300E-03
  164.50      3.43300E-03
  165.50      3.60310E-03
  166.50      3.58080E-03
  167.20      3.55050E-03
  167.70      3.55490E-03
  168.50      3.53550E-03
  169.50      3.51240E-03
  170.50      3.48590E-03
  171.50      3.42840E-03
  172.50      3.42330E-03
  173.50      3.41840E-03
  174.50      3.39310E-03
  175.50      3.36870E-03
  176.50      3.34760E-03
  177.50      3.32600E-03
  178.50      3.30440E-03
  179.50      3.28050E-03
  180.50      3.25890E-03
  181.50      3.23730E-03
  182.50      3.21540E-03
  183.50      3.19430E-03
  184.50      3.17280E-03
  185.50      3.15080E-03
  186.50      3.12990E-03
  187.50      3.10880E-03
  188.50      3.08810E-03
  189.50      3.06900E-03
  190.50      3.04870E-03
  191.50      3.02820E-03
  192.50      3.00430E-03
  193.50      2.98880E-03
  194.50      2.96930E-03
  195.50      2.94940E-03
  196.70      2.92670E-03
  197.60      2.90890E-03
  198.40      2.89440E-03
  199.50      2.87350E-03
  200.50      2.85530E-03
  201.50      2.83690E-03
  202.50      2.81860E-03
  203.50      2.80040E-03
  204.50      2.78110E-03
  205.50      2.17600E-03
  206.50      2.11590E-03
  207.40      2.16860E-03
  207.80      2.22280E-03
  208.50      2.38000E-03
  209.50      2.62590E-03
  210.50      2.67820E-03
  211.50      2.67020E-03
  212.50      2.65420E-03
  213.50      2.63350E-03
  214.50      2.62200E-03
  215.50      2.64670E-03
  216.50      2.57050E-03
  217.50      2.63060E-03
  218.50      2.54100E-03
  219.50      2.59740E-03
  220.50      2.58420E-03
  221.50      2.49270E-03
  222.50      2.55170E-03
  223.50      2.53690E-03
  224.50      2.51960E-03
  225.50      2.43510E-03
  226.50      2.49020E-03
  227.50      2.47520E-03
  228.50      2.45900E-03
  229.50      2.43300E-03
  230.50      2.36430E-03
  231.50      2.41340E-03
  232.50      2.40080E-03
  233.50      2.38640E-03
  234.50      2.37200E-03
  235.50      2.35770E-03
  236.50      2.34360E-03
  237.50      2.32940E-03
  238.50      2.25310E-03
  239.50      2.29890E-03
  240.50      2.28760E-03
  241.50      2.27360E-03
  242.50      2.26130E-03
  243.50      2.24790E-03
  244.50      2.23480E-03
  245.50      2.22030E-03
  246.50      2.20870E-03
  247.50      2.19600E-03
  248.50      2.18310E-03
  249.50      2.13080E-03
  250.50      2.15160E-03
  251.30      2.02490E-03
  251.80      2.13510E-03
  252.50      2.13120E-03
  253.50      2.12100E-03
  254.50      2.10890E-03
  255.50      2.09680E-03
  256.50      2.08500E-03
  257.50      2.07310E-03
  258.50      2.06130E-03
  259.50      2.04750E-03
  260.50      2.03840E-03
  261.50      2.02610E-03
  262.50      2.01560E-03
  263.50      2.00440E-03
  264.50      1.99310E-03
  265.50      1.98210E-03
  266.50      1.97090E-03
  267.50      1.95890E-03
  268.50      1.94910E-03
  269.50      1.93810E-03
  270.50      1.92800E-03
  271.50      1.91740E-03
  272.50      1.90630E-03
  273.50      1.84800E-03
  274.50      1.88620E-03
  275.50      1.87590E-03
  276.50      1.86520E-03
  277.50      1.85560E-03
  278.50      1.84540E-03
  279.50      1.83530E-03
  280.50      1.82580E-03
  281.50      1.81610E-03
  282.50      1.80560E-03
  283.50      1.79660E-03
  284.50      1.78730E-03
  285.50      1.77780E-03
  286.50      1.76840E-03
  287.50      1.75910E-03
  288.50      1.74990E-03
  289.50      1.74060E-03
  291.00      1.72700E-03
  293.00      1.70910E-03
  295.00      1.69090E-03
  297.00      1.67380E-03
  299.00      1.65600E-03
  301.00      1.63960E-03
  303.00      1.62220E-03
  305.00      1.60590E-03
  307.00      1.58980E-03
  309.00      1.57470E-03
  311.00      1.55900E-03
  313.00      1.54330E-03
  315.00      1.52850E-03
  317.00      1.51330E-03
  319.00      1.49750E-03
  321.00      1.46340E-03
  323.00      1.46980E-03
  325.00      1.45560E-03
  327.00      1.44000E-03
  329.00      1.42770E-03
  331.00      1.41410E-03
  333.00      1.40080E-03
  335.00      1.38700E-03
  337.00      1.37460E-03
  339.00      1.36160E-03
  341.00      1.34880E-03
  343.00      1.33680E-03
  345.00      1.32400E-03
  347.00      1.31230E-03
  349.00      1.30030E-03
  351.00      1.28840E-03
  353.00      1.27660E-03
  355.00      1.26490E-03
  357.00      1.25400E-03
  359.00      1.24220E-03
  361.00      1.23140E-03
  363.00      1.22000E-03
  364.00      1.19250E-03
  365.00      1.09760E-03
  367.00      1.08930E-03
  369.00      1.08380E-03
  371.00      1.08540E-03
  373.00      1.09220E-03
  375.00      1.10870E-03
  377.00      1.12020E-03
  379.00      1.13330E-03
  381.00      1.14440E-03
  383.00      1.10210E-03
  385.00      1.13800E-03
  387.00      1.14050E-03
  389.00      1.06650E-03
  391.00      1.12470E-03
  393.00      1.10830E-03
  395.00      1.10750E-03
  397.00      1.02960E-03
  399.00      1.08830E-03
  401.00      1.08320E-03
  403.00      1.05690E-03
  405.00      1.06640E-03
  407.00      1.05710E-03
  409.00      1.03090E-03
  411.00      9.83270E-04
  413.00      1.03040E-03
  415.00      1.02280E-03
  417.00      1.01510E-03
  419.00      1.00320E-03
  421.00      9.86110E-04
  423.00      9.90840E-04
  425.00      9.82930E-04
  427.00      9.75120E-04
  429.00      9.67390E-04
  431.00      9.59360E-04
  433.00      9.30210E-04
  435.00      9.00250E-04
  437.00      9.36660E-04
  439.00      9.28880E-04
  441.00      9.22880E-04
  443.00      9.15690E-04
  445.00      9.08730E-04
  447.00      8.97520E-04
  449.00      8.94880E-04
  451.00      8.88090E-04
  453.00      8.80350E-04
  455.00      8.61720E-04
  457.00      8.68130E-04
  459.00      8.61640E-04
  461.00      8.55200E-04
  463.00      8.48680E-04
  465.00      8.41980E-04
  467.00      8.35640E-04
  469.00      8.05110E-04
  471.00      8.23300E-04
  473.00      8.18080E-04
  475.00      8.12130E-04
  477.00      8.06240E-04
  479.00      8.00410E-04
  481.00      7.94640E-04
  483.00      7.88630E-04
  485.00      7.70200E-04
  487.00      7.37120E-04
  489.00      7.71350E-04
  491.00      7.66730E-04
  493.00      7.59610E-04
  495.00      7.55980E-04
  497.00      7.50690E-04
  499.00      7.45460E-04
  501.00      7.39410E-04
  503.00      7.35140E-04
  505.00      7.29900E-04
  507.00      7.25030E-04
  509.00      7.20060E-04
  511.00      7.15140E-04
  513.00      7.10260E-04
  515.00      7.05440E-04
  517.00      7.00660E-04
  519.00      6.95930E-04
  521.00      6.91250E-04
  523.00      6.86620E-04
  525.00      6.82020E-04
  527.00      6.77450E-04
  529.00      6.72990E-04
  531.00      6.68530E-04
  533.00      6.64120E-04
  535.00      6.59750E-04
  537.00      6.55430E-04
  539.00      6.51140E-04
  541.00      6.36570E-04
  543.00      6.42680E-04
  545.00      6.38540E-04
  547.00      6.34420E-04
  549.00      6.30340E-04
  551.00      6.26290E-04
  553.00      6.22300E-04
  555.00      6.18340E-04
  557.00      6.14400E-04
  559.00      6.10400E-04
  561.00      6.06660E-04
  563.00      6.02850E-04
  565.00      5.99060E-04
  567.00      5.95320E-04
  569.00      5.85060E-04
  571.00      5.52970E-04
  573.00      5.49770E-04
  575.00      5.46630E-04
  577.00      5.43600E-04
  579.00      5.40850E-04
  581.00      5.38450E-04
  583.00      5.36870E-04
  585.00      5.35730E-04
  587.00      5.32650E-04
  589.00      5.34230E-04
  591.00      5.33990E-04
  593.00      5.34150E-04
  595.00      5.34760E-04
  597.00      5.35350E-04
  599.00      5.36450E-04
  601.00      5.34830E-04
  603.00      5.32690E-04
  605.00      5.31190E-04
  607.00      5.27400E-04
  609.00      5.25110E-04
  611.00      5.21460E-04
  613.00      5.18440E-04
  615.00      5.16170E-04
  617.00      5.11370E-04
  619.00      5.10100E-04
  621.00      5.07250E-04
  623.00      5.02280E-04
  625.00      5.01050E-04
  627.00      4.98560E-04
  629.00      4.95710E-04
  631.00      4.90040E-04
  633.00      4.89890E-04
  635.00      4.87320E-04
  637.00      4.84570E-04
  639.00      4.81650E-04
  641.00      4.75480E-04
  643.00      4.76440E-04
  645.00      4.73780E-04
  647.00      4.71140E-04
  649.00      4.68530E-04
  651.00      4.65740E-04
  653.00      4.58620E-04
  655.00      4.56220E-04
  657.00      4.32930E-04
  659.00      4.55150E-04
  661.00      4.53270E-04
  663.00      4.50800E-04
  665.00      4.48360E-04
  667.00      4.44730E-04
  669.00      4.37960E-04
  671.00      4.41090E-04
  673.00      4.38750E-04
  675.00      4.36390E-04
  677.00      4.34060E-04
  679.00      4.31740E-04
  681.00      4.29440E-04
  683.00      4.27160E-04
  685.00      4.24900E-04
  687.00      4.22650E-04
  689.00      4.15160E-04
  691.00      4.18050E-04
  693.00      4.16030E-04
  695.00      4.13850E-04
  697.00      4.11700E-04
  699.00      4.09550E-04
  701.00      4.07430E-04
  703.00      4.05320E-04
  705.00      4.03230E-04
  707.00      4.00200E-04
  709.00      3.99100E-04
  711.00      3.97050E-04
  713.00      3.95020E-04
  715.00      3.93010E-04
  717.00      3.87560E-04
  719.00      3.87130E-04
  721.00      3.87060E-04
  723.00      3.85110E-04
  725.00      3.83180E-04
  727.00      3.81250E-04
  729.00      3.79060E-04
  731.00      3.77450E-04
  733.00      3.75570E-04
  735.00      3.73700E-04
  737.00      3.71850E-04
  739.00      3.70010E-04
  741.00      3.68190E-04
  743.00      3.66380E-04
  745.00      3.64570E-04
  747.00      3.62790E-04
  749.00      3.61020E-04
  751.00      3.59260E-04
  753.00      3.57520E-04
  755.00      3.55780E-04
  757.00      3.54060E-04
  759.00      3.47520E-04
  761.00      3.50390E-04
  763.00      3.48970E-04
  765.00      3.47300E-04
  767.00      3.45640E-04
  769.00      3.43980E-04
  771.00      3.42350E-04
  773.00      3.40720E-04
  775.00      3.39110E-04
  777.00      3.37510E-04
  779.00      3.35920E-04
  781.00      3.34340E-04
  783.00      3.32770E-04
  785.00      3.31220E-04
  787.00      3.29680E-04
  789.00      3.28140E-04
  791.00      3.26620E-04
  793.00      3.25100E-04
  795.00      3.23600E-04
  797.00      3.22100E-04
  799.00      3.20620E-04
  801.00      3.19150E-04
  803.00      3.17680E-04
  805.00      3.16230E-04
  807.00      3.14790E-04
  809.00      3.13350E-04
  811.00      3.11930E-04
  813.00      3.10520E-04
  815.00      3.09110E-04
  817.00      3.07710E-04
  819.00      3.05140E-04
  821.00      2.93640E-04
  823.00      2.90820E-04
  825.00      2.90830E-04
  827.00      2.89870E-04
  829.00      2.88670E-04
  831.00      2.87450E-04
  833.00      2.86230E-04
  835.00      2.85030E-04
  837.00      2.83900E-04
  839.00      2.82780E-04
  841.00      2.81760E-04
  843.00      2.80750E-04
  845.00      2.79730E-04
  847.00      2.78810E-04
  849.00      2.78000E-04
  851.00      2.77080E-04
  853.00      2.76360E-04
  855.00      2.75290E-04
  857.00      2.74920E-04
  859.00      2.73670E-04
  861.00      2.72920E-04
  863.00      2.72910E-04
  865.00      2.71830E-04
  867.00      2.69670E-04
  869.00      2.70940E-04
  871.00      2.70690E-04
  873.00      2.69590E-04
  875.00      2.65200E-04
  877.00      2.67660E-04
  879.00      2.68430E-04
  881.00      2.67980E-04
  883.00      2.67160E-04
  885.00      2.63210E-04
  887.00      2.57890E-04
  889.00      2.63310E-04
  891.00      2.63330E-04
  893.00      2.62320E-04
  895.00      2.61880E-04
  897.00      2.60510E-04
  899.00      2.58110E-04
  901.00      2.49620E-04
  903.00      2.52240E-04
  905.00      2.55540E-04
  907.00      2.55190E-04
  909.00      2.54320E-04
  911.00      2.52770E-04
  913.00      2.52340E-04
  915.00      2.51310E-04
  917.00      2.50240E-04
  919.00      2.48820E-04
  921.00      2.45650E-04
  923.00      2.35620E-04
  925.00      2.43160E-04
  927.00      2.44710E-04
  929.00      2.44270E-04
  931.00      2.43250E-04
  933.00      2.42130E-04
  935.00      2.36800E-04
  937.00      2.39300E-04
  939.00      2.39410E-04
  941.00      2.38480E-04
  943.00      2.37530E-04
  945.00      2.36590E-04
  947.00      2.35600E-04
  949.00      2.34720E-04
  951.00      2.33090E-04
  953.00      2.29620E-04
  955.00      2.20050E-04
  957.00      2.28840E-04
  959.00      2.29810E-04
  961.00      2.29250E-04
  963.00      2.28320E-04
  965.00      2.27480E-04
  967.00      2.26600E-04
  969.00      2.25720E-04
  971.00      2.24830E-04
  973.00      2.23980E-04
  975.00      2.22850E-04
  977.00      2.20880E-04
  979.00      2.21410E-04
  981.00      2.20560E-04
  983.00      2.19720E-04
  985.00      2.18890E-04
  987.00      2.18050E-04
  989.00      2.17220E-04
  991.00      2.16400E-04
  993.00      2.15580E-04
  995.00      2.14770E-04
  997.00      2.13960E-04
  999.00      2.13150E-04
  1002.5      2.08980E-04
  1007.5      2.05620E-04
  1012.5      2.04890E-04
  1017.5      2.05920E-04
  1022.5      2.04030E-04
  1027.5      2.02160E-04
  1032.5      2.00240E-04
  1037.5      1.98500E-04
  1042.5      1.95770E-04
  1047.5      1.94950E-04
  1052.5      1.93200E-04
  1057.5      1.91480E-04
  1062.5      1.89790E-04
  1067.5      1.88100E-04
  1072.5      1.86460E-04
  1077.5      1.84830E-04
  1082.5      1.82900E-04
  1087.5      1.81590E-04
  1092.5      1.74920E-04
  1097.5      1.77390E-04
  1102.5      1.76950E-04
  1107.5      1.75470E-04
  1112.5      1.73980E-04
  1117.5      1.72600E-04
  1122.5      1.71140E-04
  1127.5      1.69710E-04
  1132.5      1.68290E-04
  1137.5      1.66890E-04
  1142.5      1.65510E-04
  1147.5      1.64150E-04
  1152.5      1.62800E-04
  1157.5      1.61460E-04
  1162.5      1.58710E-04
  1167.5      1.57830E-04
  1172.5      1.57560E-04
  1177.5      1.56290E-04
  1182.5      1.55040E-04
  1187.5      1.53800E-04
  1192.5      1.52580E-04
  1197.5      1.51250E-04
  1202.5      1.50170E-04
  1207.5      1.48990E-04
  1212.5      1.47820E-04
  1217.5      1.46670E-04
  1222.5      1.45530E-04
  1227.5      1.44400E-04
  1232.5      1.43280E-04
  1237.5      1.42180E-04
  1242.5      1.41090E-04
  1247.5      1.40020E-04
  1252.5      1.38940E-04
  1257.5      1.37900E-04
  1262.5      1.36860E-04
  1267.5      1.35830E-04
  1272.5      1.34810E-04
  1277.5      1.33330E-04
  1282.5      1.28610E-04
  1287.5      1.31670E-04
  1292.5      1.30850E-04
  1297.5      1.29860E-04
  1302.5      1.28940E-04
  1307.5      1.28000E-04
  1312.5      1.27070E-04
  1317.5      1.26150E-04
  1322.5      1.25240E-04
  1327.5      1.24340E-04
  1332.5      1.23440E-04
  1337.5      1.22560E-04
  1342.5      1.21690E-04
  1347.5      1.20830E-04
  1352.5      1.19970E-04
  1357.5      1.19130E-04
  1362.5      1.18290E-04
  1367.5      1.17460E-04
  1372.5      1.16640E-04
  1377.5      1.15830E-04
  1382.5      1.15030E-04
  1387.5      1.14240E-04
  1392.5      1.13450E-04
  1397.5      1.12670E-04
