 Castelli and Kurucz 2004-2012 Atmosphere
 T     34000.     G    4.00000 [-2.0a] N(He)/Ntot=0.0784 VTURB=2.0  L/H=1.25 OD
 Wavelength  Eddington Hnu
   (nm)    (ergs/s/cm2/Hz/sr)
  9.0900      9.88250E-30
  9.3500      5.20420E-29
  9.6100      2.51750E-28
  9.7700      6.38640E-28
  9.9600      1.85980E-27
  10.200      6.80150E-27
  10.380      1.73540E-26
  10.560      4.29760E-26
  10.770      1.19470E-25
  11.040      4.21680E-25
  11.400      2.08140E-24
  11.780      1.01960E-23
  12.130      4.06080E-23
  12.480      1.50610E-22
  12.710      3.43860E-22
  12.840      5.41790E-22
  13.050      1.10970E-21
  13.240      2.08600E-21
  13.390      3.39380E-21
  13.660      7.95920E-21
  13.980      2.10370E-20
  14.330      5.82200E-20
  14.720      1.71850E-19
  15.100      4.69970E-19
  15.520      1.35580E-18
  15.880      3.22800E-18
  16.200      6.77930E-18
  16.600      1.65170E-17
  17.030      4.11860E-17
  17.340      7.75290E-17
  17.680      1.51520E-16
  18.020      2.89150E-16
  18.170      3.81740E-16
  18.610      8.41770E-16
  19.100      1.94970E-15
  19.390      3.14410E-15
  19.840      6.42540E-15
  20.180      1.08030E-14
  20.500      1.73520E-14
  21.050      3.79120E-14
  21.620      8.17590E-14
  21.980      1.30210E-13
  22.300      1.94480E-13
  22.680      3.08500E-13
  23.000      9.95600E-11
  23.400      5.34690E-10
  24.000      1.56860E-09
  24.650      4.93890E-09
  25.240      1.01920E-08
  25.680      6.58680E-09
  26.000      2.69250E-08
  26.400      6.59380E-08
  26.850      1.27410E-07
  27.350      1.84090E-07
  27.850      1.95340E-07
  28.400      3.47910E-07
  29.000      3.83760E-07
  29.600      2.26790E-07
  30.100      6.32240E-08
  30.800      1.82800E-07
  31.800      6.90970E-07
  32.800      9.27140E-07
  33.800      1.16250E-06
  34.800      1.45620E-06
  35.700      1.73540E-06
  36.600      2.18620E-06
  37.500      2.46840E-06
  38.500      2.94380E-06
  39.500      3.56670E-06
  40.500      4.23370E-06
  41.400      4.98470E-06
  42.200      5.55650E-06
  43.000      6.25430E-06
  44.100      7.59350E-06
  45.100      8.86860E-06
  46.000      1.00030E-05
  47.000      1.17230E-05
  48.000      1.35430E-05
  49.000      1.51710E-05
  50.000      1.78210E-05
  50.600      6.40610E-05
  51.200      1.62830E-04
  52.000      1.61530E-04
  53.000      1.63500E-04
  54.000      1.56710E-04
  55.000      1.69210E-04
  56.000      1.94070E-04
  57.000      2.03190E-04
  58.000      1.99760E-04
  59.000      2.14630E-04
  60.000      2.11370E-04
  61.000      2.20990E-04
  62.000      2.43210E-04
  63.000      2.49400E-04
  64.000      2.57000E-04
  65.000      2.62780E-04
  65.800      2.59410E-04
  66.500      2.72220E-04
  67.500      2.87490E-04
  68.500      2.81800E-04
  69.500      3.02900E-04
  70.500      2.95370E-04
  71.600      3.23200E-04
  72.600      3.31050E-04
  73.500      3.42300E-04
  74.500      3.44540E-04
  75.500      3.51410E-04
  76.500      3.58260E-04
  77.500      3.69770E-04
  78.500      3.80420E-04
  79.500      3.89390E-04
  80.500      3.95630E-04
  81.500      4.06350E-04
  82.500      4.19320E-04
  83.500      4.03590E-04
  84.500      4.34450E-04
  85.500      4.42370E-04
  86.500      4.55090E-04
  87.500      4.63570E-04
  88.500      4.72350E-04
  89.500      4.81220E-04
  90.500      4.86040E-04
  91.500      5.23040E-04
  92.500      1.31790E-03
  93.500      1.82220E-03
  94.500      2.31200E-03
  95.500      2.49620E-03
  96.500      2.79220E-03
  97.500      2.15880E-03
  98.500      2.74290E-03
  99.500      2.63260E-03
  100.50      2.72910E-03
  101.50      2.76500E-03
  102.50      2.27440E-03
  103.50      2.73840E-03
  104.50      2.79300E-03
  105.50      2.78680E-03
  106.50      2.72230E-03
  107.50      2.72740E-03
  108.50      2.64400E-03
  109.50      2.75280E-03
  110.50      2.71600E-03
  111.50      2.69990E-03
  112.50      2.62140E-03
  113.50      2.70660E-03
  114.50      2.69060E-03
  115.50      2.66130E-03
  116.50      2.66550E-03
  117.50      2.42670E-03
  118.50      2.61430E-03
  119.50      2.61140E-03
  120.50      2.57270E-03
  121.50      2.12830E-03
  122.50      2.58130E-03
  123.50      2.58730E-03
  124.50      2.55540E-03
  125.50      2.57830E-03
  126.50      2.57170E-03
  127.50      2.56260E-03
  128.50      2.55330E-03
  129.50      2.50570E-03
  130.50      2.50940E-03
  131.50      2.51760E-03
  132.50      2.50030E-03
  133.50      2.47890E-03
  134.50      2.48130E-03
  135.50      2.46550E-03
  136.50      2.44850E-03
  137.50      2.43130E-03
  138.50      2.42530E-03
  139.50      2.34890E-03
  140.50      2.33720E-03
  141.50      2.38540E-03
  142.50      2.35540E-03
  143.50      2.36140E-03
  144.20      2.35270E-03
  144.70      2.34620E-03
  145.50      2.33140E-03
  146.50      2.32290E-03
  147.50      2.31070E-03
  148.50      2.30580E-03
  149.50      2.28730E-03
  150.50      2.27930E-03
  151.20      2.27570E-03
  151.70      2.26420E-03
  152.50      2.24890E-03
  153.50      2.20560E-03
  154.50      2.14000E-03
  155.50      2.14010E-03
  156.50      2.16370E-03
  157.50      2.17380E-03
  158.50      2.16930E-03
  159.50      2.15810E-03
  160.50      2.11630E-03
  161.50      2.10260E-03
  162.50      2.08370E-03
  163.50      2.06170E-03
  164.50      1.98280E-03
  165.50      2.08180E-03
  166.50      2.06640E-03
  167.20      2.04690E-03
  167.70      2.07600E-03
  168.50      2.06200E-03
  169.50      2.05180E-03
  170.50      2.03610E-03
  171.50      2.00350E-03
  172.50      1.99480E-03
  173.50      2.01410E-03
  174.50      1.99930E-03
  175.50      1.98310E-03
  176.50      1.97980E-03
  177.50      1.97140E-03
  178.50      1.96120E-03
  179.50      1.94720E-03
  180.50      1.93930E-03
  181.50      1.92810E-03
  182.50      1.91590E-03
  183.50      1.90940E-03
  184.50      1.89610E-03
  185.50      1.88280E-03
  186.50      1.87180E-03
  187.50      1.86280E-03
  188.50      1.85280E-03
  189.50      1.84420E-03
  190.50      1.83720E-03
  191.50      1.82490E-03
  192.50      1.80660E-03
  193.50      1.80630E-03
  194.50      1.79760E-03
  195.50      1.78410E-03
  196.70      1.77560E-03
  197.60      1.76770E-03
  198.40      1.75910E-03
  199.50      1.74720E-03
  200.50      1.74000E-03
  201.50      1.73070E-03
  202.50      1.72120E-03
  203.50      1.71170E-03
  204.50      1.70200E-03
  205.50      1.40550E-03
  206.50      1.37600E-03
  207.40      1.41230E-03
  207.80      1.44310E-03
  208.50      1.53850E-03
  209.50      1.64470E-03
  210.50      1.64870E-03
  211.50      1.64520E-03
  212.50      1.63510E-03
  213.50      1.62660E-03
  214.50      1.61960E-03
  215.50      1.62910E-03
  216.50      1.59390E-03
  217.50      1.61610E-03
  218.50      1.57920E-03
  219.50      1.59840E-03
  220.50      1.59030E-03
  221.50      1.55330E-03
  222.50      1.57280E-03
  223.50      1.56430E-03
  224.50      1.55560E-03
  225.50      1.52040E-03
  226.50      1.53890E-03
  227.50      1.53070E-03
  228.50      1.52100E-03
  229.50      1.49620E-03
  230.50      1.48050E-03
  231.50      1.49740E-03
  232.50      1.48970E-03
  233.50      1.48170E-03
  234.50      1.47380E-03
  235.50      1.46590E-03
  236.50      1.45800E-03
  237.50      1.45010E-03
  238.50      1.41660E-03
  239.50      1.43200E-03
  240.50      1.42710E-03
  241.50      1.41930E-03
  242.50      1.41210E-03
  243.50      1.40440E-03
  244.50      1.39720E-03
  245.50      1.38920E-03
  246.50      1.38250E-03
  247.50      1.37530E-03
  248.50      1.36800E-03
  249.50      1.30520E-03
  250.50      1.35180E-03
  251.30      1.29550E-03
  251.80      1.33710E-03
  252.50      1.33960E-03
  253.50      1.33290E-03
  254.50      1.32580E-03
  255.50      1.31890E-03
  256.50      1.31230E-03
  257.50      1.30560E-03
  258.50      1.29890E-03
  259.50      1.29170E-03
  260.50      1.28750E-03
  261.50      1.28080E-03
  262.50      1.27440E-03
  263.50      1.26750E-03
  264.50      1.26080E-03
  265.50      1.25410E-03
  266.50      1.24710E-03
  267.50      1.23990E-03
  268.50      1.23600E-03
  269.50      1.22720E-03
  270.50      1.22380E-03
  271.50      1.21750E-03
  272.50      1.20810E-03
  273.50      1.18570E-03
  274.50      1.19940E-03
  275.50      1.19340E-03
  276.50      1.18360E-03
  277.50      1.18160E-03
  278.50      1.17570E-03
  279.50      1.16850E-03
  280.50      1.16390E-03
  281.50      1.15840E-03
  282.50      1.14820E-03
  283.50      1.14560E-03
  284.50      1.14150E-03
  285.50      1.13590E-03
  286.50      1.13030E-03
  287.50      1.12480E-03
  288.50      1.11950E-03
  289.50      1.11400E-03
  291.00      1.10580E-03
  293.00      1.09530E-03
  295.00      1.08150E-03
  297.00      1.07430E-03
  299.00      1.06370E-03
  301.00      1.05390E-03
  303.00      1.04340E-03
  305.00      1.03380E-03
  307.00      1.02470E-03
  309.00      1.01470E-03
  311.00      1.00560E-03
  313.00      9.96520E-04
  315.00      9.87300E-04
  317.00      9.78250E-04
  319.00      9.65360E-04
  321.00      9.52240E-04
  323.00      9.51870E-04
  325.00      9.43250E-04
  327.00      9.34260E-04
  329.00      9.26150E-04
  331.00      9.18390E-04
  333.00      9.10170E-04
  335.00      9.01200E-04
  337.00      8.94220E-04
  339.00      8.86480E-04
  341.00      8.78720E-04
  343.00      8.69820E-04
  345.00      8.60730E-04
  347.00      8.54660E-04
  349.00      8.47470E-04
  351.00      8.41100E-04
  353.00      8.33850E-04
  355.00      8.26580E-04
  357.00      8.21720E-04
  359.00      8.12090E-04
  361.00      8.06320E-04
  363.00      7.98300E-04
  364.00      7.91380E-04
  365.00      7.56850E-04
  367.00      7.52090E-04
  369.00      7.46830E-04
  371.00      7.40600E-04
  373.00      7.34130E-04
  375.00      7.48210E-04
  377.00      7.49970E-04
  379.00      7.64560E-04
  381.00      7.81480E-04
  383.00      7.32110E-04
  385.00      7.85610E-04
  387.00      7.85810E-04
  389.00      7.15330E-04
  391.00      7.78400E-04
  393.00      7.68290E-04
  395.00      7.66570E-04
  397.00      6.90180E-04
  399.00      7.53720E-04
  401.00      7.48270E-04
  403.00      7.28610E-04
  405.00      7.39320E-04
  407.00      7.32550E-04
  409.00      7.11750E-04
  411.00      6.64910E-04
  413.00      7.12860E-04
  415.00      7.07720E-04
  417.00      7.04690E-04
  419.00      6.98590E-04
  421.00      6.89510E-04
  423.00      6.89020E-04
  425.00      6.83600E-04
  427.00      6.78300E-04
  429.00      6.73190E-04
  431.00      6.67610E-04
  433.00      6.44050E-04
  435.00      6.12860E-04
  437.00      6.52490E-04
  439.00      6.42420E-04
  441.00      6.43220E-04
  443.00      6.37960E-04
  445.00      6.33960E-04
  447.00      6.19090E-04
  449.00      6.24600E-04
  451.00      6.20050E-04
  453.00      6.15340E-04
  455.00      6.06040E-04
  457.00      6.06620E-04
  459.00      6.02120E-04
  461.00      5.97840E-04
  463.00      5.93330E-04
  465.00      5.87290E-04
  467.00      5.84830E-04
  469.00      5.69110E-04
  471.00      5.73370E-04
  473.00      5.72800E-04
  475.00      5.68750E-04
  477.00      5.64760E-04
  479.00      5.60810E-04
  481.00      5.56870E-04
  483.00      5.52630E-04
  485.00      5.36980E-04
  487.00      5.04510E-04
  489.00      5.40780E-04
  491.00      5.37830E-04
  493.00      5.28840E-04
  495.00      5.30470E-04
  497.00      5.26940E-04
  499.00      5.23360E-04
  501.00      5.16800E-04
  503.00      5.16300E-04
  505.00      5.11690E-04
  507.00      5.09410E-04
  509.00      5.06000E-04
  511.00      5.02630E-04
  513.00      4.99300E-04
  515.00      4.95990E-04
  517.00      4.92710E-04
  519.00      4.89480E-04
  521.00      4.86270E-04
  523.00      4.83090E-04
  525.00      4.79940E-04
  527.00      4.76800E-04
  529.00      4.73740E-04
  531.00      4.70680E-04
  533.00      4.67650E-04
  535.00      4.64650E-04
  537.00      4.61680E-04
  539.00      4.58730E-04
  541.00      4.52020E-04
  543.00      4.52920E-04
  545.00      4.50060E-04
  547.00      4.47220E-04
  549.00      4.44420E-04
  551.00      4.41620E-04
  553.00      4.38880E-04
  555.00      4.36140E-04
  557.00      4.33430E-04
  559.00      4.30680E-04
  561.00      4.28090E-04
  563.00      4.25460E-04
  565.00      4.22850E-04
  567.00      4.20260E-04
  569.00      4.15620E-04
  571.00      4.04780E-04
  573.00      4.02440E-04
  575.00      4.00110E-04
  577.00      3.97840E-04
  579.00      3.95630E-04
  581.00      3.93610E-04
  583.00      3.91820E-04
  585.00      3.90340E-04
  587.00      3.83110E-04
  589.00      3.87410E-04
  591.00      3.86250E-04
  593.00      3.85040E-04
  595.00      3.83940E-04
  597.00      3.82770E-04
  599.00      3.81640E-04
  601.00      3.79880E-04
  603.00      3.77670E-04
  605.00      3.75480E-04
  607.00      3.73300E-04
  609.00      3.71150E-04
  611.00      3.69010E-04
  613.00      3.66890E-04
  615.00      3.64800E-04
  617.00      3.62580E-04
  619.00      3.60650E-04
  621.00      3.58610E-04
  623.00      3.56320E-04
  625.00      3.54560E-04
  627.00      3.52570E-04
  629.00      3.50590E-04
  631.00      3.48210E-04
  633.00      3.46680E-04
  635.00      3.44750E-04
  637.00      3.42840E-04
  639.00      3.40930E-04
  641.00      3.38450E-04
  643.00      3.37180E-04
  645.00      3.35330E-04
  647.00      3.33490E-04
  649.00      3.31670E-04
  651.00      3.29860E-04
  653.00      3.26800E-04
  655.00      3.22230E-04
  657.00      3.00620E-04
  659.00      3.22140E-04
  661.00      3.21040E-04
  663.00      3.19320E-04
  665.00      3.17680E-04
  667.00      3.14230E-04
  669.00      3.11600E-04
  671.00      3.12600E-04
  673.00      3.10970E-04
  675.00      3.09330E-04
  677.00      3.07710E-04
  679.00      3.06090E-04
  681.00      3.04490E-04
  683.00      3.02890E-04
  685.00      3.01310E-04
  687.00      2.99750E-04
  689.00      2.97180E-04
  691.00      2.96640E-04
  693.00      2.95120E-04
  695.00      2.93600E-04
  697.00      2.92090E-04
  699.00      2.90590E-04
  701.00      2.89100E-04
  703.00      2.87620E-04
  705.00      2.86160E-04
  707.00      2.82120E-04
  709.00      2.83280E-04
  711.00      2.81840E-04
  713.00      2.80430E-04
  715.00      2.79020E-04
  717.00      2.76860E-04
  719.00      2.75940E-04
  721.00      2.74850E-04
  723.00      2.73480E-04
  725.00      2.72120E-04
  727.00      2.70780E-04
  729.00      2.68180E-04
  731.00      2.68100E-04
  733.00      2.66800E-04
  735.00      2.65490E-04
  737.00      2.64190E-04
  739.00      2.62900E-04
  741.00      2.61620E-04
  743.00      2.60350E-04
  745.00      2.59100E-04
  747.00      2.57840E-04
  749.00      2.56590E-04
  751.00      2.55330E-04
  753.00      2.54140E-04
  755.00      2.52920E-04
  757.00      2.51710E-04
  759.00      2.49500E-04
  761.00      2.49320E-04
  763.00      2.48140E-04
  765.00      2.46960E-04
  767.00      2.45800E-04
  769.00      2.44630E-04
  771.00      2.43490E-04
  773.00      2.42330E-04
  775.00      2.41210E-04
  777.00      2.40080E-04
  779.00      2.38970E-04
  781.00      2.37800E-04
  783.00      2.36750E-04
  785.00      2.35760E-04
  787.00      2.34670E-04
  789.00      2.33570E-04
  791.00      2.32520E-04
  793.00      2.31450E-04
  795.00      2.30390E-04
  797.00      2.29290E-04
  799.00      2.28290E-04
  801.00      2.27250E-04
  803.00      2.26220E-04
  805.00      2.25160E-04
  807.00      2.24170E-04
  809.00      2.23010E-04
  811.00      2.22010E-04
  813.00      2.21160E-04
  815.00      2.19980E-04
  817.00      2.19190E-04
  819.00      2.17840E-04
  821.00      2.14480E-04
  823.00      2.13110E-04
  825.00      2.12800E-04
  827.00      2.11580E-04
  829.00      2.11010E-04
  831.00      2.10120E-04
  833.00      2.09180E-04
  835.00      2.07880E-04
  837.00      2.07270E-04
  839.00      2.06510E-04
  841.00      2.05680E-04
  843.00      2.04750E-04
  845.00      2.03380E-04
  847.00      2.03050E-04
  849.00      2.02170E-04
  851.00      2.01230E-04
  853.00      2.00680E-04
  855.00      1.98860E-04
  857.00      2.00080E-04
  859.00      1.96550E-04
  861.00      1.96360E-04
  863.00      1.98530E-04
  865.00      1.96040E-04
  867.00      1.90470E-04
  869.00      1.96430E-04
  871.00      1.96740E-04
  873.00      1.94080E-04
  875.00      1.84660E-04
  877.00      1.91420E-04
  879.00      1.94250E-04
  881.00      1.93710E-04
  883.00      1.92680E-04
  885.00      1.86620E-04
  887.00      1.78860E-04
  889.00      1.89420E-04
  891.00      1.89880E-04
  893.00      1.89300E-04
  895.00      1.88820E-04
  897.00      1.87850E-04
  899.00      1.85190E-04
  901.00      1.73700E-04
  903.00      1.78820E-04
  905.00      1.84140E-04
  907.00      1.83190E-04
  909.00      1.83230E-04
  911.00      1.82720E-04
  913.00      1.82060E-04
  915.00      1.81320E-04
  917.00      1.80350E-04
  919.00      1.79420E-04
  921.00      1.75390E-04
  923.00      1.63290E-04
  925.00      1.74260E-04
  927.00      1.76440E-04
  929.00      1.76270E-04
  931.00      1.75200E-04
  933.00      1.74870E-04
  935.00      1.72930E-04
  937.00      1.73470E-04
  939.00      1.72800E-04
  941.00      1.72110E-04
  943.00      1.71440E-04
  945.00      1.70760E-04
  947.00      1.69590E-04
  949.00      1.69420E-04
  951.00      1.67380E-04
  953.00      1.63730E-04
  955.00      1.53010E-04
  957.00      1.64460E-04
  959.00      1.65740E-04
  961.00      1.65270E-04
  963.00      1.64460E-04
  965.00      1.64220E-04
  967.00      1.63590E-04
  969.00      1.62900E-04
  971.00      1.62060E-04
  973.00      1.61710E-04
  975.00      1.61090E-04
  977.00      1.60360E-04
  979.00      1.59860E-04
  981.00      1.59260E-04
  983.00      1.58650E-04
  985.00      1.58050E-04
  987.00      1.57450E-04
  989.00      1.56860E-04
  991.00      1.56260E-04
  993.00      1.55680E-04
  995.00      1.55090E-04
  997.00      1.54510E-04
  999.00      1.53930E-04
  1002.5      1.49500E-04
  1007.5      1.46830E-04
  1012.5      1.48990E-04
  1017.5      1.48730E-04
  1022.5      1.47340E-04
  1027.5      1.46030E-04
  1032.5      1.44390E-04
  1037.5      1.43400E-04
  1042.5      1.42020E-04
  1047.5      1.40840E-04
  1052.5      1.39590E-04
  1057.5      1.38350E-04
  1062.5      1.37130E-04
  1067.5      1.35810E-04
  1072.5      1.34730E-04
  1077.5      1.33560E-04
  1082.5      1.31590E-04
  1087.5      1.31170E-04
  1092.5      1.24190E-04
  1097.5      1.27720E-04
  1102.5      1.27580E-04
  1107.5      1.26800E-04
  1112.5      1.25750E-04
  1117.5      1.24700E-04
  1122.5      1.23630E-04
  1127.5      1.22620E-04
  1132.5      1.21600E-04
  1137.5      1.20590E-04
  1142.5      1.19600E-04
  1147.5      1.18620E-04
  1152.5      1.17650E-04
  1157.5      1.16690E-04
  1162.5      1.15410E-04
  1167.5      1.14680E-04
  1172.5      1.13880E-04
  1177.5      1.12970E-04
  1182.5      1.12060E-04
  1187.5      1.11170E-04
  1192.5      1.10290E-04
  1197.5      1.08860E-04
  1202.5      1.08560E-04
  1207.5      1.07710E-04
  1212.5      1.06870E-04
  1217.5      1.06040E-04
  1222.5      1.05210E-04
  1227.5      1.04400E-04
  1232.5      1.03600E-04
  1237.5      1.02810E-04
  1242.5      1.02020E-04
  1247.5      1.01250E-04
  1252.5      1.00370E-04
  1257.5      9.97220E-05
  1262.5      9.89730E-05
  1267.5      9.82320E-05
  1272.5      9.74980E-05
  1277.5      9.58900E-05
  1282.5      9.17160E-05
  1287.5      9.51270E-05
  1292.5      9.46480E-05
  1297.5      9.36350E-05
  1302.5      9.32700E-05
  1307.5      9.25920E-05
  1312.5      9.19220E-05
  1317.5      9.12580E-05
  1322.5      9.06020E-05
  1327.5      8.99520E-05
  1332.5      8.93100E-05
  1337.5      8.86740E-05
  1342.5      8.80070E-05
  1347.5      8.74230E-05
  1352.5      8.68070E-05
  1357.5      8.61980E-05
  1362.5      8.55950E-05
  1367.5      8.49990E-05
  1372.5      8.44080E-05
  1377.5      8.38240E-05
  1382.5      8.32460E-05
  1387.5      8.26740E-05
  1392.5      8.21070E-05
  1397.5      8.15460E-05
