 Castelli and Kurucz 2004-2012 Atmosphere
 T     35000.     G    4.00000 [-2.0a] N(He)/Ntot=0.0784 VTURB=2.0  L/H=1.25 OD
 Wavelength  Eddington Hnu
   (nm)    (ergs/s/cm2/Hz/sr)
  9.0900      1.98760E-28
  9.3500      9.75570E-28
  9.6100      4.41080E-27
  9.7700      1.07500E-26
  9.9600      2.98840E-26
  10.200      1.03260E-25
  10.380      2.52830E-25
  10.560      6.01720E-25
  10.770      1.59930E-24
  11.040      5.33790E-24
  11.400      2.44950E-23
  11.780      1.11580E-22
  12.130      4.17400E-22
  12.480      1.45850E-21
  12.710      3.20680E-21
  12.840      4.94900E-21
  13.050      9.81070E-21
  13.240      1.79170E-20
  13.390      2.85110E-20
  13.660      6.43170E-20
  13.980      1.62630E-19
  14.330      4.29600E-19
  14.720      1.20650E-18
  15.100      3.15190E-18
  15.520      8.66250E-18
  15.880      1.98210E-17
  16.200      4.02270E-17
  16.600      9.40760E-17
  17.030      2.24990E-16
  17.340      4.11450E-16
  17.680      7.79690E-16
  18.020      1.44430E-15
  18.170      1.88250E-15
  18.610      4.00310E-15
  19.100      8.92280E-15
  19.390      1.40790E-14
  19.840      2.78540E-14
  20.180      4.57270E-14
  20.500      7.18390E-14
  21.050      1.51490E-13
  21.620      3.15580E-13
  21.980      4.91920E-13
  22.300      7.21170E-13
  22.680      1.12030E-12
  23.000      3.23210E-10
  23.400      1.63120E-09
  24.000      4.57940E-09
  24.650      1.58030E-08
  25.240      3.86040E-08
  25.680      2.48430E-08
  26.000      1.34290E-07
  26.400      3.86040E-07
  26.850      7.59260E-07
  27.350      1.11140E-06
  27.850      1.16940E-06
  28.400      2.03690E-06
  29.000      2.26700E-06
  29.600      1.21930E-06
  30.100      1.80950E-07
  30.800      7.84140E-07
  31.800      3.16920E-06
  32.800      4.32640E-06
  33.800      5.04020E-06
  34.800      6.05150E-06
  35.700      7.43720E-06
  36.600      9.17220E-06
  37.500      9.92730E-06
  38.500      1.07400E-05
  39.500      1.25850E-05
  40.500      1.42200E-05
  41.400      1.58030E-05
  42.200      1.66880E-05
  43.000      1.78670E-05
  44.100      2.07680E-05
  45.100      2.32090E-05
  46.000      2.51030E-05
  47.000      2.82610E-05
  48.000      3.17170E-05
  49.000      3.42250E-05
  50.000      3.94200E-05
  50.600      1.09480E-04
  51.200      2.46210E-04
  52.000      2.44870E-04
  53.000      2.47330E-04
  54.000      2.37870E-04
  55.000      2.52000E-04
  56.000      2.91590E-04
  57.000      3.05570E-04
  58.000      3.02260E-04
  59.000      3.22620E-04
  60.000      3.16810E-04
  61.000      3.28590E-04
  62.000      3.62690E-04
  63.000      3.70600E-04
  64.000      3.83760E-04
  65.000      3.89630E-04
  65.800      3.83200E-04
  66.500      4.03290E-04
  67.500      4.25780E-04
  68.500      4.17010E-04
  69.500      4.45390E-04
  70.500      4.32270E-04
  71.600      4.72760E-04
  72.600      4.83820E-04
  73.500      4.98170E-04
  74.500      4.99800E-04
  75.500      5.08330E-04
  76.500      5.15770E-04
  77.500      5.31670E-04
  78.500      5.43050E-04
  79.500      5.55700E-04
  80.500      5.63400E-04
  81.500      5.77530E-04
  82.500      5.93910E-04
  83.500      5.69760E-04
  84.500      6.11440E-04
  85.500      6.19850E-04
  86.500      6.36820E-04
  87.500      6.47430E-04
  88.500      6.57330E-04
  89.500      6.67230E-04
  90.500      6.71730E-04
  91.500      6.77130E-04
  92.500      1.51840E-03
  93.500      2.03960E-03
  94.500      2.50720E-03
  95.500      2.69710E-03
  96.500      2.98370E-03
  97.500      2.38370E-03
  98.500      2.93090E-03
  99.500      2.81530E-03
  100.50      2.91750E-03
  101.50      2.95710E-03
  102.50      2.49020E-03
  103.50      2.93210E-03
  104.50      2.97450E-03
  105.50      2.96800E-03
  106.50      2.90620E-03
  107.50      2.90810E-03
  108.50      2.82620E-03
  109.50      2.93180E-03
  110.50      2.90150E-03
  111.50      2.87870E-03
  112.50      2.80640E-03
  113.50      2.88390E-03
  114.50      2.87030E-03
  115.50      2.83580E-03
  116.50      2.83870E-03
  117.50      2.60740E-03
  118.50      2.78950E-03
  119.50      2.78670E-03
  120.50      2.75480E-03
  121.50      2.32780E-03
  122.50      2.75550E-03
  123.50      2.75380E-03
  124.50      2.72360E-03
  125.50      2.74580E-03
  126.50      2.73780E-03
  127.50      2.72790E-03
  128.50      2.71770E-03
  129.50      2.68100E-03
  130.50      2.67910E-03
  131.50      2.67930E-03
  132.50      2.66170E-03
  133.50      2.64670E-03
  134.50      2.64160E-03
  135.50      2.62350E-03
  136.50      2.60530E-03
  137.50      2.58520E-03
  138.50      2.58060E-03
  139.50      2.51470E-03
  140.50      2.49590E-03
  141.50      2.54070E-03
  142.50      2.51030E-03
  143.50      2.51430E-03
  144.20      2.50260E-03
  144.70      2.49640E-03
  145.50      2.48100E-03
  146.50      2.47200E-03
  147.50      2.46000E-03
  148.50      2.45490E-03
  149.50      2.43560E-03
  150.50      2.42810E-03
  151.20      2.42340E-03
  151.70      2.41100E-03
  152.50      2.39590E-03
  153.50      2.35390E-03
  154.50      2.28060E-03
  155.50      2.28210E-03
  156.50      2.30900E-03
  157.50      2.31780E-03
  158.50      2.31120E-03
  159.50      2.29930E-03
  160.50      2.25810E-03
  161.50      2.24480E-03
  162.50      2.22310E-03
  163.50      2.19690E-03
  164.50      2.11220E-03
  165.50      2.21870E-03
  166.50      2.20340E-03
  167.20      2.18260E-03
  167.70      2.21040E-03
  168.50      2.19620E-03
  169.50      2.18570E-03
  170.50      2.16940E-03
  171.50      2.13350E-03
  172.50      2.12740E-03
  173.50      2.14480E-03
  174.50      2.12940E-03
  175.50      2.11250E-03
  176.50      2.10850E-03
  177.50      2.09930E-03
  178.50      2.08840E-03
  179.50      2.07360E-03
  180.50      2.06470E-03
  181.50      2.05310E-03
  182.50      2.04030E-03
  183.50      2.03290E-03
  184.50      2.01960E-03
  185.50      2.00640E-03
  186.50      1.99450E-03
  187.50      1.98410E-03
  188.50      1.97390E-03
  189.50      1.96550E-03
  190.50      1.95630E-03
  191.50      1.94450E-03
  192.50      1.92610E-03
  193.50      1.92390E-03
  194.50      1.91410E-03
  195.50      1.90100E-03
  196.70      1.89060E-03
  197.60      1.88180E-03
  198.40      1.87340E-03
  199.50      1.86130E-03
  200.50      1.85250E-03
  201.50      1.84250E-03
  202.50      1.83230E-03
  203.50      1.82220E-03
  204.50      1.81190E-03
  205.50      1.47320E-03
  206.50      1.44260E-03
  207.40      1.48570E-03
  207.80      1.52390E-03
  208.50      1.63560E-03
  209.50      1.75300E-03
  210.50      1.75570E-03
  211.50      1.75250E-03
  212.50      1.74210E-03
  213.50      1.73280E-03
  214.50      1.72560E-03
  215.50      1.73780E-03
  216.50      1.69820E-03
  217.50      1.72430E-03
  218.50      1.68270E-03
  219.50      1.70550E-03
  220.50      1.69680E-03
  221.50      1.65530E-03
  222.50      1.67830E-03
  223.50      1.66940E-03
  224.50      1.66000E-03
  225.50      1.62050E-03
  226.50      1.64230E-03
  227.50      1.63350E-03
  228.50      1.62340E-03
  229.50      1.59930E-03
  230.50      1.57810E-03
  231.50      1.59810E-03
  232.50      1.58990E-03
  233.50      1.58150E-03
  234.50      1.57300E-03
  235.50      1.56470E-03
  236.50      1.55630E-03
  237.50      1.54790E-03
  238.50      1.51010E-03
  239.50      1.52860E-03
  240.50      1.52340E-03
  241.50      1.51500E-03
  242.50      1.50740E-03
  243.50      1.49930E-03
  244.50      1.49160E-03
  245.50      1.48300E-03
  246.50      1.47600E-03
  247.50      1.46830E-03
  248.50      1.46060E-03
  249.50      1.39830E-03
  250.50      1.44330E-03
  251.30      1.37850E-03
  251.80      1.42840E-03
  252.50      1.43020E-03
  253.50      1.42320E-03
  254.50      1.41580E-03
  255.50      1.40840E-03
  256.50      1.40130E-03
  257.50      1.39420E-03
  258.50      1.38710E-03
  259.50      1.37920E-03
  260.50      1.37430E-03
  261.50      1.36710E-03
  262.50      1.36040E-03
  263.50      1.35320E-03
  264.50      1.34620E-03
  265.50      1.33920E-03
  266.50      1.33190E-03
  267.50      1.32420E-03
  268.50      1.31950E-03
  269.50      1.31100E-03
  270.50      1.30650E-03
  271.50      1.29990E-03
  272.50      1.29080E-03
  273.50      1.26380E-03
  274.50      1.28070E-03
  275.50      1.27420E-03
  276.50      1.26480E-03
  277.50      1.26170E-03
  278.50      1.25540E-03
  279.50      1.24810E-03
  280.50      1.24290E-03
  281.50      1.23700E-03
  282.50      1.22730E-03
  283.50      1.22390E-03
  284.50      1.21900E-03
  285.50      1.21310E-03
  286.50      1.20710E-03
  287.50      1.20130E-03
  288.50      1.19550E-03
  289.50      1.18960E-03
  291.00      1.18100E-03
  293.00      1.16980E-03
  295.00      1.15580E-03
  297.00      1.14740E-03
  299.00      1.13600E-03
  301.00      1.12560E-03
  303.00      1.11440E-03
  305.00      1.10410E-03
  307.00      1.09450E-03
  309.00      1.08400E-03
  311.00      1.07410E-03
  313.00      1.06440E-03
  315.00      1.05470E-03
  317.00      1.04500E-03
  319.00      1.03200E-03
  321.00      1.01610E-03
  323.00      1.01700E-03
  325.00      1.00780E-03
  327.00      9.97900E-04
  329.00      9.89560E-04
  331.00      9.81120E-04
  333.00      9.72410E-04
  335.00      9.62940E-04
  337.00      9.55400E-04
  339.00      9.47080E-04
  341.00      9.38790E-04
  343.00      9.29710E-04
  345.00      9.20330E-04
  347.00      9.13600E-04
  349.00      9.06280E-04
  351.00      8.98850E-04
  353.00      8.90960E-04
  355.00      8.83190E-04
  357.00      8.77520E-04
  359.00      8.67790E-04
  361.00      8.61450E-04
  363.00      8.53020E-04
  364.00      8.42860E-04
  365.00      7.98300E-04
  367.00      7.93080E-04
  369.00      7.88390E-04
  371.00      7.84700E-04
  373.00      7.81730E-04
  375.00      7.96120E-04
  377.00      7.99190E-04
  379.00      8.11310E-04
  381.00      8.26230E-04
  383.00      7.80650E-04
  385.00      8.27570E-04
  387.00      8.27420E-04
  389.00      7.62260E-04
  391.00      8.18680E-04
  393.00      8.07510E-04
  395.00      8.06420E-04
  397.00      7.35900E-04
  399.00      7.93090E-04
  401.00      7.87310E-04
  403.00      7.67740E-04
  405.00      7.77210E-04
  407.00      7.70510E-04
  409.00      7.51150E-04
  411.00      7.06830E-04
  413.00      7.50480E-04
  415.00      7.44750E-04
  417.00      7.41140E-04
  419.00      7.34520E-04
  421.00      7.24340E-04
  423.00      7.24570E-04
  425.00      7.18960E-04
  427.00      7.13440E-04
  429.00      7.08090E-04
  431.00      7.02430E-04
  433.00      6.80440E-04
  435.00      6.50830E-04
  437.00      6.86600E-04
  439.00      6.77090E-04
  441.00      6.76720E-04
  443.00      6.71330E-04
  445.00      6.66930E-04
  447.00      6.53280E-04
  449.00      6.57140E-04
  451.00      6.52360E-04
  453.00      6.47380E-04
  455.00      6.36940E-04
  457.00      6.38300E-04
  459.00      6.33620E-04
  461.00      6.29100E-04
  463.00      6.24390E-04
  465.00      6.18450E-04
  467.00      6.15470E-04
  469.00      5.97370E-04
  471.00      6.04140E-04
  473.00      6.02850E-04
  475.00      5.98620E-04
  477.00      5.94430E-04
  479.00      5.90290E-04
  481.00      5.86170E-04
  483.00      5.81990E-04
  485.00      5.67450E-04
  487.00      5.36150E-04
  489.00      5.69570E-04
  491.00      5.66230E-04
  493.00      5.57820E-04
  495.00      5.58530E-04
  497.00      5.54800E-04
  499.00      5.51050E-04
  501.00      5.44690E-04
  503.00      5.43650E-04
  505.00      5.39080E-04
  507.00      5.36410E-04
  509.00      5.32840E-04
  511.00      5.29310E-04
  513.00      5.25810E-04
  515.00      5.22340E-04
  517.00      5.18900E-04
  519.00      5.15510E-04
  521.00      5.12140E-04
  523.00      5.08810E-04
  525.00      5.05500E-04
  527.00      5.02200E-04
  529.00      4.98990E-04
  531.00      4.95780E-04
  533.00      4.92600E-04
  535.00      4.89450E-04
  537.00      4.86330E-04
  539.00      4.83240E-04
  541.00      4.75470E-04
  543.00      4.77140E-04
  545.00      4.74140E-04
  547.00      4.71160E-04
  549.00      4.68210E-04
  551.00      4.65280E-04
  553.00      4.62390E-04
  555.00      4.59520E-04
  557.00      4.56680E-04
  559.00      4.53760E-04
  561.00      4.51070E-04
  563.00      4.48310E-04
  565.00      4.45560E-04
  567.00      4.42850E-04
  569.00      4.37330E-04
  571.00      4.22950E-04
  573.00      4.20540E-04
  575.00      4.18130E-04
  577.00      4.15790E-04
  579.00      4.13570E-04
  581.00      4.11670E-04
  583.00      4.10050E-04
  585.00      4.08790E-04
  587.00      4.02440E-04
  589.00      4.06410E-04
  591.00      4.05510E-04
  593.00      4.04660E-04
  595.00      4.03980E-04
  597.00      4.03160E-04
  599.00      4.02220E-04
  601.00      4.00580E-04
  603.00      3.98260E-04
  605.00      3.95960E-04
  607.00      3.93670E-04
  609.00      3.91410E-04
  611.00      3.89020E-04
  613.00      3.86800E-04
  615.00      3.84730E-04
  617.00      3.82150E-04
  619.00      3.80370E-04
  621.00      3.78220E-04
  623.00      3.75490E-04
  625.00      3.73960E-04
  627.00      3.71870E-04
  629.00      3.69780E-04
  631.00      3.66950E-04
  633.00      3.65670E-04
  635.00      3.63640E-04
  637.00      3.61630E-04
  639.00      3.59630E-04
  641.00      3.56620E-04
  643.00      3.55680E-04
  645.00      3.53730E-04
  647.00      3.51800E-04
  649.00      3.49880E-04
  651.00      3.47970E-04
  653.00      3.44400E-04
  655.00      3.40570E-04
  657.00      3.19340E-04
  659.00      3.40030E-04
  661.00      3.38690E-04
  663.00      3.36880E-04
  665.00      3.35130E-04
  667.00      3.31710E-04
  669.00      3.28470E-04
  671.00      3.29780E-04
  673.00      3.28070E-04
  675.00      3.26350E-04
  677.00      3.24630E-04
  679.00      3.22930E-04
  681.00      3.21240E-04
  683.00      3.19570E-04
  685.00      3.17900E-04
  687.00      3.16250E-04
  689.00      3.13010E-04
  691.00      3.12980E-04
  693.00      3.11380E-04
  695.00      3.09780E-04
  697.00      3.08190E-04
  699.00      3.06610E-04
  701.00      3.05050E-04
  703.00      3.03490E-04
  705.00      3.01950E-04
  707.00      2.98050E-04
  709.00      2.98910E-04
  711.00      2.97400E-04
  713.00      2.95910E-04
  715.00      2.94430E-04
  717.00      2.91800E-04
  719.00      2.91010E-04
  721.00      2.90040E-04
  723.00      2.88600E-04
  725.00      2.87170E-04
  727.00      2.85750E-04
  729.00      2.83210E-04
  731.00      2.82930E-04
  733.00      2.81560E-04
  735.00      2.80180E-04
  737.00      2.78810E-04
  739.00      2.77450E-04
  741.00      2.76100E-04
  743.00      2.74760E-04
  745.00      2.73440E-04
  747.00      2.72130E-04
  749.00      2.70810E-04
  751.00      2.69490E-04
  753.00      2.68220E-04
  755.00      2.66940E-04
  757.00      2.65670E-04
  759.00      2.62820E-04
  761.00      2.63140E-04
  763.00      2.61900E-04
  765.00      2.60660E-04
  767.00      2.59430E-04
  769.00      2.58200E-04
  771.00      2.57000E-04
  773.00      2.55780E-04
  775.00      2.54600E-04
  777.00      2.53410E-04
  779.00      2.52240E-04
  781.00      2.51020E-04
  783.00      2.49900E-04
  785.00      2.48830E-04
  787.00      2.47680E-04
  789.00      2.46540E-04
  791.00      2.45410E-04
  793.00      2.44290E-04
  795.00      2.43170E-04
  797.00      2.42020E-04
  799.00      2.40960E-04
  801.00      2.39870E-04
  803.00      2.38780E-04
  805.00      2.37700E-04
  807.00      2.36630E-04
  809.00      2.35460E-04
  811.00      2.34400E-04
  813.00      2.33450E-04
  815.00      2.32240E-04
  817.00      2.31370E-04
  819.00      2.29840E-04
  821.00      2.25170E-04
  823.00      2.23480E-04
  825.00      2.23320E-04
  827.00      2.22190E-04
  829.00      2.21500E-04
  831.00      2.20580E-04
  833.00      2.19600E-04
  835.00      2.18370E-04
  837.00      2.17670E-04
  839.00      2.16860E-04
  841.00      2.16020E-04
  843.00      2.15120E-04
  845.00      2.13870E-04
  847.00      2.13430E-04
  849.00      2.12600E-04
  851.00      2.11690E-04
  853.00      2.11130E-04
  855.00      2.09480E-04
  857.00      2.10390E-04
  859.00      2.07360E-04
  861.00      2.07060E-04
  863.00      2.08790E-04
  865.00      2.06640E-04
  867.00      2.01700E-04
  869.00      2.06780E-04
  871.00      2.06970E-04
  873.00      2.04680E-04
  875.00      1.96090E-04
  877.00      2.02180E-04
  879.00      2.04530E-04
  881.00      2.03940E-04
  883.00      2.02950E-04
  885.00      1.97440E-04
  887.00      1.90060E-04
  889.00      1.99680E-04
  891.00      2.00060E-04
  893.00      1.99300E-04
  895.00      1.98760E-04
  897.00      1.97840E-04
  899.00      1.95310E-04
  901.00      1.84540E-04
  903.00      1.89230E-04
  905.00      1.93990E-04
  907.00      1.93060E-04
  909.00      1.92940E-04
  911.00      1.92290E-04
  913.00      1.91650E-04
  915.00      1.90870E-04
  917.00      1.89910E-04
  919.00      1.88980E-04
  921.00      1.85250E-04
  923.00      1.73750E-04
  925.00      1.83980E-04
  927.00      1.85870E-04
  929.00      1.85570E-04
  931.00      1.84540E-04
  933.00      1.84090E-04
  935.00      1.81600E-04
  937.00      1.82460E-04
  939.00      1.81920E-04
  941.00      1.81200E-04
  943.00      1.80490E-04
  945.00      1.79780E-04
  947.00      1.78670E-04
  949.00      1.78370E-04
  951.00      1.76510E-04
  953.00      1.73070E-04
  955.00      1.62790E-04
  957.00      1.73530E-04
  959.00      1.74630E-04
  961.00      1.74060E-04
  963.00      1.73240E-04
  965.00      1.72910E-04
  967.00      1.72240E-04
  969.00      1.71530E-04
  971.00      1.70690E-04
  973.00      1.70260E-04
  975.00      1.69610E-04
  977.00      1.68670E-04
  979.00      1.68330E-04
  981.00      1.67690E-04
  983.00      1.67050E-04
  985.00      1.66420E-04
  987.00      1.65790E-04
  989.00      1.65160E-04
  991.00      1.64540E-04
  993.00      1.63920E-04
  995.00      1.63310E-04
  997.00      1.62700E-04
  999.00      1.62090E-04
  1002.5      1.57920E-04
  1007.5      1.55190E-04
  1012.5      1.56680E-04
  1017.5      1.56620E-04
  1022.5      1.55170E-04
  1027.5      1.53790E-04
  1032.5      1.52110E-04
  1037.5      1.51020E-04
  1042.5      1.49470E-04
  1047.5      1.48330E-04
  1052.5      1.47010E-04
  1057.5      1.45710E-04
  1062.5      1.44430E-04
  1067.5      1.43060E-04
  1072.5      1.41910E-04
  1077.5      1.40670E-04
  1082.5      1.38700E-04
  1087.5      1.38190E-04
  1092.5      1.31500E-04
  1097.5      1.34750E-04
  1102.5      1.34450E-04
  1107.5      1.33580E-04
  1112.5      1.32460E-04
  1117.5      1.31370E-04
  1122.5      1.30240E-04
  1127.5      1.29180E-04
  1132.5      1.28110E-04
  1137.5      1.27050E-04
  1142.5      1.26000E-04
  1147.5      1.24970E-04
  1152.5      1.23940E-04
  1157.5      1.22930E-04
  1162.5      1.21450E-04
  1167.5      1.20710E-04
  1172.5      1.19980E-04
  1177.5      1.19020E-04
  1182.5      1.18070E-04
  1187.5      1.17130E-04
  1192.5      1.16200E-04
  1197.5      1.14790E-04
  1202.5      1.14380E-04
  1207.5      1.13480E-04
  1212.5      1.12600E-04
  1217.5      1.11720E-04
  1222.5      1.10860E-04
  1227.5      1.10010E-04
  1232.5      1.09160E-04
  1237.5      1.08330E-04
  1242.5      1.07500E-04
  1247.5      1.06680E-04
  1252.5      1.05790E-04
  1257.5      1.05080E-04
  1262.5      1.04290E-04
  1267.5      1.03510E-04
  1272.5      1.02740E-04
  1277.5      1.01180E-04
  1282.5      9.71100E-05
  1287.5      1.00290E-04
  1292.5      9.97380E-05
  1297.5      9.87310E-05
  1302.5      9.82870E-05
  1307.5      9.75740E-05
  1312.5      9.68680E-05
  1317.5      9.61690E-05
  1322.5      9.54780E-05
  1327.5      9.47940E-05
  1332.5      9.41180E-05
  1337.5      9.34490E-05
  1342.5      9.27550E-05
  1347.5      9.21320E-05
  1352.5      9.14840E-05
  1357.5      9.08420E-05
  1362.5      9.02080E-05
  1367.5      8.95800E-05
  1372.5      8.89580E-05
  1377.5      8.83430E-05
  1382.5      8.77340E-05
  1387.5      8.71320E-05
  1392.5      8.65350E-05
  1397.5      8.59450E-05
