 Castelli and Kurucz 2004-2012 Atmosphere
 T     48000.     G    4.50000 [-2.0a] N(He)/Ntot=0.0784 VTURB=2.0  L/H=1.25 OD
 Wavelength  Eddington Hnu
   (nm)    (ergs/s/cm2/Hz/sr)
  9.0900      7.58500E-19
  9.3500      2.04110E-18
  9.6100      5.18310E-18
  9.7700      9.02580E-18
  9.9600      1.69720E-17
  10.200      3.64660E-17
  10.380      6.33250E-17
  10.560      1.08000E-16
  10.770      1.97000E-16
  11.040      4.13430E-16
  11.400      1.05550E-15
  11.780      2.68250E-15
  12.130      6.04720E-15
  12.480      1.30530E-14
  12.710      2.12120E-14
  12.840      2.77590E-14
  13.050      4.22910E-14
  13.240      6.12940E-14
  13.390      8.16320E-14
  13.660      1.34750E-13
  13.980      2.39110E-13
  14.330      4.35610E-13
  14.720      8.18710E-13
  15.100      1.49380E-12
  15.520      2.79530E-12
  15.880      4.67330E-12
  16.200      7.29410E-12
  16.600      1.23920E-11
  17.030      2.12330E-11
  17.340      3.09140E-11
  17.680      4.62930E-11
  18.020      6.81630E-11
  18.170      7.97020E-11
  18.610      1.29140E-10
  19.100      2.13290E-10
  19.390      2.85130E-10
  19.840      4.38070E-10
  20.180      5.99370E-10
  20.500      7.98260E-10
  21.050      1.28050E-09
  21.620      2.03980E-09
  21.980      2.70880E-09
  22.300      3.45430E-09
  22.680      4.55930E-09
  23.000      2.85360E-07
  23.400      4.09660E-06
  24.000      3.52240E-05
  24.650      1.43730E-04
  25.240      2.67000E-04
  25.680      2.10780E-04
  26.000      3.94710E-04
  26.400      5.14280E-04
  26.850      5.57370E-04
  27.350      6.49360E-04
  27.850      6.56300E-04
  28.400      7.60480E-04
  29.000      8.53680E-04
  29.600      7.85740E-04
  30.100      4.11320E-04
  30.800      5.38020E-04
  31.800      6.98010E-04
  32.800      7.76470E-04
  33.800      7.47300E-04
  34.800      7.79760E-04
  35.700      1.00710E-03
  36.600      1.18010E-03
  37.500      1.26530E-03
  38.500      1.19600E-03
  39.500      1.41200E-03
  40.500      1.57200E-03
  41.400      1.63410E-03
  42.200      1.63310E-03
  43.000      1.67440E-03
  44.100      1.82680E-03
  45.100      1.89750E-03
  46.000      1.88200E-03
  47.000      1.93220E-03
  48.000      2.02720E-03
  49.000      2.00210E-03
  50.000      2.15580E-03
  50.600      2.07770E-03
  51.200      2.24940E-03
  52.000      2.25130E-03
  53.000      2.30540E-03
  54.000      2.22750E-03
  55.000      2.13690E-03
  56.000      2.38240E-03
  57.000      2.46950E-03
  58.000      2.49120E-03
  59.000      2.55370E-03
  60.000      2.52740E-03
  61.000      2.44130E-03
  62.000      2.59250E-03
  63.000      2.56780E-03
  64.000      2.67580E-03
  65.000      2.65660E-03
  65.800      2.60750E-03
  66.500      2.72710E-03
  67.500      2.76210E-03
  68.500      2.69960E-03
  69.500      2.81330E-03
  70.500      2.71940E-03
  71.600      2.84550E-03
  72.600      2.88940E-03
  73.500      2.90510E-03
  74.500      2.90020E-03
  75.500      2.89110E-03
  76.500      2.85480E-03
  77.500      2.93900E-03
  78.500      2.90110E-03
  79.500      2.94330E-03
  80.500      2.98000E-03
  81.500      2.99590E-03
  82.500      3.01610E-03
  83.500      2.93430E-03
  84.500      3.02960E-03
  85.500      3.00400E-03
  86.500      3.05520E-03
  87.500      3.07660E-03
  88.500      3.06970E-03
  89.500      3.07640E-03
  90.500      3.05180E-03
  91.500      2.42380E-03
  92.500      3.94000E-03
  93.500      4.81090E-03
  94.500      5.52470E-03
  95.500      5.92990E-03
  96.500      6.38120E-03
  97.500      5.52350E-03
  98.500      6.25670E-03
  99.500      5.96690E-03
  100.50      6.22250E-03
  101.50      6.18590E-03
  102.50      5.44570E-03
  103.50      6.14020E-03
  104.50      6.15250E-03
  105.50      6.12100E-03
  106.50      6.00290E-03
  107.50      6.01800E-03
  108.50      5.79090E-03
  109.50      5.96170E-03
  110.50      5.89840E-03
  111.50      5.84880E-03
  112.50      5.77040E-03
  113.50      5.80440E-03
  114.50      5.76580E-03
  115.50      5.69150E-03
  116.50      5.63670E-03
  117.50      5.46270E-03
  118.50      5.59630E-03
  119.50      5.52450E-03
  120.50      5.50660E-03
  121.50      4.81100E-03
  122.50      5.42640E-03
  123.50      5.33480E-03
  124.50      5.29690E-03
  125.50      5.32210E-03
  126.50      5.28280E-03
  127.50      5.24490E-03
  128.50      5.20490E-03
  129.50      5.17030E-03
  130.50      5.12180E-03
  131.50      5.08660E-03
  132.50      5.03850E-03
  133.50      5.01210E-03
  134.50      4.98070E-03
  135.50      4.92590E-03
  136.50      4.86630E-03
  137.50      4.78380E-03
  138.50      4.80270E-03
  139.50      4.74180E-03
  140.50      4.66660E-03
  141.50      4.71280E-03
  142.50      4.67430E-03
  143.50      4.65140E-03
  144.20      4.59600E-03
  144.70      4.58770E-03
  145.50      4.55580E-03
  146.50      4.52570E-03
  147.50      4.50930E-03
  148.50      4.49490E-03
  149.50      4.45780E-03
  150.50      4.43010E-03
  151.20      4.41140E-03
  151.70      4.38690E-03
  152.50      4.36860E-03
  153.50      4.32680E-03
  154.50      4.20220E-03
  155.50      4.17970E-03
  156.50      4.23170E-03
  157.50      4.20860E-03
  158.50      4.16900E-03
  159.50      4.14420E-03
  160.50      4.10760E-03
  161.50      4.08050E-03
  162.50      4.03930E-03
  163.50      3.96380E-03
  164.50      3.80010E-03
  165.50      3.97050E-03
  166.50      3.94540E-03
  167.20      3.91390E-03
  167.70      3.91300E-03
  168.50      3.89200E-03
  169.50      3.86590E-03
  170.50      3.83630E-03
  171.50      3.77480E-03
  172.50      3.76610E-03
  173.50      3.75880E-03
  174.50      3.73100E-03
  175.50      3.70440E-03
  176.50      3.67920E-03
  177.50      3.65470E-03
  178.50      3.62980E-03
  179.50      3.60370E-03
  180.50      3.57880E-03
  181.50      3.55420E-03
  182.50      3.52990E-03
  183.50      3.50580E-03
  184.50      3.48170E-03
  185.50      3.45720E-03
  186.50      3.43380E-03
  187.50      3.41010E-03
  188.50      3.38690E-03
  189.50      3.36490E-03
  190.50      3.34210E-03
  191.50      3.31920E-03
  192.50      3.29380E-03
  193.50      3.27490E-03
  194.50      3.25300E-03
  195.50      3.23110E-03
  196.70      3.20530E-03
  197.60      3.18480E-03
  198.40      3.16920E-03
  199.50      3.14540E-03
  200.50      3.12530E-03
  201.50      3.10470E-03
  202.50      3.08420E-03
  203.50      3.06390E-03
  204.50      3.04200E-03
  205.50      2.40560E-03
  206.50      2.34200E-03
  207.40      2.39690E-03
  207.80      2.45410E-03
  208.50      2.62040E-03
  209.50      2.87580E-03
  210.50      2.92640E-03
  211.50      2.91590E-03
  212.50      2.89780E-03
  213.50      2.87480E-03
  214.50      2.86070E-03
  215.50      2.88430E-03
  216.50      2.80570E-03
  217.50      2.86410E-03
  218.50      2.77210E-03
  219.50      2.82740E-03
  220.50      2.81230E-03
  221.50      2.71820E-03
  222.50      2.77690E-03
  223.50      2.75990E-03
  224.50      2.74140E-03
  225.50      2.65380E-03
  226.50      2.70830E-03
  227.50      2.69170E-03
  228.50      2.67410E-03
  229.50      2.64840E-03
  230.50      2.57520E-03
  231.50      2.62370E-03
  232.50      2.60950E-03
  233.50      2.59360E-03
  234.50      2.57760E-03
  235.50      2.56180E-03
  236.50      2.54620E-03
  237.50      2.53060E-03
  238.50      2.45170E-03
  239.50      2.49790E-03
  240.50      2.48440E-03
  241.50      2.46900E-03
  242.50      2.45550E-03
  243.50      2.44070E-03
  244.50      2.42620E-03
  245.50      2.41000E-03
  246.50      2.39740E-03
  247.50      2.38340E-03
  248.50      2.36920E-03
  249.50      2.31930E-03
  250.50      2.33520E-03
  251.30      2.20320E-03
  251.80      2.31810E-03
  252.50      2.31160E-03
  253.50      2.30080E-03
  254.50      2.28740E-03
  255.50      2.27410E-03
  256.50      2.26110E-03
  257.50      2.24800E-03
  258.50      2.23490E-03
  259.50      2.21990E-03
  260.50      2.20970E-03
  261.50      2.19600E-03
  262.50      2.18460E-03
  263.50      2.17220E-03
  264.50      2.15990E-03
  265.50      2.14770E-03
  266.50      2.13550E-03
  267.50      2.12240E-03
  268.50      2.11150E-03
  269.50      2.09950E-03
  270.50      2.08820E-03
  271.50      2.07660E-03
  272.50      2.06460E-03
  273.50      2.00350E-03
  274.50      2.04220E-03
  275.50      2.03100E-03
  276.50      2.01960E-03
  277.50      2.00860E-03
  278.50      1.99740E-03
  279.50      1.98660E-03
  280.50      1.97600E-03
  281.50      1.96530E-03
  282.50      1.95420E-03
  283.50      1.94400E-03
  284.50      1.93370E-03
  285.50      1.92330E-03
  286.50      1.91300E-03
  287.50      1.90270E-03
  288.50      1.89260E-03
  289.50      1.88240E-03
  291.00      1.86750E-03
  293.00      1.84790E-03
  295.00      1.82830E-03
  297.00      1.80920E-03
  299.00      1.78990E-03
  301.00      1.77180E-03
  303.00      1.75290E-03
  305.00      1.73510E-03
  307.00      1.71680E-03
  309.00      1.70070E-03
  311.00      1.68350E-03
  313.00      1.66640E-03
  315.00      1.65000E-03
  317.00      1.63350E-03
  319.00      1.61680E-03
  321.00      1.57980E-03
  323.00      1.58590E-03
  325.00      1.57040E-03
  327.00      1.55370E-03
  329.00      1.53990E-03
  331.00      1.52500E-03
  333.00      1.51050E-03
  335.00      1.49550E-03
  337.00      1.48180E-03
  339.00      1.46750E-03
  341.00      1.45340E-03
  343.00      1.44040E-03
  345.00      1.42660E-03
  347.00      1.41370E-03
  349.00      1.40060E-03
  351.00      1.38780E-03
  353.00      1.37490E-03
  355.00      1.36230E-03
  357.00      1.35010E-03
  359.00      1.33770E-03
  361.00      1.32570E-03
  363.00      1.31350E-03
  364.00      1.28370E-03
  365.00      1.18260E-03
  367.00      1.17350E-03
  369.00      1.16730E-03
  371.00      1.16900E-03
  373.00      1.17600E-03
  375.00      1.19340E-03
  377.00      1.20600E-03
  379.00      1.21790E-03
  381.00      1.22780E-03
  383.00      1.18590E-03
  385.00      1.21920E-03
  387.00      1.22080E-03
  389.00      1.14700E-03
  391.00      1.20310E-03
  393.00      1.18570E-03
  395.00      1.18480E-03
  397.00      1.10730E-03
  399.00      1.16390E-03
  401.00      1.15780E-03
  403.00      1.13160E-03
  405.00      1.13930E-03
  407.00      1.12980E-03
  409.00      1.10350E-03
  411.00      1.05520E-03
  413.00      1.10110E-03
  415.00      1.09280E-03
  417.00      1.08420E-03
  419.00      1.07180E-03
  421.00      1.05380E-03
  423.00      1.05800E-03
  425.00      1.04950E-03
  427.00      1.04110E-03
  429.00      1.03280E-03
  431.00      1.02440E-03
  433.00      9.95200E-04
  435.00      9.64690E-04
  437.00      9.99890E-04
  439.00      9.92100E-04
  441.00      9.84970E-04
  443.00      9.77290E-04
  445.00      9.69760E-04
  447.00      9.59540E-04
  449.00      9.54890E-04
  451.00      9.47590E-04
  453.00      9.39360E-04
  455.00      9.19960E-04
  457.00      9.26150E-04
  459.00      9.19180E-04
  461.00      9.12260E-04
  463.00      9.05310E-04
  465.00      8.98310E-04
  467.00      8.91340E-04
  469.00      8.59860E-04
  471.00      8.78450E-04
  473.00      8.72410E-04
  475.00      8.66030E-04
  477.00      8.59700E-04
  479.00      8.53440E-04
  481.00      8.47260E-04
  483.00      8.41060E-04
  485.00      8.22570E-04
  487.00      7.88750E-04
  489.00      8.22400E-04
  491.00      8.17310E-04
  493.00      8.10630E-04
  495.00      8.05790E-04
  497.00      8.00110E-04
  499.00      7.94490E-04
  501.00      7.88490E-04
  503.00      7.83430E-04
  505.00      7.77900E-04
  507.00      7.72590E-04
  509.00      7.67260E-04
  511.00      7.61980E-04
  513.00      7.56750E-04
  515.00      7.51580E-04
  517.00      7.46460E-04
  519.00      7.41390E-04
  521.00      7.36370E-04
  523.00      7.31400E-04
  525.00      7.26480E-04
  527.00      7.21590E-04
  529.00      7.16800E-04
  531.00      7.12020E-04
  533.00      7.07290E-04
  535.00      7.02620E-04
  537.00      6.97980E-04
  539.00      6.93390E-04
  541.00      6.78180E-04
  543.00      6.84330E-04
  545.00      6.79900E-04
  547.00      6.75480E-04
  549.00      6.71110E-04
  551.00      6.66770E-04
  553.00      6.62500E-04
  555.00      6.58250E-04
  557.00      6.54040E-04
  559.00      6.49790E-04
  561.00      6.45750E-04
  563.00      6.41670E-04
  565.00      6.37620E-04
  567.00      6.33610E-04
  569.00      6.22770E-04
  571.00      5.89080E-04
  573.00      5.85640E-04
  575.00      5.82260E-04
  577.00      5.79000E-04
  579.00      5.76050E-04
  581.00      5.73400E-04
  583.00      5.71710E-04
  585.00      5.70410E-04
  587.00      5.67830E-04
  589.00      5.68690E-04
  591.00      5.68350E-04
  593.00      5.68460E-04
  595.00      5.69080E-04
  597.00      5.69670E-04
  599.00      5.70790E-04
  601.00      5.68860E-04
  603.00      5.66690E-04
  605.00      5.64950E-04
  607.00      5.60890E-04
  609.00      5.58430E-04
  611.00      5.54540E-04
  613.00      5.51310E-04
  615.00      5.48870E-04
  617.00      5.43760E-04
  619.00      5.42390E-04
  621.00      5.39340E-04
  623.00      5.34040E-04
  625.00      5.32710E-04
  627.00      5.30060E-04
  629.00      5.27010E-04
  631.00      5.20970E-04
  633.00      5.20800E-04
  635.00      5.18040E-04
  637.00      5.15100E-04
  639.00      5.11990E-04
  641.00      5.05420E-04
  643.00      5.06420E-04
  645.00      5.03580E-04
  647.00      5.00760E-04
  649.00      4.97970E-04
  651.00      4.95000E-04
  653.00      4.87460E-04
  655.00      4.85300E-04
  657.00      4.61270E-04
  659.00      4.83840E-04
  661.00      4.81670E-04
  663.00      4.79030E-04
  665.00      4.76420E-04
  667.00      4.72840E-04
  669.00      4.65670E-04
  671.00      4.68660E-04
  673.00      4.66160E-04
  675.00      4.63650E-04
  677.00      4.61150E-04
  679.00      4.58680E-04
  681.00      4.56230E-04
  683.00      4.53790E-04
  685.00      4.51380E-04
  687.00      4.48970E-04
  689.00      4.41050E-04
  691.00      4.44070E-04
  693.00      4.41910E-04
  695.00      4.39590E-04
  697.00      4.37280E-04
  699.00      4.35000E-04
  701.00      4.32730E-04
  703.00      4.30480E-04
  705.00      4.28250E-04
  707.00      4.25480E-04
  709.00      4.23840E-04
  711.00      4.21660E-04
  713.00      4.19490E-04
  715.00      4.17350E-04
  717.00      4.11580E-04
  719.00      4.11090E-04
  721.00      4.11000E-04
  723.00      4.08920E-04
  725.00      4.06850E-04
  727.00      4.04800E-04
  729.00      4.02630E-04
  731.00      4.00740E-04
  733.00      3.98740E-04
  735.00      3.96750E-04
  737.00      3.94780E-04
  739.00      3.92820E-04
  741.00      3.90870E-04
  743.00      3.88940E-04
  745.00      3.87010E-04
  747.00      3.85120E-04
  749.00      3.83230E-04
  751.00      3.81350E-04
  753.00      3.79490E-04
  755.00      3.77640E-04
  757.00      3.75800E-04
  759.00      3.68900E-04
  761.00      3.71900E-04
  763.00      3.70380E-04
  765.00      3.68600E-04
  767.00      3.66830E-04
  769.00      3.65070E-04
  771.00      3.63320E-04
  773.00      3.61590E-04
  775.00      3.59870E-04
  777.00      3.58170E-04
  779.00      3.56470E-04
  781.00      3.54790E-04
  783.00      3.53110E-04
  785.00      3.51460E-04
  787.00      3.49810E-04
  789.00      3.48170E-04
  791.00      3.46550E-04
  793.00      3.44940E-04
  795.00      3.43330E-04
  797.00      3.41740E-04
  799.00      3.40160E-04
  801.00      3.38590E-04
  803.00      3.37030E-04
  805.00      3.35480E-04
  807.00      3.33950E-04
  809.00      3.32420E-04
  811.00      3.30900E-04
  813.00      3.29400E-04
  815.00      3.27900E-04
  817.00      3.26410E-04
  819.00      3.23680E-04
  821.00      3.11450E-04
  823.00      3.08500E-04
  825.00      3.08460E-04
  827.00      3.07440E-04
  829.00      3.06140E-04
  831.00      3.04840E-04
  833.00      3.03550E-04
  835.00      3.02290E-04
  837.00      3.01060E-04
  839.00      2.99870E-04
  841.00      2.98780E-04
  843.00      2.97700E-04
  845.00      2.96620E-04
  847.00      2.95630E-04
  849.00      2.94760E-04
  851.00      2.93780E-04
  853.00      2.93020E-04
  855.00      2.91880E-04
  857.00      2.91440E-04
  859.00      2.90220E-04
  861.00      2.89370E-04
  863.00      2.89260E-04
  865.00      2.88190E-04
  867.00      2.86040E-04
  869.00      2.87160E-04
  871.00      2.86840E-04
  873.00      2.85800E-04
  875.00      2.81500E-04
  877.00      2.83840E-04
  879.00      2.84440E-04
  881.00      2.83980E-04
  883.00      2.83120E-04
  885.00      2.79270E-04
  887.00      2.73940E-04
  889.00      2.79080E-04
  891.00      2.78990E-04
  893.00      2.77950E-04
  895.00      2.77360E-04
  897.00      2.75990E-04
  899.00      2.73590E-04
  901.00      2.65180E-04
  903.00      2.67670E-04
  905.00      2.70740E-04
  907.00      2.70400E-04
  909.00      2.69430E-04
  911.00      2.67750E-04
  913.00      2.67230E-04
  915.00      2.66140E-04
  917.00      2.65040E-04
  919.00      2.63580E-04
  921.00      2.60490E-04
  923.00      2.50390E-04
  925.00      2.57810E-04
  927.00      2.59230E-04
  929.00      2.58660E-04
  931.00      2.57610E-04
  933.00      2.56380E-04
  935.00      2.50790E-04
  937.00      2.53370E-04
  939.00      2.53490E-04
  941.00      2.52500E-04
  943.00      2.51500E-04
  945.00      2.50500E-04
  947.00      2.49480E-04
  949.00      2.48510E-04
  951.00      2.46980E-04
  953.00      2.43510E-04
  955.00      2.33780E-04
  957.00      2.42510E-04
  959.00      2.43370E-04
  961.00      2.42710E-04
  963.00      2.41760E-04
  965.00      2.40820E-04
  967.00      2.39880E-04
  969.00      2.38950E-04
  971.00      2.38020E-04
  973.00      2.37100E-04
  975.00      2.35900E-04
  977.00      2.33790E-04
  979.00      2.34370E-04
  981.00      2.33480E-04
  983.00      2.32580E-04
  985.00      2.31690E-04
  987.00      2.30810E-04
  989.00      2.29930E-04
  991.00      2.29060E-04
  993.00      2.28190E-04
  995.00      2.27320E-04
  997.00      2.26460E-04
  999.00      2.25610E-04
  1002.5      2.21460E-04
  1007.5      2.17930E-04
  1012.5      2.16930E-04
  1017.5      2.17920E-04
  1022.5      2.15920E-04
  1027.5      2.13940E-04
  1032.5      2.11940E-04
  1037.5      2.10060E-04
  1042.5      2.07150E-04
  1047.5      2.06280E-04
  1052.5      2.04430E-04
  1057.5      2.02610E-04
  1062.5      2.00800E-04
  1067.5      1.99020E-04
  1072.5      1.97270E-04
  1077.5      1.95540E-04
  1082.5      1.93630E-04
  1087.5      1.92130E-04
  1092.5      1.85430E-04
  1097.5      1.87770E-04
  1102.5      1.87210E-04
  1107.5      1.85610E-04
  1112.5      1.84030E-04
  1117.5      1.82570E-04
  1122.5      1.81030E-04
  1127.5      1.79500E-04
  1132.5      1.78000E-04
  1137.5      1.76520E-04
  1142.5      1.75050E-04
  1147.5      1.73600E-04
  1152.5      1.72170E-04
  1157.5      1.70760E-04
  1162.5      1.67840E-04
  1167.5      1.66900E-04
  1172.5      1.66620E-04
  1177.5      1.65270E-04
  1182.5      1.63940E-04
  1187.5      1.62630E-04
  1192.5      1.61330E-04
  1197.5      1.59990E-04
  1202.5      1.58780E-04
  1207.5      1.57530E-04
  1212.5      1.56290E-04
  1217.5      1.55060E-04
  1222.5      1.53850E-04
  1227.5      1.52660E-04
  1232.5      1.51480E-04
  1237.5      1.50310E-04
  1242.5      1.49150E-04
  1247.5      1.48010E-04
  1252.5      1.46880E-04
  1257.5      1.45770E-04
  1262.5      1.44670E-04
  1267.5      1.43570E-04
  1272.5      1.42500E-04
  1277.5      1.41060E-04
  1282.5      1.36160E-04
  1287.5      1.39190E-04
  1292.5      1.38300E-04
  1297.5      1.37270E-04
  1302.5      1.36280E-04
  1307.5      1.35280E-04
  1312.5      1.34290E-04
  1317.5      1.33320E-04
  1322.5      1.32350E-04
  1327.5      1.31400E-04
  1332.5      1.30450E-04
  1337.5      1.29520E-04
  1342.5      1.28590E-04
  1347.5      1.27680E-04
  1352.5      1.26770E-04
  1357.5      1.25880E-04
  1362.5      1.24990E-04
  1367.5      1.24120E-04
  1372.5      1.23250E-04
  1377.5      1.22390E-04
  1382.5      1.21540E-04
  1387.5      1.20700E-04
  1392.5      1.19870E-04
  1397.5      1.19050E-04
