 Castelli and Kurucz 2004-2012 Atmosphere
 T     44000.     G    5.00000 [-2.0a] N(He)/Ntot=0.0784 VTURB=2.0  L/H=1.25 OD
 Wavelength  Eddington Hnu
   (nm)    (ergs/s/cm2/Hz/sr)
  9.0900      5.04490E-21
  9.3500      1.55100E-20
  9.6100      4.50300E-20
  9.7700      8.46980E-20
  9.9600      1.74710E-19
  10.200      4.21030E-19
  10.380      7.95620E-19
  10.560      1.47480E-18
  10.770      2.95960E-18
  11.040      7.00080E-18
  11.400      2.08590E-17
  11.780      6.20520E-17
  12.130      1.60630E-16
  12.480      3.96640E-16
  12.710      7.01500E-16
  12.840      9.60570E-16
  13.050      1.57720E-15
  13.240      2.44130E-15
  13.390      3.42040E-15
  13.660      6.17580E-15
  13.980      1.21240E-14
  14.330      2.45730E-14
  14.720      5.20300E-14
  15.100      1.04830E-13
  15.520      2.18870E-13
  15.880      3.99900E-13
  16.200      6.69940E-13
  16.600      1.24450E-12
  17.030      2.34710E-12
  17.340      3.64100E-12
  17.680      5.80180E-12
  18.020      9.08970E-12
  18.170      1.10020E-11
  18.610      1.90930E-11
  19.100      3.41900E-11
  19.390      4.76630E-11
  19.840      7.82710E-11
  20.180      1.12260E-10
  20.500      1.55940E-10
  21.050      2.68220E-10
  21.620      4.57040E-10
  21.980      6.31150E-10
  22.300      8.33470E-10
  22.680      1.14670E-09
  23.000      5.56650E-08
  23.400      2.27330E-07
  24.000      9.62790E-07
  24.650      1.27320E-05
  25.240      4.05460E-05
  25.680      2.93490E-05
  26.000      8.92410E-05
  26.400      1.42760E-04
  26.850      1.86890E-04
  27.350      2.34810E-04
  27.850      2.43640E-04
  28.400      3.07900E-04
  29.000      3.49540E-04
  29.600      2.95080E-04
  30.100      9.06820E-05
  30.800      1.82640E-04
  31.800      2.95450E-04
  32.800      3.48610E-04
  33.800      3.39320E-04
  34.800      3.62440E-04
  35.700      4.68200E-04
  36.600      5.44560E-04
  37.500      5.82760E-04
  38.500      5.67080E-04
  39.500      6.56250E-04
  40.500      7.14810E-04
  41.400      7.41290E-04
  42.200      7.37760E-04
  43.000      7.47860E-04
  44.100      8.07430E-04
  45.100      8.36160E-04
  46.000      8.30840E-04
  47.000      8.54990E-04
  48.000      8.95810E-04
  49.000      8.81700E-04
  50.000      9.50050E-04
  50.600      1.01310E-03
  51.200      1.32320E-03
  52.000      1.32780E-03
  53.000      1.36360E-03
  54.000      1.31710E-03
  55.000      1.32000E-03
  56.000      1.45810E-03
  57.000      1.50990E-03
  58.000      1.50850E-03
  59.000      1.56380E-03
  60.000      1.55040E-03
  61.000      1.53360E-03
  62.000      1.63130E-03
  63.000      1.64150E-03
  64.000      1.69540E-03
  65.000      1.69260E-03
  65.800      1.66370E-03
  66.500      1.73610E-03
  67.500      1.78220E-03
  68.500      1.75050E-03
  69.500      1.82620E-03
  70.500      1.77410E-03
  71.600      1.87330E-03
  72.600      1.90490E-03
  73.500      1.92520E-03
  74.500      1.92630E-03
  75.500      1.93730E-03
  76.500      1.93630E-03
  77.500      1.98130E-03
  78.500      1.97900E-03
  79.500      2.00720E-03
  80.500      2.03110E-03
  81.500      2.05410E-03
  82.500      2.08160E-03
  83.500      2.02080E-03
  84.500      2.10330E-03
  85.500      2.10270E-03
  86.500      2.14050E-03
  87.500      2.15960E-03
  88.500      2.16810E-03
  89.500      2.17780E-03
  90.500      2.16950E-03
  91.500      1.74010E-03
  92.500      2.81860E-03
  93.500      3.63420E-03
  94.500      4.64290E-03
  95.500      5.11800E-03
  96.500      5.97000E-03
  97.500      4.67780E-03
  98.500      5.96480E-03
  99.500      5.55700E-03
  100.50      5.95020E-03
  101.50      5.89840E-03
  102.50      4.60400E-03
  103.50      5.80620E-03
  104.50      5.86110E-03
  105.50      5.82870E-03
  106.50      5.69280E-03
  107.50      5.67930E-03
  108.50      5.34870E-03
  109.50      5.64460E-03
  110.50      5.57440E-03
  111.50      5.51960E-03
  112.50      5.41260E-03
  113.50      5.46240E-03
  114.50      5.42110E-03
  115.50      5.33330E-03
  116.50      5.29290E-03
  117.50      5.02900E-03
  118.50      5.21780E-03
  119.50      5.16220E-03
  120.50      5.10340E-03
  121.50      4.08100E-03
  122.50      5.01260E-03
  123.50      4.98530E-03
  124.50      4.94010E-03
  125.50      4.95840E-03
  126.50      4.92060E-03
  127.50      4.88340E-03
  128.50      4.84650E-03
  129.50      4.80300E-03
  130.50      4.76310E-03
  131.50      4.72900E-03
  132.50      4.68490E-03
  133.50      4.65380E-03
  134.50      4.61970E-03
  135.50      4.57470E-03
  136.50      4.52650E-03
  137.50      4.46600E-03
  138.50      4.45680E-03
  139.50      4.38120E-03
  140.50      4.32370E-03
  141.50      4.35910E-03
  142.50      4.31560E-03
  143.50      4.29390E-03
  144.20      4.25440E-03
  144.70      4.24210E-03
  145.50      4.21150E-03
  146.50      4.18260E-03
  147.50      4.15700E-03
  148.50      4.13700E-03
  149.50      4.10130E-03
  150.50      4.07440E-03
  151.20      4.05580E-03
  151.70      4.03420E-03
  152.50      4.01070E-03
  153.50      3.96300E-03
  154.50      3.83710E-03
  155.50      3.82710E-03
  156.50      3.86800E-03
  157.50      3.85060E-03
  158.50      3.81970E-03
  159.50      3.79340E-03
  160.50      3.75020E-03
  161.50      3.72180E-03
  162.50      3.68140E-03
  163.50      3.58450E-03
  164.50      3.42830E-03
  165.50      3.62610E-03
  166.50      3.60160E-03
  167.20      3.57010E-03
  167.70      3.57660E-03
  168.50      3.55490E-03
  169.50      3.53030E-03
  170.50      3.50210E-03
  171.50      3.44280E-03
  172.50      3.43530E-03
  173.50      3.43160E-03
  174.50      3.40450E-03
  175.50      3.37770E-03
  176.50      3.35670E-03
  177.50      3.33430E-03
  178.50      3.31200E-03
  179.50      3.28640E-03
  180.50      3.26400E-03
  181.50      3.24120E-03
  182.50      3.21790E-03
  183.50      3.19670E-03
  184.50      3.17390E-03
  185.50      3.15080E-03
  186.50      3.12870E-03
  187.50      3.10650E-03
  188.50      3.08490E-03
  189.50      3.06570E-03
  190.50      3.04490E-03
  191.50      3.02350E-03
  192.50      2.99690E-03
  193.50      2.98280E-03
  194.50      2.96250E-03
  195.50      2.94180E-03
  196.70      2.91840E-03
  197.60      2.90060E-03
  198.40      2.88510E-03
  199.50      2.86370E-03
  200.50      2.84480E-03
  201.50      2.82580E-03
  202.50      2.80700E-03
  203.50      2.78830E-03
  204.50      2.76930E-03
  205.50      2.13440E-03
  206.50      2.06070E-03
  207.40      2.09310E-03
  207.80      2.13500E-03
  208.50      2.24760E-03
  209.50      2.49290E-03
  210.50      2.64580E-03
  211.50      2.65420E-03
  212.50      2.63760E-03
  213.50      2.61550E-03
  214.50      2.60350E-03
  215.50      2.62550E-03
  216.50      2.54310E-03
  217.50      2.61440E-03
  218.50      2.50870E-03
  219.50      2.58180E-03
  220.50      2.57170E-03
  221.50      2.45480E-03
  222.50      2.53850E-03
  223.50      2.52590E-03
  224.50      2.50510E-03
  225.50      2.39540E-03
  226.50      2.47720E-03
  227.50      2.46260E-03
  228.50      2.44560E-03
  229.50      2.41700E-03
  230.50      2.32480E-03
  231.50      2.39660E-03
  232.50      2.38630E-03
  233.50      2.37160E-03
  234.50      2.35690E-03
  235.50      2.34240E-03
  236.50      2.32800E-03
  237.50      2.31300E-03
  238.50      2.21390E-03
  239.50      2.28010E-03
  240.50      2.27100E-03
  241.50      2.25680E-03
  242.50      2.24400E-03
  243.50      2.23030E-03
  244.50      2.21700E-03
  245.50      2.20240E-03
  246.50      2.19050E-03
  247.50      2.17750E-03
  248.50      2.16440E-03
  249.50      2.10820E-03
  250.50      2.12660E-03
  251.30      1.97580E-03
  251.80      2.11080E-03
  252.50      2.11230E-03
  253.50      2.10130E-03
  254.50      2.08910E-03
  255.50      2.07670E-03
  256.50      2.06480E-03
  257.50      2.05280E-03
  258.50      2.04100E-03
  259.50      2.02740E-03
  260.50      2.01810E-03
  261.50      2.00590E-03
  262.50      1.99500E-03
  263.50      1.98370E-03
  264.50      1.97230E-03
  265.50      1.96120E-03
  266.50      1.94970E-03
  267.50      1.93740E-03
  268.50      1.92790E-03
  269.50      1.91620E-03
  270.50      1.90660E-03
  271.50      1.89590E-03
  272.50      1.88310E-03
  273.50      1.81360E-03
  274.50      1.86450E-03
  275.50      1.85420E-03
  276.50      1.84240E-03
  277.50      1.83380E-03
  278.50      1.82360E-03
  279.50      1.81310E-03
  280.50      1.80380E-03
  281.50      1.79400E-03
  282.50      1.78250E-03
  283.50      1.77390E-03
  284.50      1.76510E-03
  285.50      1.75560E-03
  286.50      1.74620E-03
  287.50      1.73680E-03
  288.50      1.72750E-03
  289.50      1.71820E-03
  291.00      1.70450E-03
  293.00      1.68660E-03
  295.00      1.66740E-03
  297.00      1.65120E-03
  299.00      1.63330E-03
  301.00      1.61690E-03
  303.00      1.59950E-03
  305.00      1.58320E-03
  307.00      1.56760E-03
  309.00      1.55200E-03
  311.00      1.53630E-03
  313.00      1.52080E-03
  315.00      1.50600E-03
  317.00      1.49090E-03
  319.00      1.47310E-03
  321.00      1.43760E-03
  323.00      1.44750E-03
  325.00      1.43330E-03
  327.00      1.41780E-03
  329.00      1.40550E-03
  331.00      1.39210E-03
  333.00      1.37880E-03
  335.00      1.36500E-03
  337.00      1.35280E-03
  339.00      1.34000E-03
  341.00      1.32730E-03
  343.00      1.31560E-03
  345.00      1.30240E-03
  347.00      1.29130E-03
  349.00      1.27930E-03
  351.00      1.26740E-03
  353.00      1.25540E-03
  355.00      1.24370E-03
  357.00      1.23330E-03
  359.00      1.22080E-03
  361.00      1.21060E-03
  363.00      1.19870E-03
  364.00      1.17270E-03
  365.00      1.07930E-03
  367.00      1.07120E-03
  369.00      1.06420E-03
  371.00      1.06150E-03
  373.00      1.06580E-03
  375.00      1.07640E-03
  377.00      1.08460E-03
  379.00      1.10150E-03
  381.00      1.11960E-03
  383.00      1.07020E-03
  385.00      1.11760E-03
  387.00      1.12510E-03
  389.00      1.03080E-03
  391.00      1.11060E-03
  393.00      1.09920E-03
  395.00      1.09460E-03
  397.00      9.93550E-04
  399.00      1.07410E-03
  401.00      1.07200E-03
  403.00      1.04190E-03
  405.00      1.05830E-03
  407.00      1.04730E-03
  409.00      1.00910E-03
  411.00      9.54680E-04
  413.00      1.01910E-03
  415.00      1.01380E-03
  417.00      1.00700E-03
  419.00      9.92730E-04
  421.00      9.75240E-04
  423.00      9.82780E-04
  425.00      9.74830E-04
  427.00      9.66970E-04
  429.00      9.59200E-04
  431.00      9.49280E-04
  433.00      9.08760E-04
  435.00      8.75340E-04
  437.00      9.25890E-04
  439.00      9.18120E-04
  441.00      9.14480E-04
  443.00      9.07150E-04
  445.00      9.00340E-04
  447.00      8.84620E-04
  449.00      8.86410E-04
  451.00      8.79630E-04
  453.00      8.70760E-04
  455.00      8.49340E-04
  457.00      8.59630E-04
  459.00      8.53120E-04
  461.00      8.46670E-04
  463.00      8.40090E-04
  465.00      8.33150E-04
  467.00      8.26670E-04
  469.00      7.93570E-04
  471.00      8.13460E-04
  473.00      8.09510E-04
  475.00      8.03560E-04
  477.00      7.97660E-04
  479.00      7.91830E-04
  481.00      7.86050E-04
  483.00      7.78580E-04
  485.00      7.52290E-04
  487.00      7.16060E-04
  489.00      7.60450E-04
  491.00      7.58100E-04
  493.00      7.48740E-04
  495.00      7.47410E-04
  497.00      7.42130E-04
  499.00      7.36900E-04
  501.00      7.29880E-04
  503.00      7.26590E-04
  505.00      7.21110E-04
  507.00      7.16510E-04
  509.00      7.11550E-04
  511.00      7.06640E-04
  513.00      7.01770E-04
  515.00      6.96960E-04
  517.00      6.92200E-04
  519.00      6.87480E-04
  521.00      6.82820E-04
  523.00      6.78200E-04
  525.00      6.73620E-04
  527.00      6.69070E-04
  529.00      6.64620E-04
  531.00      6.60180E-04
  533.00      6.55790E-04
  535.00      6.51440E-04
  537.00      6.47130E-04
  539.00      6.42860E-04
  541.00      6.25780E-04
  543.00      6.34180E-04
  545.00      6.30320E-04
  547.00      6.26220E-04
  549.00      6.22160E-04
  551.00      6.18120E-04
  553.00      6.14160E-04
  555.00      6.10210E-04
  557.00      6.06300E-04
  559.00      6.02310E-04
  561.00      5.98600E-04
  563.00      5.94810E-04
  565.00      5.91050E-04
  567.00      5.87320E-04
  569.00      5.77230E-04
  571.00      5.45530E-04
  573.00      5.42370E-04
  575.00      5.39250E-04
  577.00      5.36190E-04
  579.00      5.33260E-04
  581.00      5.30490E-04
  583.00      5.28310E-04
  585.00      5.26600E-04
  587.00      5.21930E-04
  589.00      5.24150E-04
  591.00      5.23570E-04
  593.00      5.23210E-04
  595.00      5.23190E-04
  597.00      5.23350E-04
  599.00      5.24030E-04
  601.00      5.23510E-04
  603.00      5.22830E-04
  605.00      5.22270E-04
  607.00      5.19250E-04
  609.00      5.16680E-04
  611.00      5.13900E-04
  613.00      5.11190E-04
  615.00      5.08660E-04
  617.00      5.04400E-04
  619.00      5.02700E-04
  621.00      4.99810E-04
  623.00      4.95460E-04
  625.00      4.93690E-04
  627.00      4.91200E-04
  629.00      4.88370E-04
  631.00      4.83370E-04
  633.00      4.82500E-04
  635.00      4.80050E-04
  637.00      4.77320E-04
  639.00      4.74310E-04
  641.00      4.69030E-04
  643.00      4.69260E-04
  645.00      4.66630E-04
  647.00      4.64020E-04
  649.00      4.61420E-04
  651.00      4.58360E-04
  653.00      4.51690E-04
  655.00      4.46070E-04
  657.00      4.21110E-04
  659.00      4.46980E-04
  661.00      4.46300E-04
  663.00      4.43860E-04
  665.00      4.41450E-04
  667.00      4.37040E-04
  669.00      4.30890E-04
  671.00      4.34240E-04
  673.00      4.31940E-04
  675.00      4.29610E-04
  677.00      4.27300E-04
  679.00      4.25010E-04
  681.00      4.22730E-04
  683.00      4.20480E-04
  685.00      4.18240E-04
  687.00      4.16010E-04
  689.00      4.08470E-04
  691.00      4.11290E-04
  693.00      4.09460E-04
  695.00      4.07310E-04
  697.00      4.05170E-04
  699.00      4.03060E-04
  701.00      4.00950E-04
  703.00      3.98860E-04
  705.00      3.96800E-04
  707.00      3.93150E-04
  709.00      3.92710E-04
  711.00      3.90690E-04
  713.00      3.88680E-04
  715.00      3.86690E-04
  717.00      3.81030E-04
  719.00      3.80450E-04
  721.00      3.80810E-04
  723.00      3.78890E-04
  725.00      3.76970E-04
  727.00      3.75070E-04
  729.00      3.72600E-04
  731.00      3.71310E-04
  733.00      3.69450E-04
  735.00      3.67610E-04
  737.00      3.65780E-04
  739.00      3.63960E-04
  741.00      3.62160E-04
  743.00      3.60370E-04
  745.00      3.58590E-04
  747.00      3.56830E-04
  749.00      3.55080E-04
  751.00      3.53340E-04
  753.00      3.51620E-04
  755.00      3.49900E-04
  757.00      3.48200E-04
  759.00      3.41020E-04
  761.00      3.44390E-04
  763.00      3.43180E-04
  765.00      3.41530E-04
  767.00      3.39890E-04
  769.00      3.38260E-04
  771.00      3.36640E-04
  773.00      3.35030E-04
  775.00      3.33450E-04
  777.00      3.31860E-04
  779.00      3.30290E-04
  781.00      3.28730E-04
  783.00      3.27190E-04
  785.00      3.25670E-04
  787.00      3.24150E-04
  789.00      3.22630E-04
  791.00      3.21130E-04
  793.00      3.19630E-04
  795.00      3.18150E-04
  797.00      3.16670E-04
  799.00      3.15210E-04
  801.00      3.13760E-04
  803.00      3.12310E-04
  805.00      3.10880E-04
  807.00      3.09450E-04
  809.00      3.08040E-04
  811.00      3.06630E-04
  813.00      3.05240E-04
  815.00      3.03850E-04
  817.00      3.02470E-04
  819.00      2.99940E-04
  821.00      2.89120E-04
  823.00      2.86090E-04
  825.00      2.86170E-04
  827.00      2.85400E-04
  829.00      2.84240E-04
  831.00      2.83040E-04
  833.00      2.81830E-04
  835.00      2.80590E-04
  837.00      2.79470E-04
  839.00      2.78330E-04
  841.00      2.77240E-04
  843.00      2.76150E-04
  845.00      2.74980E-04
  847.00      2.74060E-04
  849.00      2.73150E-04
  851.00      2.72230E-04
  853.00      2.71340E-04
  855.00      2.70360E-04
  857.00      2.69720E-04
  859.00      2.68490E-04
  861.00      2.67850E-04
  863.00      2.67540E-04
  865.00      2.66380E-04
  867.00      2.64780E-04
  869.00      2.65350E-04
  871.00      2.65000E-04
  873.00      2.63680E-04
  875.00      2.60460E-04
  877.00      2.61780E-04
  879.00      2.62560E-04
  881.00      2.62210E-04
  883.00      2.61290E-04
  885.00      2.57390E-04
  887.00      2.53390E-04
  889.00      2.57720E-04
  891.00      2.58230E-04
  893.00      2.57640E-04
  895.00      2.56920E-04
  897.00      2.55560E-04
  899.00      2.52720E-04
  901.00      2.44670E-04
  903.00      2.46730E-04
  905.00      2.50510E-04
  907.00      2.50210E-04
  909.00      2.49800E-04
  911.00      2.48670E-04
  913.00      2.48240E-04
  915.00      2.47230E-04
  917.00      2.45770E-04
  919.00      2.44030E-04
  921.00      2.39950E-04
  923.00      2.30350E-04
  925.00      2.37500E-04
  927.00      2.39950E-04
  929.00      2.39870E-04
  931.00      2.39120E-04
  933.00      2.37900E-04
  935.00      2.32140E-04
  937.00      2.35550E-04
  939.00      2.35410E-04
  941.00      2.34550E-04
  943.00      2.33620E-04
  945.00      2.32690E-04
  947.00      2.31590E-04
  949.00      2.30510E-04
  951.00      2.28350E-04
  953.00      2.23890E-04
  955.00      2.14460E-04
  957.00      2.23470E-04
  959.00      2.25310E-04
  961.00      2.25180E-04
  963.00      2.24430E-04
  965.00      2.23700E-04
  967.00      2.22830E-04
  969.00      2.21960E-04
  971.00      2.21040E-04
  973.00      2.20250E-04
  975.00      2.19110E-04
  977.00      2.17540E-04
  979.00      2.17710E-04
  981.00      2.16880E-04
  983.00      2.16050E-04
  985.00      2.15220E-04
  987.00      2.14400E-04
  989.00      2.13580E-04
  991.00      2.12770E-04
  993.00      2.11960E-04
  995.00      2.11160E-04
  997.00      2.10360E-04
  999.00      2.09340E-04
  1002.5      2.04150E-04
  1007.5      2.00810E-04
  1012.5      2.01090E-04
  1017.5      2.02430E-04
  1022.5      2.00560E-04
  1027.5      1.98730E-04
  1032.5      1.96750E-04
  1037.5      1.95120E-04
  1042.5      1.92510E-04
  1047.5      1.91610E-04
  1052.5      1.89900E-04
  1057.5      1.88200E-04
  1062.5      1.86530E-04
  1067.5      1.84850E-04
  1072.5      1.83250E-04
  1077.5      1.81640E-04
  1082.5      1.79570E-04
  1087.5      1.78220E-04
  1092.5      1.70450E-04
  1097.5      1.73430E-04
  1102.5      1.73770E-04
  1107.5      1.72420E-04
  1112.5      1.70950E-04
  1117.5      1.69580E-04
  1122.5      1.68140E-04
  1127.5      1.66740E-04
  1132.5      1.65340E-04
  1137.5      1.63960E-04
  1142.5      1.62600E-04
  1147.5      1.61250E-04
  1152.5      1.59930E-04
  1157.5      1.58610E-04
  1162.5      1.55680E-04
  1167.5      1.54930E-04
  1172.5      1.54770E-04
  1177.5      1.53520E-04
  1182.5      1.52290E-04
  1187.5      1.51070E-04
  1192.5      1.49860E-04
  1197.5      1.48410E-04
  1202.5      1.47500E-04
  1207.5      1.46340E-04
  1212.5      1.45190E-04
  1217.5      1.44050E-04
  1222.5      1.42930E-04
  1227.5      1.41820E-04
  1232.5      1.40720E-04
  1237.5      1.39640E-04
  1242.5      1.38570E-04
  1247.5      1.37510E-04
  1252.5      1.36430E-04
  1257.5      1.35430E-04
  1262.5      1.34400E-04
  1267.5      1.33390E-04
  1272.5      1.32390E-04
  1277.5      1.30470E-04
  1282.5      1.25210E-04
  1287.5      1.29020E-04
  1292.5      1.28490E-04
  1297.5      1.27460E-04
  1302.5      1.26610E-04
  1307.5      1.25690E-04
  1312.5      1.24770E-04
  1317.5      1.23870E-04
  1322.5      1.22970E-04
  1327.5      1.22080E-04
  1332.5      1.21210E-04
  1337.5      1.20340E-04
  1342.5      1.19470E-04
  1347.5      1.18630E-04
  1352.5      1.17790E-04
  1357.5      1.16960E-04
  1362.5      1.16140E-04
  1367.5      1.15320E-04
  1372.5      1.14520E-04
  1377.5      1.13720E-04
  1382.5      1.12930E-04
  1387.5      1.12150E-04
  1392.5      1.11380E-04
  1397.5      1.10620E-04
