 Castelli and Kurucz 2004-2012 Atmosphere
 T     47000.     G    4.50000 [-0.5] N(He)/Ntot=0.0784 VTURB=2.0  L/H=1.25 NOV
 Wavelength  Eddington Hnu
   (nm)    (ergs/s/cm2/Hz/sr)
  9.0900      1.86350E-19
  9.3500      5.21070E-19
  9.6100      1.35740E-18
  9.7700      2.44240E-18
  9.9600      4.71140E-18
  10.200      1.04420E-17
  10.380      1.85390E-17
  10.560      3.22890E-17
  10.770      6.02880E-17
  11.040      1.30000E-16
  11.400      3.42570E-16
  11.780      8.93060E-16
  12.130      2.06030E-15
  12.480      4.51810E-15
  12.710      7.41160E-15
  12.840      9.86830E-15
  13.050      1.50950E-14
  13.240      2.19730E-14
  13.390      2.93770E-14
  13.660      4.83980E-14
  13.980      8.64080E-14
  14.330      1.56430E-13
  14.720      2.85320E-13
  15.100      5.28930E-13
  15.520      9.80080E-13
  15.880      1.62840E-12
  16.200      2.66300E-12
  16.600      4.49890E-12
  17.030      7.45540E-12
  17.340      1.06610E-11
  17.680      1.58760E-11
  18.020      2.32110E-11
  18.170      2.63550E-11
  18.610      4.28660E-11
  19.100      6.88390E-11
  19.390      9.30430E-11
  19.840      1.40090E-10
  20.180      1.85260E-10
  20.500      2.48910E-10
  21.050      3.91280E-10
  21.620      6.08420E-10
  21.980      8.06590E-10
  22.300      1.00640E-09
  22.680      1.30070E-09
  23.000      1.64470E-07
  23.400      1.50690E-06
  24.000      5.47450E-06
  24.650      1.96750E-05
  25.240      5.68130E-05
  25.680      8.33910E-05
  26.000      9.87470E-05
  26.400      2.17080E-04
  26.850      2.50300E-04
  27.350      2.93880E-04
  27.850      2.42590E-04
  28.400      3.90990E-04
  29.000      5.13770E-04
  29.600      4.47020E-04
  30.100      2.49220E-04
  30.800      3.18260E-04
  31.800      1.83030E-04
  32.800      2.23980E-04
  33.800      1.68080E-04
  34.800      1.79630E-04
  35.700      3.90230E-04
  36.600      6.56680E-04
  37.500      8.02260E-04
  38.500      7.03250E-04
  39.500      1.06270E-03
  40.500      1.43020E-03
  41.400      1.49020E-03
  42.200      1.43260E-03
  43.000      1.40260E-03
  44.100      1.73250E-03
  45.100      1.82450E-03
  46.000      1.70320E-03
  47.000      1.84310E-03
  48.000      2.05520E-03
  49.000      1.87810E-03
  50.000      2.30630E-03
  50.600      2.03950E-03
  51.200      2.39710E-03
  52.000      2.34950E-03
  53.000      2.28360E-03
  54.000      2.02630E-03
  55.000      1.81390E-03
  56.000      2.32100E-03
  57.000      2.55260E-03
  58.000      2.59550E-03
  59.000      2.65620E-03
  60.000      2.50070E-03
  61.000      2.24380E-03
  62.000      2.70670E-03
  63.000      2.54390E-03
  64.000      2.84030E-03
  65.000      2.75710E-03
  65.800      2.60540E-03
  66.500      2.88490E-03
  67.500      2.93790E-03
  68.500      2.76830E-03
  69.500      2.98740E-03
  70.500      2.79840E-03
  71.600      3.02120E-03
  72.600      3.09820E-03
  73.500      3.10320E-03
  74.500      3.05370E-03
  75.500      3.03370E-03
  76.500      2.85780E-03
  77.500      3.06260E-03
  78.500      2.89740E-03
  79.500      3.06740E-03
  80.500      3.13380E-03
  81.500      3.15240E-03
  82.500      3.17830E-03
  83.500      2.99980E-03
  84.500      3.17360E-03
  85.500      3.09820E-03
  86.500      3.20680E-03
  87.500      3.23090E-03
  88.500      3.19770E-03
  89.500      3.20440E-03
  90.500      3.16450E-03
  91.500      2.46270E-03
  92.500      3.85780E-03
  93.500      4.77870E-03
  94.500      5.31500E-03
  95.500      5.90630E-03
  96.500      6.21110E-03
  97.500      5.22450E-03
  98.500      5.92260E-03
  99.500      5.49410E-03
  100.50      5.70780E-03
  101.50      5.77600E-03
  102.50      5.35110E-03
  103.50      6.01630E-03
  104.50      6.10180E-03
  105.50      6.07030E-03
  106.50      5.88590E-03
  107.50      6.00840E-03
  108.50      5.74510E-03
  109.50      5.92830E-03
  110.50      5.87970E-03
  111.50      5.84830E-03
  112.50      5.74930E-03
  113.50      5.85610E-03
  114.50      5.85600E-03
  115.50      5.73940E-03
  116.50      5.58290E-03
  117.50      5.28860E-03
  118.50      5.55140E-03
  119.50      5.42200E-03
  120.50      5.42080E-03
  121.50      4.75480E-03
  122.50      5.33810E-03
  123.50      5.16760E-03
  124.50      5.09910E-03
  125.50      5.23330E-03
  126.50      5.22460E-03
  127.50      5.20190E-03
  128.50      5.17570E-03
  129.50      5.18160E-03
  130.50      5.06630E-03
  131.50      5.04420E-03
  132.50      4.99390E-03
  133.50      4.98050E-03
  134.50      4.95160E-03
  135.50      4.82790E-03
  136.50      4.69130E-03
  137.50      4.58170E-03
  138.50      4.66420E-03
  139.50      4.60060E-03
  140.50      4.46200E-03
  141.50      4.70280E-03
  142.50      4.57760E-03
  143.50      4.64920E-03
  144.20      4.50870E-03
  144.70      4.51890E-03
  145.50      4.46380E-03
  146.50      4.45770E-03
  147.50      4.46640E-03
  148.50      4.50140E-03
  149.50      4.44160E-03
  150.50      4.41940E-03
  151.20      4.42480E-03
  151.70      4.34640E-03
  152.50      4.37970E-03
  153.50      4.24550E-03
  154.50      3.92620E-03
  155.50      3.95120E-03
  156.50      4.14060E-03
  157.50      4.18230E-03
  158.50      4.12470E-03
  159.50      4.12450E-03
  160.50      4.03540E-03
  161.50      4.00210E-03
  162.50      3.98910E-03
  163.50      3.97130E-03
  164.50      3.81250E-03
  165.50      3.97440E-03
  166.50      3.96490E-03
  167.20      3.86540E-03
  167.70      3.96940E-03
  168.50      3.95110E-03
  169.50      3.94060E-03
  170.50      3.88030E-03
  171.50      3.77420E-03
  172.50      3.78250E-03
  173.50      3.84170E-03
  174.50      3.80560E-03
  175.50      3.77100E-03
  176.50      3.75390E-03
  177.50      3.72850E-03
  178.50      3.71650E-03
  179.50      3.67190E-03
  180.50      3.65060E-03
  181.50      3.61970E-03
  182.50      3.60000E-03
  183.50      3.57930E-03
  184.50      3.56140E-03
  185.50      3.53130E-03
  186.50      3.51260E-03
  187.50      3.48320E-03
  188.50      3.45660E-03
  189.50      3.45480E-03
  190.50      3.43210E-03
  191.50      3.40850E-03
  192.50      3.34440E-03
  193.50      3.36500E-03
  194.50      3.34420E-03
  195.50      3.31200E-03
  196.70      3.29190E-03
  197.60      3.26520E-03
  198.40      3.25900E-03
  199.50      3.23040E-03
  200.50      3.21450E-03
  201.50      3.19300E-03
  202.50      3.17250E-03
  203.50      3.14720E-03
  204.50      3.11240E-03
  205.50      2.43570E-03
  206.50      2.37020E-03
  207.40      2.43500E-03
  207.80      2.49940E-03
  208.50      2.68070E-03
  209.50      2.94670E-03
  210.50      2.99130E-03
  211.50      2.99050E-03
  212.50      2.96660E-03
  213.50      2.95080E-03
  214.50      2.93180E-03
  215.50      2.95600E-03
  216.50      2.85040E-03
  217.50      2.93350E-03
  218.50      2.83820E-03
  219.50      2.90020E-03
  220.50      2.88290E-03
  221.50      2.78120E-03
  222.50      2.84770E-03
  223.50      2.83070E-03
  224.50      2.81170E-03
  225.50      2.71920E-03
  226.50      2.77610E-03
  227.50      2.76310E-03
  228.50      2.73760E-03
  229.50      2.70250E-03
  230.50      2.63610E-03
  231.50      2.68380E-03
  232.50      2.67630E-03
  233.50      2.65990E-03
  234.50      2.63940E-03
  235.50      2.62090E-03
  236.50      2.60450E-03
  237.50      2.58500E-03
  238.50      2.49290E-03
  239.50      2.54340E-03
  240.50      2.52600E-03
  241.50      2.51490E-03
  242.50      2.51170E-03
  243.50      2.49280E-03
  244.50      2.47910E-03
  245.50      2.45380E-03
  246.50      2.44730E-03
  247.50      2.43870E-03
  248.50      2.41710E-03
  249.50      2.32850E-03
  250.50      2.38680E-03
  251.30      2.24510E-03
  251.80      2.34890E-03
  252.50      2.34650E-03
  253.50      2.35190E-03
  254.50      2.34050E-03
  255.50      2.32600E-03
  256.50      2.31380E-03
  257.50      2.29860E-03
  258.50      2.28480E-03
  259.50      2.25370E-03
  260.50      2.26050E-03
  261.50      2.23750E-03
  262.50      2.23490E-03
  263.50      2.22240E-03
  264.50      2.20720E-03
  265.50      2.19670E-03
  266.50      2.18370E-03
  267.50      2.16200E-03
  268.50      2.15740E-03
  269.50      2.14230E-03
  270.50      2.13610E-03
  271.50      2.12320E-03
  272.50      2.11110E-03
  273.50      2.04510E-03
  274.50      2.08850E-03
  275.50      2.07530E-03
  276.50      2.06450E-03
  277.50      2.05190E-03
  278.50      2.03710E-03
  279.50      2.02620E-03
  280.50      2.01820E-03
  281.50      2.00710E-03
  282.50      1.99360E-03
  283.50      1.98570E-03
  284.50      1.97570E-03
  285.50      1.96450E-03
  286.50      1.95060E-03
  287.50      1.93880E-03
  288.50      1.93180E-03
  289.50      1.92090E-03
  291.00      1.90640E-03
  293.00      1.88720E-03
  295.00      1.86670E-03
  297.00      1.84550E-03
  299.00      1.82270E-03
  301.00      1.80530E-03
  303.00      1.78190E-03
  305.00      1.76590E-03
  307.00      1.74420E-03
  309.00      1.73290E-03
  311.00      1.71510E-03
  313.00      1.69650E-03
  315.00      1.68200E-03
  317.00      1.66390E-03
  319.00      1.64830E-03
  321.00      1.60770E-03
  323.00      1.61670E-03
  325.00      1.60090E-03
  327.00      1.57780E-03
  329.00      1.56830E-03
  331.00      1.55270E-03
  333.00      1.53770E-03
  335.00      1.51890E-03
  337.00      1.50770E-03
  339.00      1.49170E-03
  341.00      1.47620E-03
  343.00      1.46620E-03
  345.00      1.44950E-03
  347.00      1.43780E-03
  349.00      1.42450E-03
  351.00      1.41280E-03
  353.00      1.39860E-03
  355.00      1.38600E-03
  357.00      1.37320E-03
  359.00      1.36070E-03
  361.00      1.34820E-03
  363.00      1.33500E-03
  364.00      1.30390E-03
  365.00      1.19170E-03
  367.00      1.18250E-03
  369.00      1.17680E-03
  371.00      1.17850E-03
  373.00      1.18850E-03
  375.00      1.20670E-03
  377.00      1.22010E-03
  379.00      1.23490E-03
  381.00      1.24680E-03
  383.00      1.20250E-03
  385.00      1.23940E-03
  387.00      1.24030E-03
  389.00      1.16250E-03
  391.00      1.22290E-03
  393.00      1.20380E-03
  395.00      1.20310E-03
  397.00      1.12000E-03
  399.00      1.18280E-03
  401.00      1.17610E-03
  403.00      1.14890E-03
  405.00      1.15680E-03
  407.00      1.14720E-03
  409.00      1.11800E-03
  411.00      1.06740E-03
  413.00      1.11790E-03
  415.00      1.10970E-03
  417.00      1.10110E-03
  419.00      1.08830E-03
  421.00      1.06910E-03
  423.00      1.07470E-03
  425.00      1.06600E-03
  427.00      1.05740E-03
  429.00      1.04900E-03
  431.00      1.03960E-03
  433.00      1.00880E-03
  435.00      9.75820E-04
  437.00      1.01420E-03
  439.00      1.00570E-03
  441.00      9.98020E-04
  443.00      9.91470E-04
  445.00      9.83310E-04
  447.00      9.73540E-04
  449.00      9.68840E-04
  451.00      9.60660E-04
  453.00      9.52370E-04
  455.00      9.31940E-04
  457.00      9.39380E-04
  459.00      9.32240E-04
  461.00      9.25460E-04
  463.00      9.16720E-04
  465.00      9.05080E-04
  467.00      9.03520E-04
  469.00      8.70160E-04
  471.00      8.91050E-04
  473.00      8.85090E-04
  475.00      8.78570E-04
  477.00      8.72050E-04
  479.00      8.65230E-04
  481.00      8.59310E-04
  483.00      8.52800E-04
  485.00      8.33810E-04
  487.00      7.96180E-04
  489.00      8.33830E-04
  491.00      8.28590E-04
  493.00      8.21860E-04
  495.00      8.16970E-04
  497.00      8.11110E-04
  499.00      8.05490E-04
  501.00      7.99040E-04
  503.00      7.94100E-04
  505.00      7.88350E-04
  507.00      7.82990E-04
  509.00      7.77660E-04
  511.00      7.72260E-04
  513.00      7.66840E-04
  515.00      7.61590E-04
  517.00      7.56470E-04
  519.00      7.51270E-04
  521.00      7.46040E-04
  523.00      7.41110E-04
  525.00      7.35850E-04
  527.00      7.30790E-04
  529.00      7.26210E-04
  531.00      7.21340E-04
  533.00      7.16470E-04
  535.00      7.11760E-04
  537.00      7.07000E-04
  539.00      7.02310E-04
  541.00      6.85990E-04
  543.00      6.93130E-04
  545.00      6.88610E-04
  547.00      6.84030E-04
  549.00      6.79650E-04
  551.00      6.75060E-04
  553.00      6.70890E-04
  555.00      6.66570E-04
  557.00      6.62070E-04
  559.00      6.57160E-04
  561.00      6.53840E-04
  563.00      6.49670E-04
  565.00      6.45540E-04
  567.00      6.41460E-04
  569.00      6.29220E-04
  571.00      5.92660E-04
  573.00      5.89190E-04
  575.00      5.85730E-04
  577.00      5.82540E-04
  579.00      5.79660E-04
  581.00      5.75300E-04
  583.00      5.75700E-04
  585.00      5.74740E-04
  587.00      5.72200E-04
  589.00      5.73620E-04
  591.00      5.73660E-04
  593.00      5.74140E-04
  595.00      5.75210E-04
  597.00      5.76110E-04
  599.00      5.77450E-04
  601.00      5.75480E-04
  603.00      5.73300E-04
  605.00      5.71300E-04
  607.00      5.67250E-04
  609.00      5.64860E-04
  611.00      5.60800E-04
  613.00      5.57530E-04
  615.00      5.55230E-04
  617.00      5.49850E-04
  619.00      5.48580E-04
  621.00      5.45570E-04
  623.00      5.39930E-04
  625.00      5.38710E-04
  627.00      5.36090E-04
  629.00      5.33010E-04
  631.00      5.26480E-04
  633.00      5.26680E-04
  635.00      5.23880E-04
  637.00      5.20890E-04
  639.00      5.17640E-04
  641.00      5.10690E-04
  643.00      5.12050E-04
  645.00      5.09130E-04
  647.00      5.06240E-04
  649.00      5.03450E-04
  651.00      5.00390E-04
  653.00      4.92350E-04
  655.00      4.90370E-04
  657.00      4.63520E-04
  659.00      4.89050E-04
  661.00      4.86880E-04
  663.00      4.84200E-04
  665.00      4.81540E-04
  667.00      4.77630E-04
  669.00      4.70100E-04
  671.00      4.73480E-04
  673.00      4.71070E-04
  675.00      4.68500E-04
  677.00      4.66010E-04
  679.00      4.63510E-04
  681.00      4.61010E-04
  683.00      4.58540E-04
  685.00      4.56080E-04
  687.00      4.53640E-04
  689.00      4.45080E-04
  691.00      4.48650E-04
  693.00      4.46460E-04
  695.00      4.44110E-04
  697.00      4.41770E-04
  699.00      4.39440E-04
  701.00      4.37100E-04
  703.00      4.34720E-04
  705.00      4.32520E-04
  707.00      4.29710E-04
  709.00      4.28110E-04
  711.00      4.25810E-04
  713.00      4.23600E-04
  715.00      4.21510E-04
  717.00      4.15270E-04
  719.00      4.15000E-04
  721.00      4.15070E-04
  723.00      4.12960E-04
  725.00      4.10860E-04
  727.00      4.08780E-04
  729.00      4.06570E-04
  731.00      4.04590E-04
  733.00      4.02620E-04
  735.00      4.00600E-04
  737.00      3.98570E-04
  739.00      3.96530E-04
  741.00      3.94590E-04
  743.00      3.92670E-04
  745.00      3.90620E-04
  747.00      3.88780E-04
  749.00      3.86750E-04
  751.00      3.84920E-04
  753.00      3.83070E-04
  755.00      3.81190E-04
  757.00      3.79320E-04
  759.00      3.71750E-04
  761.00      3.75320E-04
  763.00      3.73820E-04
  765.00      3.71990E-04
  767.00      3.70190E-04
  769.00      3.68320E-04
  771.00      3.66580E-04
  773.00      3.64750E-04
  775.00      3.63150E-04
  777.00      3.61420E-04
  779.00      3.59700E-04
  781.00      3.57990E-04
  783.00      3.56290E-04
  785.00      3.54520E-04
  787.00      3.52900E-04
  789.00      3.51260E-04
  791.00      3.49630E-04
  793.00      3.47990E-04
  795.00      3.46360E-04
  797.00      3.44670E-04
  799.00      3.43140E-04
  801.00      3.41550E-04
  803.00      3.39930E-04
  805.00      3.38400E-04
  807.00      3.36840E-04
  809.00      3.35290E-04
  811.00      3.33750E-04
  813.00      3.32220E-04
  815.00      3.30700E-04
  817.00      3.29110E-04
  819.00      3.26260E-04
  821.00      3.12410E-04
  823.00      3.09160E-04
  825.00      3.09370E-04
  827.00      3.08380E-04
  829.00      3.07070E-04
  831.00      3.05770E-04
  833.00      3.04400E-04
  835.00      3.03190E-04
  837.00      3.01990E-04
  839.00      3.00830E-04
  841.00      2.99780E-04
  843.00      2.98740E-04
  845.00      2.97710E-04
  847.00      2.96750E-04
  849.00      2.95960E-04
  851.00      2.94960E-04
  853.00      2.94340E-04
  855.00      2.93170E-04
  857.00      2.92870E-04
  859.00      2.91640E-04
  861.00      2.90830E-04
  863.00      2.90950E-04
  865.00      2.89910E-04
  867.00      2.87410E-04
  869.00      2.89080E-04
  871.00      2.88870E-04
  873.00      2.87860E-04
  875.00      2.82860E-04
  877.00      2.85900E-04
  879.00      2.86680E-04
  881.00      2.86250E-04
  883.00      2.85390E-04
  885.00      2.81230E-04
  887.00      2.75080E-04
  889.00      2.81260E-04
  891.00      2.81210E-04
  893.00      2.80040E-04
  895.00      2.79530E-04
  897.00      2.78150E-04
  899.00      2.75710E-04
  901.00      2.66110E-04
  903.00      2.69300E-04
  905.00      2.72850E-04
  907.00      2.72540E-04
  909.00      2.71520E-04
  911.00      2.69670E-04
  913.00      2.69310E-04
  915.00      2.68220E-04
  917.00      2.67070E-04
  919.00      2.65620E-04
  921.00      2.62380E-04
  923.00      2.50700E-04
  925.00      2.59610E-04
  927.00      2.61200E-04
  929.00      2.60650E-04
  931.00      2.59590E-04
  933.00      2.58290E-04
  935.00      2.52110E-04
  937.00      2.55120E-04
  939.00      2.55340E-04
  941.00      2.54380E-04
  943.00      2.53380E-04
  945.00      2.52380E-04
  947.00      2.51350E-04
  949.00      2.50350E-04
  951.00      2.48790E-04
  953.00      2.45110E-04
  955.00      2.33780E-04
  957.00      2.44180E-04
  959.00      2.45160E-04
  961.00      2.44490E-04
  963.00      2.43510E-04
  965.00      2.42580E-04
  967.00      2.41640E-04
  969.00      2.40690E-04
  971.00      2.39530E-04
  973.00      2.38800E-04
  975.00      2.37540E-04
  977.00      2.35220E-04
  979.00      2.36060E-04
  981.00      2.35150E-04
  983.00      2.34220E-04
  985.00      2.33350E-04
  987.00      2.32450E-04
  989.00      2.31560E-04
  991.00      2.30670E-04
  993.00      2.29800E-04
  995.00      2.28920E-04
  997.00      2.28050E-04
  999.00      2.27180E-04
  1002.5      2.22700E-04
  1007.5      2.18860E-04
  1012.5      2.17970E-04
  1017.5      2.19410E-04
  1022.5      2.17380E-04
  1027.5      2.15350E-04
  1032.5      2.13330E-04
  1037.5      2.11440E-04
  1042.5      2.08380E-04
  1047.5      2.07620E-04
  1052.5      2.05750E-04
  1057.5      2.03910E-04
  1062.5      2.02080E-04
  1067.5      2.00280E-04
  1072.5      1.98510E-04
  1077.5      1.96760E-04
  1082.5      1.94800E-04
  1087.5      1.93280E-04
  1092.5      1.85790E-04
  1097.5      1.88810E-04
  1102.5      1.88330E-04
  1107.5      1.86720E-04
  1112.5      1.85120E-04
  1117.5      1.83650E-04
  1122.5      1.82090E-04
  1127.5      1.80540E-04
  1132.5      1.79020E-04
  1137.5      1.77520E-04
  1142.5      1.76040E-04
  1147.5      1.74580E-04
  1152.5      1.73130E-04
  1157.5      1.71700E-04
  1162.5      1.68550E-04
  1167.5      1.67650E-04
  1172.5      1.67520E-04
  1177.5      1.66160E-04
  1182.5      1.64810E-04
  1187.5      1.63490E-04
  1192.5      1.62180E-04
  1197.5      1.60800E-04
  1202.5      1.59600E-04
  1207.5      1.58330E-04
  1212.5      1.57070E-04
  1217.5      1.55850E-04
  1222.5      1.54620E-04
  1227.5      1.53420E-04
  1232.5      1.52220E-04
  1237.5      1.51040E-04
  1242.5      1.49880E-04
  1247.5      1.48720E-04
  1252.5      1.47580E-04
  1257.5      1.46460E-04
  1262.5      1.45340E-04
  1267.5      1.44240E-04
  1272.5      1.43150E-04
  1277.5      1.41650E-04
  1282.5      1.36110E-04
  1287.5      1.39800E-04
  1292.5      1.38920E-04
  1297.5      1.37880E-04
  1302.5      1.36870E-04
  1307.5      1.35870E-04
  1312.5      1.34870E-04
  1317.5      1.33880E-04
  1322.5      1.32910E-04
  1327.5      1.31950E-04
  1332.5      1.30990E-04
  1337.5      1.30050E-04
  1342.5      1.29110E-04
  1347.5      1.28190E-04
  1352.5      1.27280E-04
  1357.5      1.26380E-04
  1362.5      1.25480E-04
  1367.5      1.24600E-04
  1372.5      1.23720E-04
  1377.5      1.22850E-04
  1382.5      1.22000E-04
  1387.5      1.21150E-04
  1392.5      1.20310E-04
  1397.5      1.19480E-04
