 Castelli and Kurucz 2004-2012 Atmosphere
 T     35000.     G    4.00000 [-0.5] N(He)/Ntot=0.0784 VTURB=2.0  L/H=1.25 NOV
 Wavelength  Eddington Hnu
   (nm)    (ergs/s/cm2/Hz/sr)
  9.0900      2.00840E-29
  9.3500      9.74360E-29
  9.6100      4.35160E-28
  9.7700      1.05600E-27
  9.9600      2.91590E-27
  10.200      9.99530E-27
  10.380      2.43360E-26
  10.560      5.75830E-26
  10.770      1.51990E-25
  11.040      5.03130E-25
  11.400      2.28600E-24
  11.780      1.03170E-23
  12.130      3.82890E-23
  12.480      1.32800E-22
  12.710      2.90680E-22
  12.840      4.47500E-22
  13.050      8.83540E-22
  13.240      1.60840E-21
  13.390      2.55330E-21
  13.660      5.73590E-21
  13.980      1.44510E-20
  14.330      3.80350E-20
  14.720      1.06240E-19
  15.100      2.77440E-19
  15.520      7.59910E-19
  15.880      1.73480E-18
  16.200      3.51320E-18
  16.600      8.21360E-18
  17.030      1.96150E-17
  17.340      3.58790E-17
  17.680      6.80680E-17
  18.020      1.26180E-16
  18.170      1.64680E-16
  18.610      3.51120E-16
  19.100      7.85300E-16
  19.390      1.24260E-15
  19.840      2.47080E-15
  20.180      4.07200E-15
  20.500      6.42630E-15
  21.050      1.36660E-14
  21.620      2.87030E-14
  21.980      4.51430E-14
  22.300      6.66190E-14
  22.680      1.04040E-13
  23.000      1.61180E-10
  23.400      5.41770E-10
  24.000      8.52950E-10
  24.650      1.39190E-09
  25.240      2.29500E-09
  25.680      2.72650E-09
  26.000      4.68810E-09
  26.400      1.11020E-08
  26.850      1.70460E-08
  27.350      2.15430E-08
  27.850      2.22620E-08
  28.400      4.48280E-08
  29.000      6.10260E-08
  29.600      6.70680E-08
  30.100      9.38070E-08
  30.800      3.52860E-07
  31.800      8.63250E-07
  32.800      1.36870E-06
  33.800      1.90630E-06
  34.800      2.59900E-06
  35.700      4.98940E-06
  36.600      8.77010E-06
  37.500      1.02160E-05
  38.500      1.10930E-05
  39.500      1.59670E-05
  40.500      2.00680E-05
  41.400      2.14310E-05
  42.200      2.26280E-05
  43.000      2.27750E-05
  44.100      2.74290E-05
  45.100      2.99110E-05
  46.000      2.97560E-05
  47.000      3.27490E-05
  48.000      3.79160E-05
  49.000      3.71670E-05
  50.000      4.56430E-05
  50.600      7.56080E-05
  51.200      2.40110E-04
  52.000      2.30450E-04
  53.000      2.15490E-04
  54.000      2.03000E-04
  55.000      2.15960E-04
  56.000      2.86100E-04
  57.000      3.12980E-04
  58.000      3.04180E-04
  59.000      3.23800E-04
  60.000      2.81970E-04
  61.000      3.18480E-04
  62.000      3.88810E-04
  63.000      3.87110E-04
  64.000      4.15620E-04
  65.000      4.14180E-04
  65.800      3.76110E-04
  66.500      4.28910E-04
  67.500      4.75630E-04
  68.500      4.13810E-04
  69.500      4.93130E-04
  70.500      4.32870E-04
  71.600      5.39460E-04
  72.600      5.48210E-04
  73.500      5.67690E-04
  74.500      5.49370E-04
  75.500      5.59070E-04
  76.500      5.56790E-04
  77.500      5.88640E-04
  78.500      5.94260E-04
  79.500      6.21760E-04
  80.500      6.21880E-04
  81.500      6.36740E-04
  82.500      6.62130E-04
  83.500      5.88690E-04
  84.500      6.70830E-04
  85.500      6.75390E-04
  86.500      7.02770E-04
  87.500      7.13990E-04
  88.500      7.24590E-04
  89.500      7.36150E-04
  90.500      7.32790E-04
  91.500      7.14840E-04
  92.500      1.53730E-03
  93.500      2.14130E-03
  94.500      2.52960E-03
  95.500      2.74710E-03
  96.500      3.01830E-03
  97.500      2.10240E-03
  98.500      2.78590E-03
  99.500      2.62410E-03
  100.50      2.68620E-03
  101.50      2.80240E-03
  102.50      2.47950E-03
  103.50      2.85350E-03
  104.50      3.02440E-03
  105.50      2.99750E-03
  106.50      2.86470E-03
  107.50      2.90350E-03
  108.50      2.78640E-03
  109.50      2.92090E-03
  110.50      2.86530E-03
  111.50      2.85630E-03
  112.50      2.68040E-03
  113.50      2.86370E-03
  114.50      2.84730E-03
  115.50      2.75960E-03
  116.50      2.73240E-03
  117.50      2.25290E-03
  118.50      2.61210E-03
  119.50      2.59960E-03
  120.50      2.57170E-03
  121.50      2.20440E-03
  122.50      2.53140E-03
  123.50      2.63540E-03
  124.50      2.60400E-03
  125.50      2.62390E-03
  126.50      2.67400E-03
  127.50      2.70470E-03
  128.50      2.71540E-03
  129.50      2.65540E-03
  130.50      2.64560E-03
  131.50      2.70330E-03
  132.50      2.67190E-03
  133.50      2.64550E-03
  134.50      2.67520E-03
  135.50      2.61930E-03
  136.50      2.58680E-03
  137.50      2.55850E-03
  138.50      2.54870E-03
  139.50      2.39690E-03
  140.50      2.36790E-03
  141.50      2.52650E-03
  142.50      2.37450E-03
  143.50      2.47260E-03
  144.20      2.45820E-03
  144.70      2.45570E-03
  145.50      2.40080E-03
  146.50      2.41130E-03
  147.50      2.40890E-03
  148.50      2.43350E-03
  149.50      2.39200E-03
  150.50      2.41060E-03
  151.20      2.40670E-03
  151.70      2.39470E-03
  152.50      2.36260E-03
  153.50      2.21080E-03
  154.50      1.97260E-03
  155.50      2.00700E-03
  156.50      2.14760E-03
  157.50      2.22520E-03
  158.50      2.23920E-03
  159.50      2.23480E-03
  160.50      2.13540E-03
  161.50      2.09750E-03
  162.50      2.12470E-03
  163.50      2.13390E-03
  164.50      2.09290E-03
  165.50      2.17830E-03
  166.50      2.15920E-03
  167.20      2.06080E-03
  167.70      2.24320E-03
  168.50      2.19870E-03
  169.50      2.18000E-03
  170.50      2.15900E-03
  171.50      2.11150E-03
  172.50      2.08990E-03
  173.50      2.15480E-03
  174.50      2.14390E-03
  175.50      2.11550E-03
  176.50      2.12100E-03
  177.50      2.10580E-03
  178.50      2.11500E-03
  179.50      2.08290E-03
  180.50      2.08670E-03
  181.50      2.07140E-03
  182.50      2.05400E-03
  183.50      2.06810E-03
  184.50      2.04370E-03
  185.50      2.03690E-03
  186.50      2.02950E-03
  187.50      2.00710E-03
  188.50      1.98760E-03
  189.50      1.99760E-03
  190.50      2.00610E-03
  191.50      1.98810E-03
  192.50      1.92810E-03
  193.50      1.97470E-03
  194.50      1.97520E-03
  195.50      1.91740E-03
  196.70      1.94380E-03
  197.60      1.94250E-03
  198.40      1.93240E-03
  199.50      1.90810E-03
  200.50      1.92210E-03
  201.50      1.91350E-03
  202.50      1.90220E-03
  203.50      1.88780E-03
  204.50      1.87290E-03
  205.50      1.49660E-03
  206.50      1.46120E-03
  207.40      1.51910E-03
  207.80      1.55130E-03
  208.50      1.68470E-03
  209.50      1.80160E-03
  210.50      1.80890E-03
  211.50      1.82050E-03
  212.50      1.80170E-03
  213.50      1.80070E-03
  214.50      1.79190E-03
  215.50      1.80600E-03
  216.50      1.74750E-03
  217.50      1.79210E-03
  218.50      1.74650E-03
  219.50      1.77780E-03
  220.50      1.76780E-03
  221.50      1.71920E-03
  222.50      1.74670E-03
  223.50      1.73810E-03
  224.50      1.72610E-03
  225.50      1.68440E-03
  226.50      1.70930E-03
  227.50      1.70210E-03
  228.50      1.68470E-03
  229.50      1.62570E-03
  230.50      1.63790E-03
  231.50      1.65760E-03
  232.50      1.65390E-03
  233.50      1.64500E-03
  234.50      1.63410E-03
  235.50      1.62340E-03
  236.50      1.61370E-03
  237.50      1.60160E-03
  238.50      1.55240E-03
  239.50      1.57440E-03
  240.50      1.57570E-03
  241.50      1.56790E-03
  242.50      1.56440E-03
  243.50      1.55370E-03
  244.50      1.54600E-03
  245.50      1.53480E-03
  246.50      1.52910E-03
  247.50      1.52280E-03
  248.50      1.50750E-03
  249.50      1.33470E-03
  250.50      1.48640E-03
  251.30      1.42070E-03
  251.80      1.46220E-03
  252.50      1.47850E-03
  253.50      1.47560E-03
  254.50      1.46740E-03
  255.50      1.45860E-03
  256.50      1.45230E-03
  257.50      1.44430E-03
  258.50      1.43710E-03
  259.50      1.42360E-03
  260.50      1.42390E-03
  261.50      1.41280E-03
  262.50      1.40890E-03
  263.50      1.40240E-03
  264.50      1.39340E-03
  265.50      1.38730E-03
  266.50      1.37800E-03
  267.50      1.36400E-03
  268.50      1.36510E-03
  269.50      1.35500E-03
  270.50      1.35270E-03
  271.50      1.34350E-03
  272.50      1.33600E-03
  273.50      1.30570E-03
  274.50      1.32620E-03
  275.50      1.31890E-03
  276.50      1.30900E-03
  277.50      1.30640E-03
  278.50      1.29790E-03
  279.50      1.28360E-03
  280.50      1.28420E-03
  281.50      1.27990E-03
  282.50      1.27050E-03
  283.50      1.26560E-03
  284.50      1.26210E-03
  285.50      1.25550E-03
  286.50      1.24770E-03
  287.50      1.24240E-03
  288.50      1.23640E-03
  289.50      1.23030E-03
  291.00      1.22000E-03
  293.00      1.20990E-03
  295.00      1.19530E-03
  297.00      1.18460E-03
  299.00      1.16990E-03
  301.00      1.15960E-03
  303.00      1.14520E-03
  305.00      1.13690E-03
  307.00      1.12820E-03
  309.00      1.11680E-03
  311.00      1.10760E-03
  313.00      1.09700E-03
  315.00      1.08760E-03
  317.00      1.07710E-03
  319.00      1.06590E-03
  321.00      1.04730E-03
  323.00      1.04910E-03
  325.00      1.04030E-03
  327.00      1.02560E-03
  329.00      1.02020E-03
  331.00      1.01070E-03
  333.00      1.00160E-03
  335.00      9.89740E-04
  337.00      9.83300E-04
  339.00      9.76180E-04
  341.00      9.67240E-04
  343.00      9.58510E-04
  345.00      9.47350E-04
  347.00      9.41710E-04
  349.00      9.34230E-04
  351.00      9.26700E-04
  353.00      9.18120E-04
  355.00      9.10030E-04
  357.00      9.03970E-04
  359.00      8.94060E-04
  361.00      8.86300E-04
  363.00      8.78280E-04
  364.00      8.66540E-04
  365.00      8.13080E-04
  367.00      8.07750E-04
  369.00      8.03080E-04
  371.00      7.98480E-04
  373.00      7.98430E-04
  375.00      8.12950E-04
  377.00      8.16210E-04
  379.00      8.31240E-04
  381.00      8.47130E-04
  383.00      8.00970E-04
  385.00      8.48540E-04
  387.00      8.45300E-04
  389.00      7.81170E-04
  391.00      8.39370E-04
  393.00      8.25970E-04
  395.00      8.23860E-04
  397.00      7.52630E-04
  399.00      8.12600E-04
  401.00      8.05580E-04
  403.00      7.86600E-04
  405.00      7.95740E-04
  407.00      7.85940E-04
  409.00      7.64150E-04
  411.00      7.21600E-04
  413.00      7.66640E-04
  415.00      7.61220E-04
  417.00      7.58560E-04
  419.00      7.51360E-04
  421.00      7.40680E-04
  423.00      7.42210E-04
  425.00      7.35530E-04
  427.00      7.29330E-04
  429.00      7.24370E-04
  431.00      7.17320E-04
  433.00      6.94920E-04
  435.00      6.64150E-04
  437.00      7.01710E-04
  439.00      6.91770E-04
  441.00      6.90480E-04
  443.00      6.86850E-04
  445.00      6.81880E-04
  447.00      6.68480E-04
  449.00      6.71820E-04
  451.00      6.65290E-04
  453.00      6.61170E-04
  455.00      6.50110E-04
  457.00      6.52740E-04
  459.00      6.47160E-04
  461.00      6.42930E-04
  463.00      6.36190E-04
  465.00      6.21190E-04
  467.00      6.27800E-04
  469.00      6.09830E-04
  471.00      6.16930E-04
  473.00      6.17050E-04
  475.00      6.12630E-04
  477.00      6.08420E-04
  479.00      6.04170E-04
  481.00      5.99810E-04
  483.00      5.95320E-04
  485.00      5.80870E-04
  487.00      5.47350E-04
  489.00      5.82540E-04
  491.00      5.78990E-04
  493.00      5.70570E-04
  495.00      5.70940E-04
  497.00      5.67610E-04
  499.00      5.63800E-04
  501.00      5.56690E-04
  503.00      5.55850E-04
  505.00      5.51270E-04
  507.00      5.48700E-04
  509.00      5.45050E-04
  511.00      5.41430E-04
  513.00      5.37780E-04
  515.00      5.34170E-04
  517.00      5.30630E-04
  519.00      5.27200E-04
  521.00      5.23770E-04
  523.00      5.20380E-04
  525.00      5.16590E-04
  527.00      5.13180E-04
  529.00      5.10270E-04
  531.00      5.06960E-04
  533.00      5.03680E-04
  535.00      5.00480E-04
  537.00      4.97280E-04
  539.00      4.94060E-04
  541.00      4.85500E-04
  543.00      4.87840E-04
  545.00      4.84760E-04
  547.00      4.81660E-04
  549.00      4.78650E-04
  551.00      4.75500E-04
  553.00      4.72680E-04
  555.00      4.69740E-04
  557.00      4.66730E-04
  559.00      4.63180E-04
  561.00      4.61060E-04
  563.00      4.58210E-04
  565.00      4.55390E-04
  567.00      4.52540E-04
  569.00      4.45130E-04
  571.00      4.29570E-04
  573.00      4.27140E-04
  575.00      4.24630E-04
  577.00      4.22370E-04
  579.00      4.20140E-04
  581.00      4.17730E-04
  583.00      4.16510E-04
  585.00      4.15700E-04
  587.00      4.09210E-04
  589.00      4.13600E-04
  591.00      4.12940E-04
  593.00      4.12330E-04
  595.00      4.11990E-04
  597.00      4.11520E-04
  599.00      4.10680E-04
  601.00      4.09120E-04
  603.00      4.06610E-04
  605.00      4.04370E-04
  607.00      4.01930E-04
  609.00      3.99850E-04
  611.00      3.97260E-04
  613.00      3.95000E-04
  615.00      3.92930E-04
  617.00      3.90010E-04
  619.00      3.88550E-04
  621.00      3.86340E-04
  623.00      3.83310E-04
  625.00      3.81900E-04
  627.00      3.79820E-04
  629.00      3.77690E-04
  631.00      3.74470E-04
  633.00      3.73470E-04
  635.00      3.71360E-04
  637.00      3.69320E-04
  639.00      3.67270E-04
  641.00      3.63920E-04
  643.00      3.63230E-04
  645.00      3.61150E-04
  647.00      3.59110E-04
  649.00      3.57210E-04
  651.00      3.55280E-04
  653.00      3.51330E-04
  655.00      3.47740E-04
  657.00      3.24570E-04
  659.00      3.47100E-04
  661.00      3.45780E-04
  663.00      3.43950E-04
  665.00      3.42130E-04
  667.00      3.38250E-04
  669.00      3.34870E-04
  671.00      3.36370E-04
  673.00      3.34700E-04
  675.00      3.32940E-04
  677.00      3.31350E-04
  679.00      3.29620E-04
  681.00      3.27920E-04
  683.00      3.26200E-04
  685.00      3.24490E-04
  687.00      3.22750E-04
  689.00      3.19050E-04
  691.00      3.19350E-04
  693.00      3.17800E-04
  695.00      3.16160E-04
  697.00      3.14540E-04
  699.00      3.12920E-04
  701.00      3.11250E-04
  703.00      3.09440E-04
  705.00      3.08040E-04
  707.00      3.03910E-04
  709.00      3.05020E-04
  711.00      3.03460E-04
  713.00      3.01930E-04
  715.00      3.00430E-04
  717.00      2.97480E-04
  719.00      2.96810E-04
  721.00      2.95930E-04
  723.00      2.94310E-04
  725.00      2.92960E-04
  727.00      2.91540E-04
  729.00      2.88910E-04
  731.00      2.88600E-04
  733.00      2.87230E-04
  735.00      2.85820E-04
  737.00      2.84410E-04
  739.00      2.83030E-04
  741.00      2.81630E-04
  743.00      2.80280E-04
  745.00      2.78870E-04
  747.00      2.77550E-04
  749.00      2.75960E-04
  751.00      2.74840E-04
  753.00      2.73570E-04
  755.00      2.72260E-04
  757.00      2.70930E-04
  759.00      2.67640E-04
  761.00      2.68260E-04
  763.00      2.67070E-04
  765.00      2.65800E-04
  767.00      2.64570E-04
  769.00      2.63160E-04
  771.00      2.62010E-04
  773.00      2.60640E-04
  775.00      2.59620E-04
  777.00      2.58410E-04
  779.00      2.57200E-04
  781.00      2.55960E-04
  783.00      2.54810E-04
  785.00      2.53660E-04
  787.00      2.52460E-04
  789.00      2.51300E-04
  791.00      2.50210E-04
  793.00      2.49060E-04
  795.00      2.47920E-04
  797.00      2.46710E-04
  799.00      2.45660E-04
  801.00      2.44540E-04
  803.00      2.43360E-04
  805.00      2.42320E-04
  807.00      2.41230E-04
  809.00      2.40030E-04
  811.00      2.38880E-04
  813.00      2.37980E-04
  815.00      2.36750E-04
  817.00      2.35800E-04
  819.00      2.34170E-04
  821.00      2.28600E-04
  823.00      2.26760E-04
  825.00      2.26680E-04
  827.00      2.25530E-04
  829.00      2.24850E-04
  831.00      2.23940E-04
  833.00      2.22810E-04
  835.00      2.21580E-04
  837.00      2.20960E-04
  839.00      2.20180E-04
  841.00      2.19330E-04
  843.00      2.18460E-04
  845.00      2.17240E-04
  847.00      2.16770E-04
  849.00      2.16000E-04
  851.00      2.14720E-04
  853.00      2.14580E-04
  855.00      2.12830E-04
  857.00      2.13840E-04
  859.00      2.10820E-04
  861.00      2.10480E-04
  863.00      2.12330E-04
  865.00      2.10230E-04
  867.00      2.05000E-04
  869.00      2.10400E-04
  871.00      2.10590E-04
  873.00      2.08380E-04
  875.00      1.99360E-04
  877.00      2.05910E-04
  879.00      2.08220E-04
  881.00      2.07640E-04
  883.00      2.06630E-04
  885.00      2.01120E-04
  887.00      1.93180E-04
  889.00      2.03350E-04
  891.00      2.03690E-04
  893.00      2.02830E-04
  895.00      2.02240E-04
  897.00      2.01380E-04
  899.00      1.98880E-04
  901.00      1.87500E-04
  903.00      1.92680E-04
  905.00      1.97510E-04
  907.00      1.96540E-04
  909.00      1.96400E-04
  911.00      1.95700E-04
  913.00      1.95080E-04
  915.00      1.94310E-04
  917.00      1.93320E-04
  919.00      1.92420E-04
  921.00      1.88630E-04
  923.00      1.76310E-04
  925.00      1.87340E-04
  927.00      1.89240E-04
  929.00      1.88860E-04
  931.00      1.87820E-04
  933.00      1.87340E-04
  935.00      1.84570E-04
  937.00      1.85540E-04
  939.00      1.85160E-04
  941.00      1.84370E-04
  943.00      1.83680E-04
  945.00      1.82970E-04
  947.00      1.81860E-04
  949.00      1.81510E-04
  951.00      1.79630E-04
  953.00      1.76210E-04
  955.00      1.65050E-04
  957.00      1.76650E-04
  959.00      1.77740E-04
  961.00      1.77140E-04
  963.00      1.76260E-04
  965.00      1.75970E-04
  967.00      1.75290E-04
  969.00      1.74570E-04
  971.00      1.72630E-04
  973.00      1.73140E-04
  975.00      1.72580E-04
  977.00      1.71520E-04
  979.00      1.71290E-04
  981.00      1.70640E-04
  983.00      1.69980E-04
  985.00      1.69340E-04
  987.00      1.68700E-04
  989.00      1.68050E-04
  991.00      1.67350E-04
  993.00      1.66800E-04
  995.00      1.66170E-04
  997.00      1.65550E-04
  999.00      1.64930E-04
  1002.5      1.60630E-04
  1007.5      1.57660E-04
  1012.5      1.59170E-04
  1017.5      1.59350E-04
  1022.5      1.57860E-04
  1027.5      1.56440E-04
  1032.5      1.54700E-04
  1037.5      1.53630E-04
  1042.5      1.51990E-04
  1047.5      1.50880E-04
  1052.5      1.49540E-04
  1057.5      1.48210E-04
  1062.5      1.46900E-04
  1067.5      1.45510E-04
  1072.5      1.44330E-04
  1077.5      1.43070E-04
  1082.5      1.40970E-04
  1087.5      1.40540E-04
  1092.5      1.33410E-04
  1097.5      1.37010E-04
  1102.5      1.36730E-04
  1107.5      1.35830E-04
  1112.5      1.34690E-04
  1117.5      1.33580E-04
  1122.5      1.32430E-04
  1127.5      1.31350E-04
  1132.5      1.30240E-04
  1137.5      1.29170E-04
  1142.5      1.28100E-04
  1147.5      1.27050E-04
  1152.5      1.26010E-04
  1157.5      1.24980E-04
  1162.5      1.23370E-04
  1167.5      1.22630E-04
  1172.5      1.21970E-04
  1177.5      1.20990E-04
  1182.5      1.20010E-04
  1187.5      1.19060E-04
  1192.5      1.18110E-04
  1197.5      1.16590E-04
  1202.5      1.16260E-04
  1207.5      1.15340E-04
  1212.5      1.14430E-04
  1217.5      1.13550E-04
  1222.5      1.12670E-04
  1227.5      1.11800E-04
  1232.5      1.10940E-04
  1237.5      1.10080E-04
  1242.5      1.09240E-04
  1247.5      1.08410E-04
  1252.5      1.07490E-04
  1257.5      1.06770E-04
  1262.5      1.05970E-04
  1267.5      1.05180E-04
  1272.5      1.04390E-04
  1277.5      1.02750E-04
  1282.5      9.83520E-05
  1287.5      1.01900E-04
  1292.5      1.01330E-04
  1297.5      1.00300E-04
  1302.5      9.98430E-05
  1307.5      9.91230E-05
  1312.5      9.84030E-05
  1317.5      9.76900E-05
  1322.5      9.69860E-05
  1327.5      9.62890E-05
  1332.5      9.55990E-05
  1337.5      9.49160E-05
  1342.5      9.42060E-05
  1347.5      9.35730E-05
  1352.5      9.29100E-05
  1357.5      9.22600E-05
  1362.5      9.16090E-05
  1367.5      9.09720E-05
  1372.5      9.03290E-05
  1377.5      8.97120E-05
  1382.5      8.90920E-05
  1387.5      8.84770E-05
  1392.5      8.78650E-05
  1397.5      8.72680E-05
