 Castelli and Kurucz 2004-2012 Atmosphere
 T     49000.     G    5.00000 [-0.5] N(He)/Ntot=0.0784 VTURB=2.0  L/H=1.25 NOV
 Wavelength  Eddington Hnu
   (nm)    (ergs/s/cm2/Hz/sr)
  9.0900      2.08510E-18
  9.3500      5.55480E-18
  9.6100      1.38190E-17
  9.7700      2.41550E-17
  9.9600      4.50910E-17
  10.200      9.59650E-17
  10.380      1.65390E-16
  10.560      2.79800E-16
  10.770      5.05390E-16
  11.040      1.04610E-15
  11.400      2.61480E-15
  11.780      6.46440E-15
  12.130      1.42380E-14
  12.480      2.98590E-14
  12.710      4.76400E-14
  12.840      6.23550E-14
  13.050      9.30170E-14
  13.240      1.32550E-13
  13.390      1.74230E-13
  13.660      2.78980E-13
  13.980      4.81430E-13
  14.330      8.42620E-13
  14.720      1.48340E-12
  15.100      2.65250E-12
  15.520      4.74280E-12
  15.880      7.65330E-12
  16.200      1.20840E-11
  16.600      1.97940E-11
  17.030      3.18370E-11
  17.340      4.46000E-11
  17.680      6.48440E-11
  18.020      9.27140E-11
  18.170      1.04450E-10
  18.610      1.64980E-10
  19.100      2.57190E-10
  19.390      3.41690E-10
  19.840      5.01560E-10
  20.180      6.54160E-10
  20.500      8.61710E-10
  21.050      1.31800E-09
  21.620      1.99660E-09
  21.980      2.60120E-09
  22.300      3.20300E-09
  22.680      4.07620E-09
  23.000      2.87000E-07
  23.400      2.45740E-06
  24.000      1.00500E-05
  24.650      3.63060E-05
  25.240      1.03150E-04
  25.680      1.47320E-04
  26.000      1.71600E-04
  26.400      3.70430E-04
  26.850      4.27910E-04
  27.350      4.99130E-04
  27.850      4.23350E-04
  28.400      6.50330E-04
  29.000      8.13770E-04
  29.600      7.15000E-04
  30.100      4.16970E-04
  30.800      5.16040E-04
  31.800      2.99580E-04
  32.800      3.66180E-04
  33.800      2.71180E-04
  34.800      2.82630E-04
  35.700      5.95520E-04
  36.600      9.50790E-04
  37.500      1.14160E-03
  38.500      1.02380E-03
  39.500      1.46470E-03
  40.500      1.89720E-03
  41.400      1.94760E-03
  42.200      1.87240E-03
  43.000      1.82100E-03
  44.100      2.18420E-03
  45.100      2.29380E-03
  46.000      2.12950E-03
  47.000      2.28430E-03
  48.000      2.50400E-03
  49.000      2.30190E-03
  50.000      2.72870E-03
  50.600      2.45190E-03
  51.200      2.86390E-03
  52.000      2.80140E-03
  53.000      2.72920E-03
  54.000      2.44750E-03
  55.000      2.24120E-03
  56.000      2.80020E-03
  57.000      2.99130E-03
  58.000      3.01740E-03
  59.000      3.08020E-03
  60.000      2.92450E-03
  61.000      2.69320E-03
  62.000      3.13710E-03
  63.000      2.99310E-03
  64.000      3.25690E-03
  65.000      3.16320E-03
  65.800      3.00390E-03
  66.500      3.28190E-03
  67.500      3.34010E-03
  68.500      3.15750E-03
  69.500      3.38170E-03
  70.500      3.18660E-03
  71.600      3.41480E-03
  72.600      3.48760E-03
  73.500      3.49350E-03
  74.500      3.44070E-03
  75.500      3.41630E-03
  76.500      3.26280E-03
  77.500      3.43740E-03
  78.500      3.30780E-03
  79.500      3.44230E-03
  80.500      3.50050E-03
  81.500      3.51910E-03
  82.500      3.54420E-03
  83.500      3.35700E-03
  84.500      3.53550E-03
  85.500      3.46220E-03
  86.500      3.56300E-03
  87.500      3.58300E-03
  88.500      3.54870E-03
  89.500      3.55600E-03
  90.500      3.51180E-03
  91.500      2.65690E-03
  92.500      4.05880E-03
  93.500      5.11830E-03
  94.500      5.99520E-03
  95.500      6.74550E-03
  96.500      7.40840E-03
  97.500      5.91910E-03
  98.500      7.07990E-03
  99.500      6.49220E-03
  100.50      6.83130E-03
  101.50      6.88940E-03
  102.50      6.00930E-03
  103.50      7.12640E-03
  104.50      7.26570E-03
  105.50      7.21820E-03
  106.50      6.93400E-03
  107.50      7.10550E-03
  108.50      6.64350E-03
  109.50      6.99330E-03
  110.50      6.89870E-03
  111.50      6.86710E-03
  112.50      6.72510E-03
  113.50      6.84500E-03
  114.50      6.83540E-03
  115.50      6.67790E-03
  116.50      6.44510E-03
  117.50      6.11100E-03
  118.50      6.41130E-03
  119.50      6.25930E-03
  120.50      6.23160E-03
  121.50      5.21410E-03
  122.50      6.10860E-03
  123.50      5.94230E-03
  124.50      5.86740E-03
  125.50      6.01590E-03
  126.50      6.00090E-03
  127.50      5.96920E-03
  128.50      5.93710E-03
  129.50      5.92550E-03
  130.50      5.79690E-03
  131.50      5.76770E-03
  132.50      5.70410E-03
  133.50      5.68740E-03
  134.50      5.64090E-03
  135.50      5.50290E-03
  136.50      5.34850E-03
  137.50      5.22220E-03
  138.50      5.29500E-03
  139.50      5.21650E-03
  140.50      5.06440E-03
  141.50      5.31170E-03
  142.50      5.15980E-03
  143.50      5.23950E-03
  144.20      5.08520E-03
  144.70      5.08980E-03
  145.50      5.02650E-03
  146.50      5.01370E-03
  147.50      5.01260E-03
  148.50      5.05120E-03
  149.50      4.98240E-03
  150.50      4.95660E-03
  151.20      4.95660E-03
  151.70      4.87350E-03
  152.50      4.89700E-03
  153.50      4.73830E-03
  154.50      4.38020E-03
  155.50      4.40940E-03
  156.50      4.60730E-03
  157.50      4.64270E-03
  158.50      4.57950E-03
  159.50      4.57590E-03
  160.50      4.47300E-03
  161.50      4.42710E-03
  162.50      4.41220E-03
  163.50      4.36680E-03
  164.50      4.18970E-03
  165.50      4.38990E-03
  166.50      4.37690E-03
  167.20      4.26630E-03
  167.70      4.37780E-03
  168.50      4.35390E-03
  169.50      4.33690E-03
  170.50      4.27190E-03
  171.50      4.15560E-03
  172.50      4.15430E-03
  173.50      4.21540E-03
  174.50      4.17520E-03
  175.50      4.13390E-03
  176.50      4.11190E-03
  177.50      4.08060E-03
  178.50      4.06860E-03
  179.50      4.01760E-03
  180.50      3.99080E-03
  181.50      3.95910E-03
  182.50      3.93160E-03
  183.50      3.90840E-03
  184.50      3.88450E-03
  185.50      3.85140E-03
  186.50      3.82870E-03
  187.50      3.79380E-03
  188.50      3.76120E-03
  189.50      3.75930E-03
  190.50      3.73230E-03
  191.50      3.70440E-03
  192.50      3.62880E-03
  193.50      3.65470E-03
  194.50      3.63140E-03
  195.50      3.59320E-03
  196.70      3.57100E-03
  197.60      3.54140E-03
  198.40      3.53230E-03
  199.50      3.50050E-03
  200.50      3.48130E-03
  201.50      3.45660E-03
  202.50      3.43270E-03
  203.50      3.40460E-03
  204.50      3.36760E-03
  205.50      2.59310E-03
  206.50      2.50330E-03
  207.40      2.54560E-03
  207.80      2.59670E-03
  208.50      2.73700E-03
  209.50      3.03230E-03
  210.50      3.20610E-03
  211.50      3.22540E-03
  212.50      3.19770E-03
  213.50      3.17790E-03
  214.50      3.15790E-03
  215.50      3.18280E-03
  216.50      3.05480E-03
  217.50      3.16560E-03
  218.50      3.03590E-03
  219.50      3.12840E-03
  220.50      3.11260E-03
  221.50      2.96740E-03
  222.50      3.07270E-03
  223.50      3.05640E-03
  224.50      3.03010E-03
  225.50      2.89710E-03
  226.50      2.99330E-03
  227.50      2.97920E-03
  228.50      2.94990E-03
  229.50      2.91050E-03
  230.50      2.80610E-03
  231.50      2.88630E-03
  232.50      2.88090E-03
  233.50      2.86280E-03
  234.50      2.84020E-03
  235.50      2.81900E-03
  236.50      2.80010E-03
  237.50      2.77660E-03
  238.50      2.64960E-03
  239.50      2.72920E-03
  240.50      2.71270E-03
  241.50      2.70080E-03
  242.50      2.69710E-03
  243.50      2.67620E-03
  244.50      2.66050E-03
  245.50      2.63260E-03
  246.50      2.62590E-03
  247.50      2.61490E-03
  248.50      2.59250E-03
  249.50      2.49840E-03
  250.50      2.54900E-03
  251.30      2.36400E-03
  251.80      2.50960E-03
  252.50      2.51120E-03
  253.50      2.51760E-03
  254.50      2.50440E-03
  255.50      2.48800E-03
  256.50      2.47450E-03
  257.50      2.45800E-03
  258.50      2.44280E-03
  259.50      2.40900E-03
  260.50      2.41520E-03
  261.50      2.39060E-03
  262.50      2.38700E-03
  263.50      2.37300E-03
  264.50      2.35620E-03
  265.50      2.34470E-03
  266.50      2.33000E-03
  267.50      2.30610E-03
  268.50      2.30070E-03
  269.50      2.28430E-03
  270.50      2.27750E-03
  271.50      2.26290E-03
  272.50      2.24820E-03
  273.50      2.16080E-03
  274.50      2.22440E-03
  275.50      2.21050E-03
  276.50      2.19820E-03
  277.50      2.18460E-03
  278.50      2.16880E-03
  279.50      2.15570E-03
  280.50      2.14730E-03
  281.50      2.13540E-03
  282.50      2.12060E-03
  283.50      2.11180E-03
  284.50      2.10090E-03
  285.50      2.08900E-03
  286.50      2.07460E-03
  287.50      2.06240E-03
  288.50      2.05350E-03
  289.50      2.04100E-03
  291.00      2.02480E-03
  293.00      2.00370E-03
  295.00      1.98130E-03
  297.00      1.95810E-03
  299.00      1.93320E-03
  301.00      1.91410E-03
  303.00      1.88890E-03
  305.00      1.87130E-03
  307.00      1.84850E-03
  309.00      1.83550E-03
  311.00      1.81620E-03
  313.00      1.79590E-03
  315.00      1.78000E-03
  317.00      1.76040E-03
  319.00      1.74270E-03
  321.00      1.69460E-03
  323.00      1.70920E-03
  325.00      1.69210E-03
  327.00      1.66690E-03
  329.00      1.65680E-03
  331.00      1.63990E-03
  333.00      1.62370E-03
  335.00      1.60350E-03
  337.00      1.59140E-03
  339.00      1.57450E-03
  341.00      1.55790E-03
  343.00      1.54660E-03
  345.00      1.52840E-03
  347.00      1.51620E-03
  349.00      1.50200E-03
  351.00      1.48910E-03
  353.00      1.47390E-03
  355.00      1.46020E-03
  357.00      1.44660E-03
  359.00      1.43300E-03
  361.00      1.41950E-03
  363.00      1.40560E-03
  364.00      1.37120E-03
  365.00      1.24780E-03
  367.00      1.23800E-03
  369.00      1.22980E-03
  371.00      1.22710E-03
  373.00      1.23470E-03
  375.00      1.24850E-03
  377.00      1.26250E-03
  379.00      1.28370E-03
  381.00      1.30370E-03
  383.00      1.25300E-03
  385.00      1.29800E-03
  387.00      1.30330E-03
  389.00      1.20400E-03
  391.00      1.28560E-03
  393.00      1.26970E-03
  395.00      1.26530E-03
  397.00      1.15780E-03
  399.00      1.24260E-03
  401.00      1.23840E-03
  403.00      1.20730E-03
  405.00      1.22070E-03
  407.00      1.20860E-03
  409.00      1.16680E-03
  411.00      1.10760E-03
  413.00      1.17630E-03
  415.00      1.16960E-03
  417.00      1.16060E-03
  419.00      1.14390E-03
  421.00      1.12240E-03
  423.00      1.13250E-03
  425.00      1.12310E-03
  427.00      1.11390E-03
  429.00      1.10480E-03
  431.00      1.09320E-03
  433.00      1.05010E-03
  435.00      1.01280E-03
  437.00      1.06570E-03
  439.00      1.05790E-03
  441.00      1.05050E-03
  443.00      1.04320E-03
  445.00      1.03430E-03
  447.00      1.02240E-03
  449.00      1.01860E-03
  451.00      1.00990E-03
  453.00      9.99710E-04
  455.00      9.74120E-04
  457.00      9.87020E-04
  459.00      9.79520E-04
  461.00      9.72300E-04
  463.00      9.62710E-04
  465.00      9.49940E-04
  467.00      9.48270E-04
  469.00      9.09550E-04
  471.00      9.35130E-04
  473.00      9.29200E-04
  475.00      9.22230E-04
  477.00      9.15270E-04
  479.00      9.08070E-04
  481.00      9.01670E-04
  483.00      8.93430E-04
  485.00      8.66220E-04
  487.00      8.24260E-04
  489.00      8.72720E-04
  491.00      8.68760E-04
  493.00      8.61260E-04
  495.00      8.56530E-04
  497.00      8.50330E-04
  499.00      8.44320E-04
  501.00      8.37220E-04
  503.00      8.32150E-04
  505.00      8.26080E-04
  507.00      8.20410E-04
  509.00      8.14710E-04
  511.00      8.08990E-04
  513.00      8.03240E-04
  515.00      7.97640E-04
  517.00      7.92170E-04
  519.00      7.86660E-04
  521.00      7.81140E-04
  523.00      7.75850E-04
  525.00      7.70290E-04
  527.00      7.64880E-04
  529.00      7.60020E-04
  531.00      7.54860E-04
  533.00      7.49700E-04
  535.00      7.44690E-04
  537.00      7.39660E-04
  539.00      7.34660E-04
  541.00      7.13790E-04
  543.00      7.24590E-04
  545.00      7.20130E-04
  547.00      7.15300E-04
  549.00      7.10640E-04
  551.00      7.05780E-04
  553.00      7.01350E-04
  555.00      6.96770E-04
  557.00      6.92080E-04
  559.00      6.86870E-04
  561.00      6.83300E-04
  563.00      6.78890E-04
  565.00      6.74520E-04
  567.00      6.70200E-04
  569.00      6.57000E-04
  571.00      6.16970E-04
  573.00      6.13340E-04
  575.00      6.09720E-04
  577.00      6.06260E-04
  579.00      6.02960E-04
  581.00      5.98120E-04
  583.00      5.97610E-04
  585.00      5.95890E-04
  587.00      5.92490E-04
  589.00      5.93730E-04
  591.00      5.93340E-04
  593.00      5.93320E-04
  595.00      5.93800E-04
  597.00      5.94540E-04
  599.00      5.96030E-04
  601.00      5.95570E-04
  603.00      5.95530E-04
  605.00      5.94570E-04
  607.00      5.91000E-04
  609.00      5.88130E-04
  611.00      5.84990E-04
  613.00      5.81750E-04
  615.00      5.79040E-04
  617.00      5.73770E-04
  619.00      5.72050E-04
  621.00      5.69020E-04
  623.00      5.63290E-04
  625.00      5.61610E-04
  627.00      5.59020E-04
  629.00      5.55750E-04
  631.00      5.49330E-04
  633.00      5.48830E-04
  635.00      5.46160E-04
  637.00      5.43010E-04
  639.00      5.39300E-04
  641.00      5.32600E-04
  643.00      5.33610E-04
  645.00      5.30620E-04
  647.00      5.27580E-04
  649.00      5.24640E-04
  651.00      5.20940E-04
  653.00      5.12680E-04
  655.00      5.07960E-04
  657.00      4.78510E-04
  659.00      5.08410E-04
  661.00      5.07200E-04
  663.00      5.04380E-04
  665.00      5.01590E-04
  667.00      4.96840E-04
  669.00      4.89050E-04
  671.00      4.93060E-04
  673.00      4.90580E-04
  675.00      4.87870E-04
  677.00      4.85260E-04
  679.00      4.82630E-04
  681.00      4.80010E-04
  683.00      4.77410E-04
  685.00      4.74830E-04
  687.00      4.72190E-04
  689.00      4.62360E-04
  691.00      4.66680E-04
  693.00      4.64720E-04
  695.00      4.62250E-04
  697.00      4.59790E-04
  699.00      4.57350E-04
  701.00      4.54890E-04
  703.00      4.52390E-04
  705.00      4.50080E-04
  707.00      4.46950E-04
  709.00      4.45450E-04
  711.00      4.43080E-04
  713.00      4.40750E-04
  715.00      4.38530E-04
  717.00      4.31180E-04
  719.00      4.30760E-04
  721.00      4.31770E-04
  723.00      4.29550E-04
  725.00      4.27350E-04
  727.00      4.25170E-04
  729.00      4.22800E-04
  731.00      4.20780E-04
  733.00      4.18710E-04
  735.00      4.16590E-04
  737.00      4.14460E-04
  739.00      4.12350E-04
  741.00      4.10290E-04
  743.00      4.08270E-04
  745.00      4.06120E-04
  747.00      4.04200E-04
  749.00      4.02050E-04
  751.00      4.00150E-04
  753.00      3.98210E-04
  755.00      3.96240E-04
  757.00      3.94280E-04
  759.00      3.84920E-04
  761.00      3.89710E-04
  763.00      3.88520E-04
  765.00      3.86620E-04
  767.00      3.84740E-04
  769.00      3.82760E-04
  771.00      3.80950E-04
  773.00      3.79020E-04
  775.00      3.77350E-04
  777.00      3.75540E-04
  779.00      3.73740E-04
  781.00      3.71950E-04
  783.00      3.70170E-04
  785.00      3.68320E-04
  787.00      3.66620E-04
  789.00      3.64900E-04
  791.00      3.63200E-04
  793.00      3.61490E-04
  795.00      3.59780E-04
  797.00      3.58020E-04
  799.00      3.56420E-04
  801.00      3.54750E-04
  803.00      3.53060E-04
  805.00      3.51460E-04
  807.00      3.49820E-04
  809.00      3.48200E-04
  811.00      3.46590E-04
  813.00      3.45000E-04
  815.00      3.43410E-04
  817.00      3.41750E-04
  819.00      3.38720E-04
  821.00      3.24030E-04
  823.00      3.20410E-04
  825.00      3.20660E-04
  827.00      3.19830E-04
  829.00      3.18480E-04
  831.00      3.17120E-04
  833.00      3.15680E-04
  835.00      3.14390E-04
  837.00      3.13100E-04
  839.00      3.11830E-04
  841.00      3.10630E-04
  843.00      3.09430E-04
  845.00      3.08230E-04
  847.00      3.07180E-04
  849.00      3.06230E-04
  851.00      3.05180E-04
  853.00      3.04330E-04
  855.00      3.03230E-04
  857.00      3.02590E-04
  859.00      3.01470E-04
  861.00      3.00660E-04
  863.00      3.00360E-04
  865.00      2.99300E-04
  867.00      2.97500E-04
  869.00      2.98190E-04
  871.00      2.97830E-04
  873.00      2.96730E-04
  875.00      2.93240E-04
  877.00      2.94870E-04
  879.00      2.95530E-04
  881.00      2.95230E-04
  883.00      2.94380E-04
  885.00      2.90500E-04
  887.00      2.85900E-04
  889.00      2.90550E-04
  891.00      2.90950E-04
  893.00      2.90260E-04
  895.00      2.89340E-04
  897.00      2.87890E-04
  899.00      2.85110E-04
  901.00      2.76260E-04
  903.00      2.78520E-04
  905.00      2.82340E-04
  907.00      2.82090E-04
  909.00      2.81400E-04
  911.00      2.79860E-04
  913.00      2.79330E-04
  915.00      2.78280E-04
  917.00      2.76800E-04
  919.00      2.74860E-04
  921.00      2.70880E-04
  923.00      2.59680E-04
  925.00      2.67900E-04
  927.00      2.70240E-04
  929.00      2.70070E-04
  931.00      2.69220E-04
  933.00      2.67540E-04
  935.00      2.60270E-04
  937.00      2.64720E-04
  939.00      2.64760E-04
  941.00      2.63830E-04
  943.00      2.62790E-04
  945.00      2.61740E-04
  947.00      2.60640E-04
  949.00      2.59360E-04
  951.00      2.57290E-04
  953.00      2.52620E-04
  955.00      2.41260E-04
  957.00      2.51820E-04
  959.00      2.53560E-04
  961.00      2.53370E-04
  963.00      2.52470E-04
  965.00      2.51530E-04
  967.00      2.50540E-04
  969.00      2.49560E-04
  971.00      2.48300E-04
  973.00      2.47580E-04
  975.00      2.46170E-04
  977.00      2.44140E-04
  979.00      2.44720E-04
  981.00      2.43770E-04
  983.00      2.42810E-04
  985.00      2.41890E-04
  987.00      2.40960E-04
  989.00      2.40030E-04
  991.00      2.39100E-04
  993.00      2.38190E-04
  995.00      2.37280E-04
  997.00      2.36370E-04
  999.00      2.35370E-04
  1002.5      2.29720E-04
  1007.5      2.25720E-04
  1012.5      2.25410E-04
  1017.5      2.27360E-04
  1022.5      2.25250E-04
  1027.5      2.23140E-04
  1032.5      2.21010E-04
  1037.5      2.19070E-04
  1042.5      2.15790E-04
  1047.5      2.15090E-04
  1052.5      2.13140E-04
  1057.5      2.11220E-04
  1062.5      2.09320E-04
  1067.5      2.07450E-04
  1072.5      2.05600E-04
  1077.5      2.03780E-04
  1082.5      2.01700E-04
  1087.5      1.99980E-04
  1092.5      1.91220E-04
  1097.5      1.94720E-04
  1102.5      1.95000E-04
  1107.5      1.93330E-04
  1112.5      1.91670E-04
  1117.5      1.90150E-04
  1122.5      1.88520E-04
  1127.5      1.86920E-04
  1132.5      1.85330E-04
  1137.5      1.83780E-04
  1142.5      1.82240E-04
  1147.5      1.80710E-04
  1152.5      1.79210E-04
  1157.5      1.77720E-04
  1162.5      1.74020E-04
  1167.5      1.73170E-04
  1172.5      1.73370E-04
  1177.5      1.71960E-04
  1182.5      1.70560E-04
  1187.5      1.69180E-04
  1192.5      1.67820E-04
  1197.5      1.66370E-04
  1202.5      1.65140E-04
  1207.5      1.63830E-04
  1212.5      1.62520E-04
  1217.5      1.61240E-04
  1222.5      1.59970E-04
  1227.5      1.58720E-04
  1232.5      1.57480E-04
  1237.5      1.56250E-04
  1242.5      1.55040E-04
  1247.5      1.53850E-04
  1252.5      1.52650E-04
  1257.5      1.51490E-04
  1262.5      1.50340E-04
  1267.5      1.49190E-04
  1272.5      1.48060E-04
  1277.5      1.46160E-04
  1282.5      1.39780E-04
  1287.5      1.44360E-04
  1292.5      1.43660E-04
  1297.5      1.42580E-04
  1302.5      1.41540E-04
  1307.5      1.40500E-04
  1312.5      1.39460E-04
  1317.5      1.38440E-04
  1322.5      1.37430E-04
  1327.5      1.36430E-04
  1332.5      1.35440E-04
  1337.5      1.34460E-04
  1342.5      1.33490E-04
  1347.5      1.32540E-04
  1352.5      1.31590E-04
  1357.5      1.30650E-04
  1362.5      1.29720E-04
  1367.5      1.28810E-04
  1372.5      1.27900E-04
  1377.5      1.27000E-04
  1382.5      1.26110E-04
  1387.5      1.25230E-04
  1392.5      1.24360E-04
  1397.5      1.23500E-04
