 Castelli and Kurucz 2004-2012 Atmosphere
 T     42000.     G    5.00000 [-0.5] N(He)/Ntot=0.0784 VTURB=2.0  L/H=1.25 NOV
 Wavelength  Eddington Hnu
   (nm)    (ergs/s/cm2/Hz/sr)
  9.0900      5.96420E-23
  9.3500      1.94140E-22
  9.6100      5.92060E-22
  9.7700      1.15250E-21
  9.9600      2.46330E-21
  10.200      6.19380E-21
  10.380      1.20690E-20
  10.560      2.30310E-20
  10.770      4.77470E-20
  11.040      1.17520E-19
  11.400      3.68030E-19
  11.780      1.15070E-18
  12.130      3.11390E-18
  12.480      8.02610E-18
  12.710      1.45900E-17
  12.840      2.02770E-17
  13.050      3.40870E-17
  13.240      5.38780E-17
  13.390      7.67700E-17
  13.660      1.42600E-16
  13.980      2.90280E-16
  14.330      6.10260E-16
  14.720      1.33670E-15
  15.100      2.81800E-15
  15.520      6.13090E-15
  15.880      1.15970E-14
  16.200      2.00180E-14
  16.600      3.86550E-14
  17.030      7.56500E-14
  17.340      1.20530E-13
  17.680      1.98070E-13
  18.020      3.19190E-13
  18.170      3.89720E-13
  18.610      7.03580E-13
  19.100      1.31060E-12
  19.390      1.87000E-12
  19.840      3.17680E-12
  20.180      4.66510E-12
  20.500      6.64360E-12
  21.050      1.18900E-11
  21.620      2.10530E-11
  21.980      2.98770E-11
  22.300      4.02830E-11
  22.680      5.67000E-11
  23.000      1.52520E-08
  23.400      7.25640E-08
  24.000      1.49600E-07
  24.650      3.35820E-07
  25.240      9.86210E-07
  25.680      1.42580E-06
  26.000      2.79930E-06
  26.400      1.44660E-05
  26.850      2.15320E-05
  27.350      2.68690E-05
  27.850      1.92330E-05
  28.400      4.21460E-05
  29.000      5.63570E-05
  29.600      4.05430E-05
  30.100      1.77870E-05
  30.800      5.60740E-05
  31.800      4.63650E-05
  32.800      6.66770E-05
  33.800      5.70690E-05
  34.800      6.45230E-05
  35.700      1.38170E-04
  36.600      2.25320E-04
  37.500      2.73540E-04
  38.500      2.64310E-04
  39.500      3.70590E-04
  40.500      4.68420E-04
  41.400      4.76730E-04
  42.200      4.71530E-04
  43.000      4.53260E-04
  44.100      5.28020E-04
  45.100      5.66680E-04
  46.000      5.24430E-04
  47.000      5.47920E-04
  48.000      6.09920E-04
  49.000      5.46160E-04
  50.000      6.54390E-04
  50.600      6.31970E-04
  51.200      1.07950E-03
  52.000      1.03280E-03
  53.000      9.92020E-04
  54.000      9.09490E-04
  55.000      8.94630E-04
  56.000      1.14510E-03
  57.000      1.21890E-03
  58.000      1.20030E-03
  59.000      1.24980E-03
  60.000      1.15320E-03
  61.000      1.16710E-03
  62.000      1.37490E-03
  63.000      1.35140E-03
  64.000      1.44060E-03
  65.000      1.41440E-03
  65.800      1.33130E-03
  66.500      1.46520E-03
  67.500      1.54520E-03
  68.500      1.43820E-03
  69.500      1.56840E-03
  70.500      1.45980E-03
  71.600      1.64370E-03
  72.600      1.67530E-03
  73.500      1.70470E-03
  74.500      1.67320E-03
  75.500      1.68050E-03
  76.500      1.64460E-03
  77.500      1.71330E-03
  78.500      1.68920E-03
  79.500      1.75380E-03
  80.500      1.76840E-03
  81.500      1.79810E-03
  82.500      1.82920E-03
  83.500      1.69970E-03
  84.500      1.84150E-03
  85.500      1.82910E-03
  86.500      1.88500E-03
  87.500      1.90270E-03
  88.500      1.90520E-03
  89.500      1.91800E-03
  90.500      1.90410E-03
  91.500      1.51560E-03
  92.500      2.51170E-03
  93.500      3.39560E-03
  94.500      4.28950E-03
  95.500      4.81990E-03
  96.500      5.60900E-03
  97.500      4.05190E-03
  98.500      5.36000E-03
  99.500      4.90560E-03
  100.50      5.14780E-03
  101.50      5.27330E-03
  102.50      4.25180E-03
  103.50      5.36070E-03
  104.50      5.56790E-03
  105.50      5.52230E-03
  106.50      5.28680E-03
  107.50      5.36080E-03
  108.50      5.00010E-03
  109.50      5.31950E-03
  110.50      5.20480E-03
  111.50      5.18340E-03
  112.50      4.98700E-03
  113.50      5.16090E-03
  114.50      5.13950E-03
  115.50      4.96970E-03
  116.50      4.84450E-03
  117.50      4.33550E-03
  118.50      4.70070E-03
  119.50      4.64390E-03
  120.50      4.58330E-03
  121.50      3.66420E-03
  122.50      4.47090E-03
  123.50      4.53780E-03
  124.50      4.49880E-03
  125.50      4.54650E-03
  126.50      4.57400E-03
  127.50      4.58370E-03
  128.50      4.57770E-03
  129.50      4.51430E-03
  130.50      4.46070E-03
  131.50      4.48660E-03
  132.50      4.43340E-03
  133.50      4.41330E-03
  134.50      4.40110E-03
  135.50      4.30320E-03
  136.50      4.21850E-03
  137.50      4.14930E-03
  138.50      4.14740E-03
  139.50      4.03350E-03
  140.50      3.93470E-03
  141.50      4.11780E-03
  142.50      3.92470E-03
  143.50      4.03650E-03
  144.20      3.96600E-03
  144.70      3.96100E-03
  145.50      3.89130E-03
  146.50      3.89970E-03
  147.50      3.87540E-03
  148.50      3.91540E-03
  149.50      3.85400E-03
  150.50      3.86500E-03
  151.20      3.86340E-03
  151.70      3.81360E-03
  152.50      3.78950E-03
  153.50      3.60510E-03
  154.50      3.27160E-03
  155.50      3.31740E-03
  156.50      3.48060E-03
  157.50      3.54230E-03
  158.50      3.53450E-03
  159.50      3.52800E-03
  160.50      3.40820E-03
  161.50      3.34860E-03
  162.50      3.36160E-03
  163.50      3.32930E-03
  164.50      3.22320E-03
  165.50      3.39370E-03
  166.50      3.37130E-03
  167.20      3.25040E-03
  167.70      3.42510E-03
  168.50      3.38490E-03
  169.50      3.36610E-03
  170.50      3.31780E-03
  171.50      3.23810E-03
  172.50      3.21940E-03
  173.50      3.28790E-03
  174.50      3.26500E-03
  175.50      3.22110E-03
  176.50      3.21530E-03
  177.50      3.19010E-03
  178.50      3.19250E-03
  179.50      3.14520E-03
  180.50      3.13200E-03
  181.50      3.11100E-03
  182.50      3.08220E-03
  183.50      3.08130E-03
  184.50      3.05720E-03
  185.50      3.03690E-03
  186.50      3.01820E-03
  187.50      2.98410E-03
  188.50      2.96100E-03
  189.50      2.97260E-03
  190.50      2.95900E-03
  191.50      2.93650E-03
  192.50      2.85840E-03
  193.50      2.90320E-03
  194.50      2.88780E-03
  195.50      2.84030E-03
  196.70      2.84020E-03
  197.60      2.82440E-03
  198.40      2.81400E-03
  199.50      2.78970E-03
  200.50      2.77920E-03
  201.50      2.76040E-03
  202.50      2.74140E-03
  203.50      2.72060E-03
  204.50      2.69560E-03
  205.50      2.04650E-03
  206.50      1.97110E-03
  207.40      2.00710E-03
  207.80      2.04900E-03
  208.50      2.16620E-03
  209.50      2.41250E-03
  210.50      2.57010E-03
  211.50      2.59100E-03
  212.50      2.56480E-03
  213.50      2.55360E-03
  214.50      2.54020E-03
  215.50      2.56090E-03
  216.50      2.45490E-03
  217.50      2.55100E-03
  218.50      2.44240E-03
  219.50      2.52270E-03
  220.50      2.51150E-03
  221.50      2.39020E-03
  222.50      2.47910E-03
  223.50      2.46780E-03
  224.50      2.44440E-03
  225.50      2.33430E-03
  226.50      2.41870E-03
  227.50      2.40750E-03
  228.50      2.38170E-03
  229.50      2.33140E-03
  230.50      2.26370E-03
  231.50      2.33290E-03
  232.50      2.32960E-03
  233.50      2.31580E-03
  234.50      2.29810E-03
  235.50      2.28110E-03
  236.50      2.26590E-03
  237.50      2.24530E-03
  238.50      2.13670E-03
  239.50      2.20480E-03
  240.50      2.20270E-03
  241.50      2.19180E-03
  242.50      2.18720E-03
  243.50      2.17060E-03
  244.50      2.15830E-03
  245.50      2.13900E-03
  246.50      2.13220E-03
  247.50      2.12240E-03
  248.50      2.10470E-03
  249.50      1.97070E-03
  250.50      2.06570E-03
  251.30      1.91390E-03
  251.80      2.02990E-03
  252.50      2.04690E-03
  253.50      2.04610E-03
  254.50      2.03480E-03
  255.50      2.02110E-03
  256.50      2.01040E-03
  257.50      1.99840E-03
  258.50      1.98710E-03
  259.50      1.96350E-03
  260.50      1.96480E-03
  261.50      1.94790E-03
  262.50      1.94270E-03
  263.50      1.93220E-03
  264.50      1.91900E-03
  265.50      1.90980E-03
  266.50      1.89730E-03
  267.50      1.87700E-03
  268.50      1.87440E-03
  269.50      1.86180E-03
  270.50      1.85690E-03
  271.50      1.84410E-03
  272.50      1.83150E-03
  273.50      1.76130E-03
  274.50      1.81500E-03
  275.50      1.80440E-03
  276.50      1.79210E-03
  277.50      1.78440E-03
  278.50      1.77220E-03
  279.50      1.75640E-03
  280.50      1.75320E-03
  281.50      1.74490E-03
  282.50      1.73250E-03
  283.50      1.72480E-03
  284.50      1.71800E-03
  285.50      1.70830E-03
  286.50      1.69740E-03
  287.50      1.68910E-03
  288.50      1.68030E-03
  289.50      1.67060E-03
  291.00      1.65640E-03
  293.00      1.64030E-03
  295.00      1.62070E-03
  297.00      1.60340E-03
  299.00      1.58250E-03
  301.00      1.56770E-03
  303.00      1.54650E-03
  305.00      1.53340E-03
  307.00      1.51920E-03
  309.00      1.50540E-03
  311.00      1.49040E-03
  313.00      1.47450E-03
  315.00      1.46190E-03
  317.00      1.44610E-03
  319.00      1.43030E-03
  321.00      1.39380E-03
  323.00      1.40540E-03
  325.00      1.39210E-03
  327.00      1.37090E-03
  329.00      1.36340E-03
  331.00      1.34980E-03
  333.00      1.33690E-03
  335.00      1.32030E-03
  337.00      1.31100E-03
  339.00      1.29940E-03
  341.00      1.28670E-03
  343.00      1.27650E-03
  345.00      1.26080E-03
  347.00      1.25230E-03
  349.00      1.24090E-03
  351.00      1.22990E-03
  353.00      1.21740E-03
  355.00      1.20590E-03
  357.00      1.19650E-03
  359.00      1.18380E-03
  361.00      1.17300E-03
  363.00      1.16140E-03
  364.00      1.13680E-03
  365.00      1.04150E-03
  367.00      1.03390E-03
  369.00      1.02680E-03
  371.00      1.02180E-03
  373.00      1.02780E-03
  375.00      1.03700E-03
  377.00      1.04350E-03
  379.00      1.06410E-03
  381.00      1.08560E-03
  383.00      1.03080E-03
  385.00      1.08710E-03
  387.00      1.09290E-03
  389.00      9.91860E-04
  391.00      1.08260E-03
  393.00      1.07090E-03
  395.00      1.06420E-03
  397.00      9.53680E-04
  399.00      1.04640E-03
  401.00      1.04340E-03
  403.00      1.01300E-03
  405.00      1.03120E-03
  407.00      1.01860E-03
  409.00      9.75920E-04
  411.00      9.18580E-04
  413.00      9.91210E-04
  415.00      9.86230E-04
  417.00      9.81210E-04
  419.00      9.67300E-04
  421.00      9.49490E-04
  423.00      9.58370E-04
  425.00      9.50190E-04
  427.00      9.42300E-04
  429.00      9.34690E-04
  431.00      9.23770E-04
  433.00      8.80010E-04
  435.00      8.43480E-04
  437.00      9.01130E-04
  439.00      8.91160E-04
  441.00      8.89340E-04
  443.00      8.83470E-04
  445.00      8.76550E-04
  447.00      8.58750E-04
  449.00      8.62930E-04
  451.00      8.54710E-04
  453.00      8.46780E-04
  455.00      8.25210E-04
  457.00      8.36660E-04
  459.00      8.30010E-04
  461.00      8.24050E-04
  463.00      8.15370E-04
  465.00      8.00560E-04
  467.00      8.03650E-04
  469.00      7.71160E-04
  471.00      7.90930E-04
  473.00      7.88710E-04
  475.00      7.82830E-04
  477.00      7.77020E-04
  479.00      7.71310E-04
  481.00      7.65540E-04
  483.00      7.57680E-04
  485.00      7.29410E-04
  487.00      6.88860E-04
  489.00      7.39900E-04
  491.00      7.37660E-04
  493.00      7.27590E-04
  495.00      7.27510E-04
  497.00      7.22600E-04
  499.00      7.17540E-04
  501.00      7.09600E-04
  503.00      7.07150E-04
  505.00      7.01590E-04
  507.00      6.97490E-04
  509.00      6.92660E-04
  511.00      6.87870E-04
  513.00      6.83050E-04
  515.00      6.78330E-04
  517.00      6.73660E-04
  519.00      6.69060E-04
  521.00      6.64490E-04
  523.00      6.60000E-04
  525.00      6.55200E-04
  527.00      6.50610E-04
  529.00      6.46690E-04
  531.00      6.42350E-04
  533.00      6.38010E-04
  535.00      6.33780E-04
  537.00      6.29560E-04
  539.00      6.25350E-04
  541.00      6.07890E-04
  543.00      6.16880E-04
  545.00      6.13110E-04
  547.00      6.09060E-04
  549.00      6.05120E-04
  551.00      6.00970E-04
  553.00      5.97290E-04
  555.00      5.93440E-04
  557.00      5.89530E-04
  559.00      5.84890E-04
  561.00      5.82080E-04
  563.00      5.78370E-04
  565.00      5.74690E-04
  567.00      5.71040E-04
  569.00      5.60100E-04
  571.00      5.29280E-04
  573.00      5.26210E-04
  575.00      5.23150E-04
  577.00      5.20200E-04
  579.00      5.17340E-04
  581.00      5.13670E-04
  583.00      5.12310E-04
  585.00      5.10860E-04
  587.00      5.04980E-04
  589.00      5.08550E-04
  591.00      5.08120E-04
  593.00      5.07850E-04
  595.00      5.07880E-04
  597.00      5.08160E-04
  599.00      5.08880E-04
  601.00      5.08510E-04
  603.00      5.07800E-04
  605.00      5.07300E-04
  607.00      5.04440E-04
  609.00      5.01930E-04
  611.00      4.99190E-04
  613.00      4.96570E-04
  615.00      4.93940E-04
  617.00      4.89940E-04
  619.00      4.88250E-04
  621.00      4.85480E-04
  623.00      4.81270E-04
  625.00      4.79410E-04
  627.00      4.77050E-04
  629.00      4.74290E-04
  631.00      4.69470E-04
  633.00      4.68560E-04
  635.00      4.66150E-04
  637.00      4.63490E-04
  639.00      4.60540E-04
  641.00      4.55470E-04
  643.00      4.55620E-04
  645.00      4.52960E-04
  647.00      4.50380E-04
  649.00      4.47930E-04
  651.00      4.44810E-04
  653.00      4.38360E-04
  655.00      4.31800E-04
  657.00      4.03820E-04
  659.00      4.33540E-04
  661.00      4.33170E-04
  663.00      4.30820E-04
  665.00      4.28470E-04
  667.00      4.23410E-04
  669.00      4.17700E-04
  671.00      4.21140E-04
  673.00      4.19050E-04
  675.00      4.16760E-04
  677.00      4.14630E-04
  679.00      4.12430E-04
  681.00      4.10210E-04
  683.00      4.08010E-04
  685.00      4.05820E-04
  687.00      4.03580E-04
  689.00      3.96280E-04
  691.00      3.98950E-04
  693.00      3.97260E-04
  695.00      3.95160E-04
  697.00      3.93080E-04
  699.00      3.91010E-04
  701.00      3.88900E-04
  703.00      3.86700E-04
  705.00      3.84820E-04
  707.00      3.80680E-04
  709.00      3.80920E-04
  711.00      3.78940E-04
  713.00      3.76990E-04
  715.00      3.75050E-04
  717.00      3.69480E-04
  719.00      3.68870E-04
  721.00      3.69320E-04
  723.00      3.67420E-04
  725.00      3.65570E-04
  727.00      3.63720E-04
  729.00      3.61020E-04
  731.00      3.59990E-04
  733.00      3.58240E-04
  735.00      3.56440E-04
  737.00      3.54630E-04
  739.00      3.52880E-04
  741.00      3.51090E-04
  743.00      3.49380E-04
  745.00      3.47560E-04
  747.00      3.45930E-04
  749.00      3.43970E-04
  751.00      3.42490E-04
  753.00      3.40850E-04
  755.00      3.39170E-04
  757.00      3.37490E-04
  759.00      3.30310E-04
  761.00      3.33740E-04
  763.00      3.32600E-04
  765.00      3.30990E-04
  767.00      3.29410E-04
  769.00      3.27670E-04
  771.00      3.26180E-04
  773.00      3.24470E-04
  775.00      3.23130E-04
  777.00      3.21590E-04
  779.00      3.20060E-04
  781.00      3.18530E-04
  783.00      3.17030E-04
  785.00      3.15490E-04
  787.00      3.14030E-04
  789.00      3.12580E-04
  791.00      3.11150E-04
  793.00      3.09690E-04
  795.00      3.08240E-04
  797.00      3.06730E-04
  799.00      3.05380E-04
  801.00      3.03960E-04
  803.00      3.02500E-04
  805.00      3.01160E-04
  807.00      2.99770E-04
  809.00      2.98390E-04
  811.00      2.97030E-04
  813.00      2.95670E-04
  815.00      2.94320E-04
  817.00      2.92900E-04
  819.00      2.90470E-04
  821.00      2.79690E-04
  823.00      2.76560E-04
  825.00      2.76790E-04
  827.00      2.76050E-04
  829.00      2.74990E-04
  831.00      2.73850E-04
  833.00      2.72530E-04
  835.00      2.71310E-04
  837.00      2.70320E-04
  839.00      2.69260E-04
  841.00      2.68190E-04
  843.00      2.67120E-04
  845.00      2.65900E-04
  847.00      2.65080E-04
  849.00      2.64180E-04
  851.00      2.63160E-04
  853.00      2.62420E-04
  855.00      2.61460E-04
  857.00      2.60900E-04
  859.00      2.59480E-04
  861.00      2.58990E-04
  863.00      2.58870E-04
  865.00      2.57550E-04
  867.00      2.55700E-04
  869.00      2.56760E-04
  871.00      2.56550E-04
  873.00      2.54990E-04
  875.00      2.51130E-04
  877.00      2.52990E-04
  879.00      2.54240E-04
  881.00      2.53990E-04
  883.00      2.52990E-04
  885.00      2.48390E-04
  887.00      2.43740E-04
  889.00      2.49360E-04
  891.00      2.50150E-04
  893.00      2.49590E-04
  895.00      2.48890E-04
  897.00      2.47570E-04
  899.00      2.44400E-04
  901.00      2.34900E-04
  903.00      2.37700E-04
  905.00      2.42500E-04
  907.00      2.42210E-04
  909.00      2.41930E-04
  911.00      2.41000E-04
  913.00      2.40480E-04
  915.00      2.39630E-04
  917.00      2.37950E-04
  919.00      2.36320E-04
  921.00      2.31580E-04
  923.00      2.20340E-04
  925.00      2.29210E-04
  927.00      2.32310E-04
  929.00      2.32240E-04
  931.00      2.31560E-04
  933.00      2.30480E-04
  935.00      2.24630E-04
  937.00      2.28220E-04
  939.00      2.28110E-04
  941.00      2.27220E-04
  943.00      2.26350E-04
  945.00      2.25470E-04
  947.00      2.24270E-04
  949.00      2.23150E-04
  951.00      2.20840E-04
  953.00      2.15760E-04
  955.00      2.04750E-04
  957.00      2.15740E-04
  959.00      2.18090E-04
  961.00      2.17990E-04
  963.00      2.17290E-04
  965.00      2.16720E-04
  967.00      2.15870E-04
  969.00      2.15010E-04
  971.00      2.13410E-04
  973.00      2.13270E-04
  975.00      2.12250E-04
  977.00      2.10750E-04
  979.00      2.10880E-04
  981.00      2.10070E-04
  983.00      2.09240E-04
  985.00      2.08460E-04
  987.00      2.07660E-04
  989.00      2.06860E-04
  991.00      2.06050E-04
  993.00      2.05290E-04
  995.00      2.04500E-04
  997.00      2.03720E-04
  999.00      2.02610E-04
  1002.5      1.96790E-04
  1007.5      1.93270E-04
  1012.5      1.94410E-04
  1017.5      1.96000E-04
  1022.5      1.94180E-04
  1027.5      1.92380E-04
  1032.5      1.90350E-04
  1037.5      1.88890E-04
  1042.5      1.86380E-04
  1047.5      1.85480E-04
  1052.5      1.83800E-04
  1057.5      1.82150E-04
  1062.5      1.80530E-04
  1067.5      1.78870E-04
  1072.5      1.77340E-04
  1077.5      1.75770E-04
  1082.5      1.73530E-04
  1087.5      1.72320E-04
  1092.5      1.63450E-04
  1097.5      1.67340E-04
  1102.5      1.68030E-04
  1107.5      1.66790E-04
  1112.5      1.65380E-04
  1117.5      1.64040E-04
  1122.5      1.62630E-04
  1127.5      1.61270E-04
  1132.5      1.59910E-04
  1137.5      1.58580E-04
  1142.5      1.57250E-04
  1147.5      1.55950E-04
  1152.5      1.54660E-04
  1157.5      1.53380E-04
  1162.5      1.50470E-04
  1167.5      1.49800E-04
  1172.5      1.49650E-04
  1177.5      1.48440E-04
  1182.5      1.47230E-04
  1187.5      1.46050E-04
  1192.5      1.44880E-04
  1197.5      1.43240E-04
  1202.5      1.42580E-04
  1207.5      1.41450E-04
  1212.5      1.40320E-04
  1217.5      1.39230E-04
  1222.5      1.38140E-04
  1227.5      1.37060E-04
  1232.5      1.36000E-04
  1237.5      1.34950E-04
  1242.5      1.33910E-04
  1247.5      1.32880E-04
  1252.5      1.31800E-04
  1257.5      1.30850E-04
  1262.5      1.29860E-04
  1267.5      1.28880E-04
  1272.5      1.27900E-04
  1277.5      1.25740E-04
  1282.5      1.19830E-04
  1287.5      1.24520E-04
  1292.5      1.24130E-04
  1297.5      1.23040E-04
  1302.5      1.22300E-04
  1307.5      1.21400E-04
  1312.5      1.20510E-04
  1317.5      1.19630E-04
  1322.5      1.18760E-04
  1327.5      1.17900E-04
  1332.5      1.17050E-04
  1337.5      1.16210E-04
  1342.5      1.15360E-04
  1347.5      1.14550E-04
  1352.5      1.13740E-04
  1357.5      1.12930E-04
  1362.5      1.12140E-04
  1367.5      1.11350E-04
  1372.5      1.10560E-04
  1377.5      1.09790E-04
  1382.5      1.09030E-04
  1387.5      1.08270E-04
  1392.5      1.07520E-04
  1397.5      1.06780E-04
