 Castelli and Kurucz 2004-2012 Atmosphere
 T     43000.     G    4.50000 [-0.5] N(He)/Ntot=0.0784 VTURB=2.0  L/H=1.25 NOV
 Wavelength  Eddington Hnu
   (nm)    (ergs/s/cm2/Hz/sr)
  9.0900      2.23800E-22
  9.3500      7.04620E-22
  9.6100      2.07300E-21
  9.7700      3.96830E-21
  9.9600      8.28740E-21
  10.200      2.02450E-20
  10.380      3.86060E-20
  10.560      7.21120E-20
  10.770      1.45830E-19
  11.040      3.47690E-19
  11.400      1.04370E-18
  11.780      3.12090E-18
  12.130      8.10860E-18
  12.480      2.00590E-17
  12.710      3.55090E-17
  12.840      4.86870E-17
  13.050      7.99840E-17
  13.240      1.23830E-16
  13.390      1.73670E-16
  13.660      3.13100E-16
  13.980      6.17640E-16
  14.330      1.25350E-15
  14.720      2.63130E-15
  15.100      5.39340E-15
  15.520      1.13240E-14
  15.880      2.08220E-14
  16.200      3.52830E-14
  16.600      6.63410E-14
  17.030      1.25770E-13
  17.340      1.96180E-13
  17.680      3.17030E-13
  18.020      5.01670E-13
  18.170      6.03550E-13
  18.610      1.07240E-12
  19.100      1.95080E-12
  19.390      2.75490E-12
  19.840      4.58930E-12
  20.180      6.63890E-12
  20.500      9.37030E-12
  21.050      1.64630E-11
  21.620      2.86040E-11
  21.980      4.02370E-11
  22.300      5.36920E-11
  22.680      7.46740E-11
  23.000      2.68150E-08
  23.400      1.29380E-07
  24.000      3.03480E-07
  24.650      1.10680E-06
  25.240      4.27510E-06
  25.680      6.42740E-06
  26.000      1.03380E-05
  26.400      3.89070E-05
  26.850      5.27390E-05
  27.350      6.43300E-05
  27.850      4.73020E-05
  28.400      9.49280E-05
  29.000      1.30590E-04
  29.600      1.00140E-04
  30.100      4.08070E-05
  30.800      9.22100E-05
  31.800      6.26070E-05
  32.800      8.78990E-05
  33.800      6.84520E-05
  34.800      7.52150E-05
  35.700      1.77630E-04
  36.600      3.06920E-04
  37.500      3.82900E-04
  38.500      3.54640E-04
  39.500      5.33560E-04
  40.500      7.17620E-04
  41.400      7.41980E-04
  42.200      7.29270E-04
  43.000      7.03500E-04
  44.100      8.55640E-04
  45.100      9.14770E-04
  46.000      8.45180E-04
  47.000      9.02570E-04
  48.000      1.01770E-03
  49.000      8.85070E-04
  50.000      1.12560E-03
  50.600      9.72660E-04
  51.200      1.35090E-03
  52.000      1.30060E-03
  53.000      1.24670E-03
  54.000      1.12520E-03
  55.000      1.04340E-03
  56.000      1.36610E-03
  57.000      1.50010E-03
  58.000      1.49780E-03
  59.000      1.55030E-03
  60.000      1.42660E-03
  61.000      1.36350E-03
  62.000      1.66140E-03
  63.000      1.60260E-03
  64.000      1.75280E-03
  65.000      1.70740E-03
  65.800      1.59900E-03
  66.500      1.78450E-03
  67.500      1.86080E-03
  68.500      1.73590E-03
  69.500      1.89030E-03
  70.500      1.74890E-03
  71.600      1.96040E-03
  72.600      2.00680E-03
  73.500      2.02950E-03
  74.500      1.99270E-03
  75.500      1.99420E-03
  76.500      1.90780E-03
  77.500      2.02630E-03
  78.500      1.93950E-03
  79.500      2.05490E-03
  80.500      2.08540E-03
  81.500      2.11460E-03
  82.500      2.14320E-03
  83.500      1.99390E-03
  84.500      2.15200E-03
  85.500      2.12070E-03
  86.500      2.19610E-03
  87.500      2.21700E-03
  88.500      2.20920E-03
  89.500      2.22230E-03
  90.500      2.20090E-03
  91.500      1.74840E-03
  92.500      2.93260E-03
  93.500      3.83230E-03
  94.500      4.41920E-03
  95.500      4.89970E-03
  96.500      5.31790E-03
  97.500      4.24130E-03
  98.500      5.04230E-03
  99.500      4.67890E-03
  100.50      4.84330E-03
  101.50      4.96080E-03
  102.50      4.43300E-03
  103.50      5.12270E-03
  104.50      5.23530E-03
  105.50      5.20400E-03
  106.50      5.03380E-03
  107.50      5.11050E-03
  108.50      4.87710E-03
  109.50      5.06680E-03
  110.50      5.00010E-03
  111.50      4.97050E-03
  112.50      4.84490E-03
  113.50      4.97420E-03
  114.50      4.97270E-03
  115.50      4.83710E-03
  116.50      4.72500E-03
  117.50      4.33950E-03
  118.50      4.63140E-03
  119.50      4.55560E-03
  120.50      4.53910E-03
  121.50      3.89590E-03
  122.50      4.45510E-03
  123.50      4.41710E-03
  124.50      4.36800E-03
  125.50      4.44400E-03
  126.50      4.45880E-03
  127.50      4.45960E-03
  128.50      4.44800E-03
  129.50      4.43140E-03
  130.50      4.34990E-03
  131.50      4.35450E-03
  132.50      4.31490E-03
  133.50      4.30330E-03
  134.50      4.29010E-03
  135.50      4.18500E-03
  136.50      4.08840E-03
  137.50      4.01280E-03
  138.50      4.04770E-03
  139.50      3.96940E-03
  140.50      3.85510E-03
  141.50      4.05600E-03
  142.50      3.90060E-03
  143.50      3.99220E-03
  144.20      3.89780E-03
  144.70      3.90140E-03
  145.50      3.84370E-03
  146.50      3.85170E-03
  147.50      3.84360E-03
  148.50      3.88050E-03
  149.50      3.82600E-03
  150.50      3.83080E-03
  151.20      3.83680E-03
  151.70      3.77450E-03
  152.50      3.77710E-03
  153.50      3.62110E-03
  154.50      3.28780E-03
  155.50      3.33200E-03
  156.50      3.51250E-03
  157.50      3.57020E-03
  158.50      3.54320E-03
  159.50      3.53970E-03
  160.50      3.43690E-03
  161.50      3.39290E-03
  162.50      3.39540E-03
  163.50      3.37970E-03
  164.50      3.26070E-03
  165.50      3.41500E-03
  166.50      3.39940E-03
  167.20      3.29040E-03
  167.70      3.43510E-03
  168.50      3.40680E-03
  169.50      3.39490E-03
  170.50      3.34410E-03
  171.50      3.25520E-03
  172.50      3.25660E-03
  173.50      3.31930E-03
  174.50      3.29330E-03
  175.50      3.25470E-03
  176.50      3.24660E-03
  177.50      3.22630E-03
  178.50      3.22380E-03
  179.50      3.17910E-03
  180.50      3.16520E-03
  181.50      3.14350E-03
  182.50      3.11950E-03
  183.50      3.11190E-03
  184.50      3.09390E-03
  185.50      3.07090E-03
  186.50      3.05320E-03
  187.50      3.02270E-03
  188.50      3.00160E-03
  189.50      3.01070E-03
  190.50      2.99350E-03
  191.50      2.97280E-03
  192.50      2.90430E-03
  193.50      2.93860E-03
  194.50      2.92130E-03
  195.50      2.88390E-03
  196.70      2.87600E-03
  197.60      2.85710E-03
  198.40      2.84920E-03
  199.50      2.82640E-03
  200.50      2.81310E-03
  201.50      2.79450E-03
  202.50      2.77660E-03
  203.50      2.75580E-03
  204.50      2.72740E-03
  205.50      2.09060E-03
  206.50      2.02870E-03
  207.40      2.08930E-03
  207.80      2.14800E-03
  208.50      2.31780E-03
  209.50      2.57360E-03
  210.50      2.62480E-03
  211.50      2.62760E-03
  212.50      2.60420E-03
  213.50      2.59290E-03
  214.50      2.57910E-03
  215.50      2.60470E-03
  216.50      2.50120E-03
  217.50      2.58880E-03
  218.50      2.49510E-03
  219.50      2.56110E-03
  220.50      2.54650E-03
  221.50      2.44750E-03
  222.50      2.51470E-03
  223.50      2.50110E-03
  224.50      2.48240E-03
  225.50      2.39460E-03
  226.50      2.45340E-03
  227.50      2.44220E-03
  228.50      2.41840E-03
  229.50      2.37770E-03
  230.50      2.32360E-03
  231.50      2.37180E-03
  232.50      2.36630E-03
  233.50      2.35260E-03
  234.50      2.33430E-03
  235.50      2.31830E-03
  236.50      2.30360E-03
  237.50      2.28470E-03
  238.50      2.19580E-03
  239.50      2.24600E-03
  240.50      2.23780E-03
  241.50      2.22710E-03
  242.50      2.22420E-03
  243.50      2.20760E-03
  244.50      2.19560E-03
  245.50      2.17510E-03
  246.50      2.16870E-03
  247.50      2.16060E-03
  248.50      2.14200E-03
  249.50      2.02400E-03
  250.50      2.11190E-03
  251.30      1.97940E-03
  251.80      2.07640E-03
  252.50      2.08230E-03
  253.50      2.08460E-03
  254.50      2.07420E-03
  255.50      2.06090E-03
  256.50      2.05040E-03
  257.50      2.03760E-03
  258.50      2.02630E-03
  259.50      1.99920E-03
  260.50      2.00390E-03
  261.50      1.98510E-03
  262.50      1.98190E-03
  263.50      1.97150E-03
  264.50      1.95780E-03
  265.50      1.94890E-03
  266.50      1.93700E-03
  267.50      1.91680E-03
  268.50      1.91390E-03
  269.50      1.90150E-03
  270.50      1.89620E-03
  271.50      1.88410E-03
  272.50      1.87350E-03
  273.50      1.81190E-03
  274.50      1.85470E-03
  275.50      1.84340E-03
  276.50      1.83310E-03
  277.50      1.82300E-03
  278.50      1.81010E-03
  279.50      1.79770E-03
  280.50      1.79280E-03
  281.50      1.78360E-03
  282.50      1.77180E-03
  283.50      1.76460E-03
  284.50      1.75660E-03
  285.50      1.74690E-03
  286.50      1.73600E-03
  287.50      1.72670E-03
  288.50      1.71870E-03
  289.50      1.70920E-03
  291.00      1.69540E-03
  293.00      1.67890E-03
  295.00      1.66060E-03
  297.00      1.64170E-03
  299.00      1.62080E-03
  301.00      1.60590E-03
  303.00      1.58460E-03
  305.00      1.57120E-03
  307.00      1.55480E-03
  309.00      1.54310E-03
  311.00      1.52750E-03
  313.00      1.51140E-03
  315.00      1.49900E-03
  317.00      1.48300E-03
  319.00      1.46870E-03
  321.00      1.43240E-03
  323.00      1.44160E-03
  325.00      1.42790E-03
  327.00      1.40630E-03
  329.00      1.39900E-03
  331.00      1.38500E-03
  333.00      1.37210E-03
  335.00      1.35520E-03
  337.00      1.34580E-03
  339.00      1.33300E-03
  341.00      1.31970E-03
  343.00      1.30970E-03
  345.00      1.29430E-03
  347.00      1.28530E-03
  349.00      1.27370E-03
  351.00      1.26290E-03
  353.00      1.25020E-03
  355.00      1.23880E-03
  357.00      1.22830E-03
  359.00      1.21670E-03
  361.00      1.20540E-03
  363.00      1.19380E-03
  364.00      1.16590E-03
  365.00      1.06310E-03
  367.00      1.05520E-03
  369.00      1.05010E-03
  371.00      1.05090E-03
  373.00      1.06070E-03
  375.00      1.07750E-03
  377.00      1.08940E-03
  379.00      1.10680E-03
  381.00      1.12110E-03
  383.00      1.07510E-03
  385.00      1.11740E-03
  387.00      1.11890E-03
  389.00      1.03980E-03
  391.00      1.10570E-03
  393.00      1.08790E-03
  395.00      1.08700E-03
  397.00      1.00150E-03
  399.00      1.06940E-03
  401.00      1.06340E-03
  403.00      1.03650E-03
  405.00      1.04770E-03
  407.00      1.03790E-03
  409.00      1.00770E-03
  411.00      9.57700E-04
  413.00      1.01130E-03
  415.00      1.00410E-03
  417.00      9.97200E-04
  419.00      9.85430E-04
  421.00      9.67430E-04
  423.00      9.73860E-04
  425.00      9.65900E-04
  427.00      9.58200E-04
  429.00      9.50650E-04
  431.00      9.41820E-04
  433.00      9.10370E-04
  435.00      8.77850E-04
  437.00      9.19160E-04
  439.00      9.10260E-04
  441.00      9.04800E-04
  443.00      8.98820E-04
  445.00      8.91660E-04
  447.00      8.79720E-04
  449.00      8.78350E-04
  451.00      8.70500E-04
  453.00      8.63220E-04
  455.00      8.43760E-04
  457.00      8.51820E-04
  459.00      8.45390E-04
  461.00      8.39310E-04
  463.00      8.31000E-04
  465.00      8.18130E-04
  467.00      8.19320E-04
  469.00      7.87660E-04
  471.00      8.07690E-04
  473.00      8.03290E-04
  475.00      7.97410E-04
  477.00      7.91530E-04
  479.00      7.85650E-04
  481.00      7.80050E-04
  483.00      7.73870E-04
  485.00      7.54400E-04
  487.00      7.17380E-04
  489.00      7.56710E-04
  491.00      7.52280E-04
  493.00      7.44760E-04
  495.00      7.41790E-04
  497.00      7.36610E-04
  499.00      7.31530E-04
  501.00      7.24870E-04
  503.00      7.21140E-04
  505.00      7.15860E-04
  507.00      7.11260E-04
  509.00      7.06420E-04
  511.00      7.01580E-04
  513.00      6.96690E-04
  515.00      6.91940E-04
  517.00      6.87290E-04
  519.00      6.82600E-04
  521.00      6.77950E-04
  523.00      6.73440E-04
  525.00      6.68620E-04
  527.00      6.63980E-04
  529.00      6.59980E-04
  531.00      6.55590E-04
  533.00      6.51190E-04
  535.00      6.46930E-04
  537.00      6.42660E-04
  539.00      6.38400E-04
  541.00      6.22980E-04
  543.00      6.30060E-04
  545.00      6.26020E-04
  547.00      6.21900E-04
  549.00      6.17930E-04
  551.00      6.13720E-04
  553.00      6.10000E-04
  555.00      6.06100E-04
  557.00      6.02080E-04
  559.00      5.97410E-04
  561.00      5.94600E-04
  563.00      5.90840E-04
  565.00      5.87110E-04
  567.00      5.83410E-04
  569.00      5.71930E-04
  571.00      5.38030E-04
  573.00      5.34920E-04
  575.00      5.31830E-04
  577.00      5.28940E-04
  579.00      5.26320E-04
  581.00      5.22810E-04
  583.00      5.22700E-04
  585.00      5.21980E-04
  587.00      5.18380E-04
  589.00      5.21140E-04
  591.00      5.21280E-04
  593.00      5.21800E-04
  595.00      5.22870E-04
  597.00      5.23830E-04
  599.00      5.25160E-04
  601.00      5.23720E-04
  603.00      5.21630E-04
  605.00      5.20050E-04
  607.00      5.16390E-04
  609.00      5.14240E-04
  611.00      5.10550E-04
  613.00      5.07590E-04
  615.00      5.05480E-04
  617.00      5.00540E-04
  619.00      4.99500E-04
  621.00      4.96780E-04
  623.00      4.91670E-04
  625.00      4.90550E-04
  627.00      4.88200E-04
  629.00      4.85410E-04
  631.00      4.79470E-04
  633.00      4.79670E-04
  635.00      4.77140E-04
  637.00      4.74430E-04
  639.00      4.71520E-04
  641.00      4.65150E-04
  643.00      4.66430E-04
  645.00      4.63740E-04
  647.00      4.61130E-04
  649.00      4.58630E-04
  651.00      4.55760E-04
  653.00      4.48420E-04
  655.00      4.45900E-04
  657.00      4.19900E-04
  659.00      4.45290E-04
  661.00      4.43610E-04
  663.00      4.41180E-04
  665.00      4.38780E-04
  667.00      4.34640E-04
  669.00      4.27720E-04
  671.00      4.31410E-04
  673.00      4.29240E-04
  675.00      4.26900E-04
  677.00      4.24690E-04
  679.00      4.22440E-04
  681.00      4.20180E-04
  683.00      4.17930E-04
  685.00      4.15710E-04
  687.00      4.13470E-04
  689.00      4.05550E-04
  691.00      4.08950E-04
  693.00      4.06980E-04
  695.00      4.04850E-04
  697.00      4.02730E-04
  699.00      4.00620E-04
  701.00      3.98480E-04
  703.00      3.96280E-04
  705.00      3.94320E-04
  707.00      3.90940E-04
  709.00      3.90340E-04
  711.00      3.88300E-04
  713.00      3.86300E-04
  715.00      3.84350E-04
  717.00      3.78620E-04
  719.00      3.78340E-04
  721.00      3.78510E-04
  723.00      3.76590E-04
  725.00      3.74690E-04
  727.00      3.72800E-04
  729.00      3.70500E-04
  731.00      3.68980E-04
  733.00      3.67210E-04
  735.00      3.65380E-04
  737.00      3.63520E-04
  739.00      3.61730E-04
  741.00      3.59920E-04
  743.00      3.58180E-04
  745.00      3.56300E-04
  747.00      3.54650E-04
  749.00      3.52720E-04
  751.00      3.51140E-04
  753.00      3.49460E-04
  755.00      3.47760E-04
  757.00      3.46050E-04
  759.00      3.39080E-04
  761.00      3.42400E-04
  763.00      3.41060E-04
  765.00      3.39400E-04
  767.00      3.37790E-04
  769.00      3.36030E-04
  771.00      3.34500E-04
  773.00      3.32790E-04
  775.00      3.31380E-04
  777.00      3.29810E-04
  779.00      3.28240E-04
  781.00      3.26690E-04
  783.00      3.25140E-04
  785.00      3.23530E-04
  787.00      3.22070E-04
  789.00      3.20580E-04
  791.00      3.19110E-04
  793.00      3.17620E-04
  795.00      3.16140E-04
  797.00      3.14590E-04
  799.00      3.13220E-04
  801.00      3.11770E-04
  803.00      3.10290E-04
  805.00      3.08910E-04
  807.00      3.07490E-04
  809.00      3.06080E-04
  811.00      3.04680E-04
  813.00      3.03300E-04
  815.00      3.01920E-04
  817.00      3.00460E-04
  819.00      2.97870E-04
  821.00      2.85370E-04
  823.00      2.82380E-04
  825.00      2.82600E-04
  827.00      2.81690E-04
  829.00      2.80550E-04
  831.00      2.79380E-04
  833.00      2.78090E-04
  835.00      2.76950E-04
  837.00      2.75910E-04
  839.00      2.74850E-04
  841.00      2.73890E-04
  843.00      2.72930E-04
  845.00      2.71940E-04
  847.00      2.71110E-04
  849.00      2.70370E-04
  851.00      2.69410E-04
  853.00      2.68880E-04
  855.00      2.67790E-04
  857.00      2.67600E-04
  859.00      2.66260E-04
  861.00      2.65620E-04
  863.00      2.65900E-04
  865.00      2.64770E-04
  867.00      2.62210E-04
  869.00      2.64170E-04
  871.00      2.64080E-04
  873.00      2.62910E-04
  875.00      2.57680E-04
  877.00      2.61000E-04
  879.00      2.62110E-04
  881.00      2.61720E-04
  883.00      2.60910E-04
  885.00      2.56460E-04
  887.00      2.50260E-04
  889.00      2.57050E-04
  891.00      2.57230E-04
  893.00      2.56180E-04
  895.00      2.55700E-04
  897.00      2.54360E-04
  899.00      2.51930E-04
  901.00      2.42030E-04
  903.00      2.45480E-04
  905.00      2.49540E-04
  907.00      2.49120E-04
  909.00      2.48410E-04
  911.00      2.46840E-04
  913.00      2.46490E-04
  915.00      2.45530E-04
  917.00      2.44440E-04
  919.00      2.42960E-04
  921.00      2.39490E-04
  923.00      2.27800E-04
  925.00      2.37040E-04
  927.00      2.38910E-04
  929.00      2.38600E-04
  931.00      2.37560E-04
  933.00      2.36450E-04
  935.00      2.30730E-04
  937.00      2.33590E-04
  939.00      2.33770E-04
  941.00      2.32870E-04
  943.00      2.31980E-04
  945.00      2.31070E-04
  947.00      2.30040E-04
  949.00      2.29220E-04
  951.00      2.27420E-04
  953.00      2.23660E-04
  955.00      2.12490E-04
  957.00      2.23130E-04
  959.00      2.24320E-04
  961.00      2.23840E-04
  963.00      2.22890E-04
  965.00      2.22130E-04
  967.00      2.21270E-04
  969.00      2.20410E-04
  971.00      2.19040E-04
  973.00      2.18650E-04
  975.00      2.17530E-04
  977.00      2.15510E-04
  979.00      2.16180E-04
  981.00      2.15350E-04
  983.00      2.14500E-04
  985.00      2.13700E-04
  987.00      2.12890E-04
  989.00      2.12070E-04
  991.00      2.11260E-04
  993.00      2.10460E-04
  995.00      2.09660E-04
  997.00      2.08870E-04
  999.00      2.08080E-04
  1002.5      2.03420E-04
  1007.5      1.99880E-04
  1012.5      1.99560E-04
  1017.5      2.00980E-04
  1022.5      1.99120E-04
  1027.5      1.97270E-04
  1032.5      1.95330E-04
  1037.5      1.93710E-04
  1042.5      1.90940E-04
  1047.5      1.90220E-04
  1052.5      1.88510E-04
  1057.5      1.86820E-04
  1062.5      1.85160E-04
  1067.5      1.83500E-04
  1072.5      1.81900E-04
  1077.5      1.80300E-04
  1082.5      1.78250E-04
  1087.5      1.77080E-04
  1092.5      1.69540E-04
  1097.5      1.72770E-04
  1102.5      1.72530E-04
  1107.5      1.71120E-04
  1112.5      1.69660E-04
  1117.5      1.68320E-04
  1122.5      1.66890E-04
  1127.5      1.65490E-04
  1132.5      1.64090E-04
  1137.5      1.62730E-04
  1142.5      1.61380E-04
  1147.5      1.60040E-04
  1152.5      1.58720E-04
  1157.5      1.57410E-04
  1162.5      1.54540E-04
  1167.5      1.53730E-04
  1172.5      1.53590E-04
  1177.5      1.52350E-04
  1182.5      1.51110E-04
  1187.5      1.49900E-04
  1192.5      1.48710E-04
  1197.5      1.47300E-04
  1202.5      1.46350E-04
  1207.5      1.45190E-04
  1212.5      1.44040E-04
  1217.5      1.42920E-04
  1222.5      1.41810E-04
  1227.5      1.40700E-04
  1232.5      1.39610E-04
  1237.5      1.38530E-04
  1242.5      1.37470E-04
  1247.5      1.36410E-04
  1252.5      1.35350E-04
  1257.5      1.34340E-04
  1262.5      1.33320E-04
  1267.5      1.32320E-04
  1272.5      1.31320E-04
  1277.5      1.29690E-04
  1282.5      1.24430E-04
  1287.5      1.28200E-04
  1292.5      1.27450E-04
  1297.5      1.26430E-04
  1302.5      1.25580E-04
  1307.5      1.24660E-04
  1312.5      1.23740E-04
  1317.5      1.22840E-04
  1322.5      1.21950E-04
  1327.5      1.21070E-04
  1332.5      1.20200E-04
  1337.5      1.19330E-04
  1342.5      1.18470E-04
  1347.5      1.17640E-04
  1352.5      1.16800E-04
  1357.5      1.15970E-04
  1362.5      1.15150E-04
  1367.5      1.14340E-04
  1372.5      1.13540E-04
  1377.5      1.12750E-04
  1382.5      1.11970E-04
  1387.5      1.11190E-04
  1392.5      1.10420E-04
  1397.5      1.09660E-04
