 Castelli and Kurucz 2004-2012 Atmosphere
 T     32000.     G    4.00000 [-0.5] N(He)/Ntot=0.0784 VTURB=2.0  L/H=1.25 NOV
 Wavelength  Eddington Hnu
   (nm)    (ergs/s/cm2/Hz/sr)
  9.0900      3.45600E-33
  9.3500      2.14630E-32
  9.6100      1.21380E-31
  9.7700      3.37760E-31
  9.9600      1.09260E-30
  10.200      4.53580E-30
  10.380      1.26690E-29
  10.560      3.42160E-29
  10.770      1.04720E-28
  11.040      4.15320E-28
  11.400      2.36340E-27
  11.780      1.32850E-26
  12.130      5.94190E-26
  12.480      2.45120E-25
  12.710      5.97320E-25
  12.840      9.74970E-25
  13.050      2.10900E-24
  13.240      4.15740E-24
  13.390      7.01230E-24
  13.660      1.75070E-23
  13.980      4.96390E-23
  14.330      1.47630E-22
  14.720      4.69860E-22
  15.100      1.37680E-21
  15.520      4.26940E-21
  15.880      1.07870E-20
  16.200      2.38630E-20
  16.600      6.18740E-20
  17.030      1.64370E-19
  17.340      3.23720E-19
  17.680      6.64030E-19
  18.020      1.32760E-18
  18.170      1.79050E-18
  18.610      4.18800E-18
  19.100      1.03450E-17
  19.390      1.73150E-17
  19.840      3.74780E-17
  20.180      6.57270E-17
  20.500      1.09760E-16
  21.050      2.56370E-16
  21.620      5.90940E-16
  21.980      9.82720E-16
  22.300      1.52300E-15
  22.680      2.52030E-15
  23.000      3.27840E-12
  23.400      8.90680E-12
  24.000      1.49750E-11
  24.650      2.69850E-11
  25.240      4.59710E-11
  25.680      5.87690E-11
  26.000      1.08390E-10
  26.400      1.78560E-10
  26.850      2.69890E-10
  27.350      3.78960E-10
  27.850      4.89110E-10
  28.400      9.83670E-10
  29.000      1.44650E-09
  29.600      1.94460E-09
  30.100      2.71390E-09
  30.800      5.50820E-09
  31.800      1.37290E-08
  32.800      2.06020E-08
  33.800      3.69250E-08
  34.800      5.82750E-08
  35.700      9.77640E-08
  36.600      1.63800E-07
  37.500      2.07230E-07
  38.500      2.96400E-07
  39.500      4.27900E-07
  40.500      5.54090E-07
  41.400      7.13090E-07
  42.200      8.33210E-07
  43.000      9.95220E-07
  44.100      1.29740E-06
  45.100      1.57760E-06
  46.000      1.81310E-06
  47.000      2.22540E-06
  48.000      2.70560E-06
  49.000      3.13900E-06
  50.000      3.87940E-06
  50.600      1.10780E-05
  51.200      5.46500E-05
  52.000      5.29800E-05
  53.000      5.02670E-05
  54.000      4.79290E-05
  55.000      5.71770E-05
  56.000      7.07780E-05
  57.000      7.65260E-05
  58.000      7.28860E-05
  59.000      8.00770E-05
  60.000      7.28990E-05
  61.000      8.55820E-05
  62.000      1.00380E-04
  63.000      1.01550E-04
  64.000      1.04510E-04
  65.000      1.08060E-04
  65.800      1.01400E-04
  66.500      1.13870E-04
  67.500      1.24720E-04
  68.500      1.11380E-04
  69.500      1.36510E-04
  70.500      1.23990E-04
  71.600      1.52230E-04
  72.600      1.54120E-04
  73.500      1.59680E-04
  74.500      1.61050E-04
  75.500      1.65090E-04
  76.500      1.71450E-04
  77.500      1.79460E-04
  78.500      1.89390E-04
  79.500      1.94150E-04
  80.500      1.94950E-04
  81.500      2.00020E-04
  82.500      2.11960E-04
  83.500      1.91650E-04
  84.500      2.17500E-04
  85.500      2.22450E-04
  86.500      2.32770E-04
  87.500      2.39550E-04
  88.500      2.47670E-04
  89.500      2.55190E-04
  90.500      2.55820E-04
  91.500      2.96890E-04
  92.500      9.55590E-04
  93.500      1.46500E-03
  94.500      1.92580E-03
  95.500      2.09910E-03
  96.500      2.37180E-03
  97.500      1.28660E-03
  98.500      2.14460E-03
  99.500      2.01980E-03
  100.50      2.11640E-03
  101.50      2.19820E-03
  102.50      1.79830E-03
  103.50      2.20030E-03
  104.50      2.44920E-03
  105.50      2.41060E-03
  106.50      2.22380E-03
  107.50      2.30250E-03
  108.50      2.18480E-03
  109.50      2.33640E-03
  110.50      2.28380E-03
  111.50      2.28170E-03
  112.50      2.04690E-03
  113.50      2.27790E-03
  114.50      2.21710E-03
  115.50      2.19050E-03
  116.50      2.17340E-03
  117.50      1.64820E-03
  118.50      2.06570E-03
  119.50      2.05460E-03
  120.50      1.99790E-03
  121.50      1.60980E-03
  122.50      2.00040E-03
  123.50      2.12080E-03
  124.50      2.08090E-03
  125.50      2.10200E-03
  126.50      2.15350E-03
  127.50      2.18690E-03
  128.50      2.19920E-03
  129.50      2.10010E-03
  130.50      2.11950E-03
  131.50      2.19870E-03
  132.50      2.15500E-03
  133.50      2.12390E-03
  134.50      2.15490E-03
  135.50      2.13110E-03
  136.50      2.09820E-03
  137.50      2.08370E-03
  138.50      2.06210E-03
  139.50      1.81410E-03
  140.50      1.84510E-03
  141.50      2.02290E-03
  142.50      1.89080E-03
  143.50      1.98320E-03
  144.20      1.99340E-03
  144.70      1.98600E-03
  145.50      1.93700E-03
  146.50      1.93000E-03
  147.50      1.93440E-03
  148.50      1.95100E-03
  149.50      1.91590E-03
  150.50      1.90540E-03
  151.20      1.88850E-03
  151.70      1.89470E-03
  152.50      1.86320E-03
  153.50      1.70910E-03
  154.50      1.56870E-03
  155.50      1.57290E-03
  156.50      1.68530E-03
  157.50      1.75700E-03
  158.50      1.77800E-03
  159.50      1.77490E-03
  160.50      1.69220E-03
  161.50      1.65440E-03
  162.50      1.68980E-03
  163.50      1.70900E-03
  164.50      1.68570E-03
  165.50      1.74190E-03
  166.50      1.72850E-03
  167.20      1.64810E-03
  167.70      1.81710E-03
  168.50      1.76840E-03
  169.50      1.74110E-03
  170.50      1.72740E-03
  171.50      1.68950E-03
  172.50      1.66050E-03
  173.50      1.71850E-03
  174.50      1.70900E-03
  175.50      1.69370E-03
  176.50      1.69020E-03
  177.50      1.67310E-03
  178.50      1.68860E-03
  179.50      1.66990E-03
  180.50      1.67970E-03
  181.50      1.65470E-03
  182.50      1.64720E-03
  183.50      1.65790E-03
  184.50      1.60220E-03
  185.50      1.60810E-03
  186.50      1.61620E-03
  187.50      1.60680E-03
  188.50      1.55970E-03
  189.50      1.54510E-03
  190.50      1.58170E-03
  191.50      1.55440E-03
  192.50      1.49990E-03
  193.50      1.55790E-03
  194.50      1.57550E-03
  195.50      1.49330E-03
  196.70      1.54180E-03
  197.60      1.56560E-03
  198.40      1.53180E-03
  199.50      1.50360E-03
  200.50      1.53300E-03
  201.50      1.53760E-03
  202.50      1.53800E-03
  203.50      1.50850E-03
  204.50      1.50040E-03
  205.50      1.26900E-03
  206.50      1.24070E-03
  207.40      1.29210E-03
  207.80      1.29190E-03
  208.50      1.36760E-03
  209.50      1.43130E-03
  210.50      1.45630E-03
  211.50      1.46990E-03
  212.50      1.45870E-03
  213.50      1.45640E-03
  214.50      1.44520E-03
  215.50      1.45480E-03
  216.50      1.41900E-03
  217.50      1.44250E-03
  218.50      1.41570E-03
  219.50      1.43510E-03
  220.50      1.42680E-03
  221.50      1.39580E-03
  222.50      1.40930E-03
  223.50      1.40030E-03
  224.50      1.39280E-03
  225.50      1.36530E-03
  226.50      1.37950E-03
  227.50      1.37370E-03
  228.50      1.35930E-03
  229.50      1.28880E-03
  230.50      1.32750E-03
  231.50      1.33690E-03
  232.50      1.33360E-03
  233.50      1.32480E-03
  234.50      1.31970E-03
  235.50      1.31090E-03
  236.50      1.30350E-03
  237.50      1.29360E-03
  238.50      1.26230E-03
  239.50      1.27220E-03
  240.50      1.27350E-03
  241.50      1.26620E-03
  242.50      1.26240E-03
  243.50      1.25260E-03
  244.50      1.24750E-03
  245.50      1.24030E-03
  246.50      1.23480E-03
  247.50      1.22810E-03
  248.50      1.21530E-03
  249.50      1.05080E-03
  250.50      1.19570E-03
  251.30      1.15440E-03
  251.80      1.17930E-03
  252.50      1.19530E-03
  253.50      1.19150E-03
  254.50      1.17950E-03
  255.50      1.17480E-03
  256.50      1.17130E-03
  257.50      1.16530E-03
  258.50      1.15990E-03
  259.50      1.15190E-03
  260.50      1.15090E-03
  261.50      1.14240E-03
  262.50      1.13860E-03
  263.50      1.13270E-03
  264.50      1.12540E-03
  265.50      1.11990E-03
  266.50      1.10980E-03
  267.50      1.10040E-03
  268.50      1.10330E-03
  269.50      1.09020E-03
  270.50      1.08940E-03
  271.50      1.08290E-03
  272.50      1.07580E-03
  273.50      1.06040E-03
  274.50      1.06980E-03
  275.50      1.06470E-03
  276.50      1.05390E-03
  277.50      1.05570E-03
  278.50      1.04880E-03
  279.50      1.03160E-03
  280.50      1.03530E-03
  281.50      1.03440E-03
  282.50      1.02450E-03
  283.50      1.01760E-03
  284.50      1.01960E-03
  285.50      1.01340E-03
  286.50      1.00740E-03
  287.50      1.00320E-03
  288.50      9.98600E-04
  289.50      9.93440E-04
  291.00      9.84430E-04
  293.00      9.77250E-04
  295.00      9.63050E-04
  297.00      9.57160E-04
  299.00      9.45400E-04
  301.00      9.35590E-04
  303.00      9.26050E-04
  305.00      9.19530E-04
  307.00      9.13220E-04
  309.00      8.99870E-04
  311.00      8.95720E-04
  313.00      8.86610E-04
  315.00      8.78350E-04
  317.00      8.70120E-04
  319.00      8.59870E-04
  321.00      8.50310E-04
  323.00      8.47100E-04
  325.00      8.40770E-04
  327.00      8.30620E-04
  329.00      8.24560E-04
  331.00      8.17630E-04
  333.00      8.09200E-04
  335.00      8.00720E-04
  337.00      7.94940E-04
  339.00      7.89890E-04
  341.00      7.82840E-04
  343.00      7.74780E-04
  345.00      7.65600E-04
  347.00      7.60730E-04
  349.00      7.54010E-04
  351.00      7.49040E-04
  353.00      7.43380E-04
  355.00      7.36710E-04
  357.00      7.32650E-04
  359.00      7.23100E-04
  361.00      7.17760E-04
  363.00      7.11020E-04
  364.00      7.08290E-04
  365.00      6.84210E-04
  367.00      6.80710E-04
  369.00      6.74650E-04
  371.00      6.63410E-04
  373.00      6.53240E-04
  375.00      6.67880E-04
  377.00      6.66640E-04
  379.00      6.87470E-04
  381.00      7.07110E-04
  383.00      6.52970E-04
  385.00      7.16240E-04
  387.00      7.12640E-04
  389.00      6.37870E-04
  391.00      7.12040E-04
  393.00      7.01190E-04
  395.00      6.97090E-04
  397.00      6.14040E-04
  399.00      6.88300E-04
  401.00      6.83370E-04
  403.00      6.64410E-04
  405.00      6.76270E-04
  407.00      6.63720E-04
  409.00      6.39830E-04
  411.00      5.93930E-04
  413.00      6.47780E-04
  415.00      6.44790E-04
  417.00      6.44080E-04
  419.00      6.38350E-04
  421.00      6.32230E-04
  423.00      6.30640E-04
  425.00      6.23560E-04
  427.00      6.16380E-04
  429.00      6.13430E-04
  431.00      6.06160E-04
  433.00      5.80550E-04
  435.00      5.47220E-04
  437.00      5.93160E-04
  439.00      5.83950E-04
  441.00      5.84950E-04
  443.00      5.82680E-04
  445.00      5.78620E-04
  447.00      5.62760E-04
  449.00      5.70050E-04
  451.00      5.65260E-04
  453.00      5.62030E-04
  455.00      5.54680E-04
  457.00      5.54060E-04
  459.00      5.49050E-04
  461.00      5.45070E-04
  463.00      5.39540E-04
  465.00      5.24990E-04
  467.00      5.32100E-04
  469.00      5.22660E-04
  471.00      5.20740E-04
  473.00      5.23630E-04
  475.00      5.19540E-04
  477.00      5.16840E-04
  479.00      5.13130E-04
  481.00      5.09130E-04
  483.00      5.04340E-04
  485.00      4.87340E-04
  487.00      4.52530E-04
  489.00      4.93720E-04
  491.00      4.91310E-04
  493.00      4.81630E-04
  495.00      4.83970E-04
  497.00      4.81990E-04
  499.00      4.78650E-04
  501.00      4.70360E-04
  503.00      4.71720E-04
  505.00      4.67160E-04
  507.00      4.65820E-04
  509.00      4.62590E-04
  511.00      4.59470E-04
  513.00      4.56170E-04
  515.00      4.53130E-04
  517.00      4.50180E-04
  519.00      4.47370E-04
  521.00      4.44500E-04
  523.00      4.41550E-04
  525.00      4.38340E-04
  527.00      4.35450E-04
  529.00      4.32960E-04
  531.00      4.30110E-04
  533.00      4.27350E-04
  535.00      4.24600E-04
  537.00      4.21890E-04
  539.00      4.19100E-04
  541.00      4.14080E-04
  543.00      4.13860E-04
  545.00      4.11190E-04
  547.00      4.08560E-04
  549.00      4.05990E-04
  551.00      4.03440E-04
  553.00      4.00890E-04
  555.00      3.98470E-04
  557.00      3.95920E-04
  559.00      3.93160E-04
  561.00      3.91060E-04
  563.00      3.88660E-04
  565.00      3.86190E-04
  567.00      3.83590E-04
  569.00      3.78760E-04
  571.00      3.73630E-04
  573.00      3.71520E-04
  575.00      3.69090E-04
  577.00      3.67270E-04
  579.00      3.65080E-04
  581.00      3.62870E-04
  583.00      3.60750E-04
  585.00      3.59390E-04
  587.00      3.50860E-04
  589.00      3.55560E-04
  591.00      3.54330E-04
  593.00      3.52710E-04
  595.00      3.51180E-04
  597.00      3.49900E-04
  599.00      3.48390E-04
  601.00      3.46630E-04
  603.00      3.44500E-04
  605.00      3.42550E-04
  607.00      3.40670E-04
  609.00      3.38700E-04
  611.00      3.36710E-04
  613.00      3.34810E-04
  615.00      3.32690E-04
  617.00      3.30800E-04
  619.00      3.29080E-04
  621.00      3.27230E-04
  623.00      3.25330E-04
  625.00      3.23470E-04
  627.00      3.21690E-04
  629.00      3.19900E-04
  631.00      3.17950E-04
  633.00      3.16330E-04
  635.00      3.14500E-04
  637.00      3.12810E-04
  639.00      3.11050E-04
  641.00      3.09140E-04
  643.00      3.07640E-04
  645.00      3.05910E-04
  647.00      3.04070E-04
  649.00      3.02460E-04
  651.00      3.00880E-04
  653.00      2.98340E-04
  655.00      2.92810E-04
  657.00      2.69400E-04
  659.00      2.93040E-04
  661.00      2.92780E-04
  663.00      2.91280E-04
  665.00      2.89730E-04
  667.00      2.86100E-04
  669.00      2.84320E-04
  671.00      2.84970E-04
  673.00      2.83390E-04
  675.00      2.82050E-04
  677.00      2.80670E-04
  679.00      2.78960E-04
  681.00      2.77720E-04
  683.00      2.76250E-04
  685.00      2.74830E-04
  687.00      2.73380E-04
  689.00      2.71450E-04
  691.00      2.70400E-04
  693.00      2.69190E-04
  695.00      2.67800E-04
  697.00      2.66420E-04
  699.00      2.65050E-04
  701.00      2.63660E-04
  703.00      2.62170E-04
  705.00      2.60950E-04
  707.00      2.56640E-04
  709.00      2.58370E-04
  711.00      2.57020E-04
  713.00      2.55740E-04
  715.00      2.54480E-04
  717.00      2.52860E-04
  719.00      2.51810E-04
  721.00      2.50680E-04
  723.00      2.48630E-04
  725.00      2.48080E-04
  727.00      2.46960E-04
  729.00      2.44290E-04
  731.00      2.44490E-04
  733.00      2.43310E-04
  735.00      2.42120E-04
  737.00      2.40940E-04
  739.00      2.39760E-04
  741.00      2.38590E-04
  743.00      2.37430E-04
  745.00      2.36280E-04
  747.00      2.35020E-04
  749.00      2.33860E-04
  751.00      2.32830E-04
  753.00      2.31750E-04
  755.00      2.30660E-04
  757.00      2.29540E-04
  759.00      2.28010E-04
  761.00      2.27260E-04
  763.00      2.26270E-04
  765.00      2.25200E-04
  767.00      2.24150E-04
  769.00      2.23010E-04
  771.00      2.22010E-04
  773.00      2.20880E-04
  775.00      2.19960E-04
  777.00      2.18930E-04
  779.00      2.17920E-04
  781.00      2.16830E-04
  783.00      2.15900E-04
  785.00      2.15020E-04
  787.00      2.13930E-04
  789.00      2.12880E-04
  791.00      2.12040E-04
  793.00      2.11040E-04
  795.00      2.10120E-04
  797.00      2.09040E-04
  799.00      2.08170E-04
  801.00      2.07170E-04
  803.00      2.06170E-04
  805.00      2.05290E-04
  807.00      2.04370E-04
  809.00      2.03270E-04
  811.00      2.02140E-04
  813.00      2.01630E-04
  815.00      2.00510E-04
  817.00      1.99860E-04
  819.00      1.98590E-04
  821.00      1.96520E-04
  823.00      1.95540E-04
  825.00      1.95130E-04
  827.00      1.93640E-04
  829.00      1.93380E-04
  831.00      1.92610E-04
  833.00      1.91640E-04
  835.00      1.90250E-04
  837.00      1.89840E-04
  839.00      1.89220E-04
  841.00      1.88400E-04
  843.00      1.87500E-04
  845.00      1.85980E-04
  847.00      1.85800E-04
  849.00      1.84940E-04
  851.00      1.83670E-04
  853.00      1.83500E-04
  855.00      1.81330E-04
  857.00      1.83170E-04
  859.00      1.78920E-04
  861.00      1.78860E-04
  863.00      1.81820E-04
  865.00      1.78890E-04
  867.00      1.72280E-04
  869.00      1.79710E-04
  871.00      1.80210E-04
  873.00      1.77130E-04
  875.00      1.66390E-04
  877.00      1.74310E-04
  879.00      1.77790E-04
  881.00      1.77360E-04
  883.00      1.76220E-04
  885.00      1.69520E-04
  887.00      1.61020E-04
  889.00      1.73060E-04
  891.00      1.73790E-04
  893.00      1.73290E-04
  895.00      1.72850E-04
  897.00      1.71860E-04
  899.00      1.69100E-04
  901.00      1.56440E-04
  903.00      1.62340E-04
  905.00      1.68440E-04
  907.00      1.67470E-04
  909.00      1.67680E-04
  911.00      1.67370E-04
  913.00      1.66760E-04
  915.00      1.66090E-04
  917.00      1.65090E-04
  919.00      1.64150E-04
  921.00      1.59770E-04
  923.00      1.46560E-04
  925.00      1.58790E-04
  927.00      1.61410E-04
  929.00      1.61340E-04
  931.00      1.60330E-04
  933.00      1.60060E-04
  935.00      1.58910E-04
  937.00      1.58850E-04
  939.00      1.58260E-04
  941.00      1.57600E-04
  943.00      1.56990E-04
  945.00      1.56370E-04
  947.00      1.55170E-04
  949.00      1.55050E-04
  951.00      1.52950E-04
  953.00      1.48980E-04
  955.00      1.37310E-04
  957.00      1.50060E-04
  959.00      1.51620E-04
  961.00      1.51190E-04
  963.00      1.50410E-04
  965.00      1.50400E-04
  967.00      1.49820E-04
  969.00      1.49170E-04
  971.00      1.47570E-04
  973.00      1.48000E-04
  975.00      1.47530E-04
  977.00      1.46960E-04
  979.00      1.46400E-04
  981.00      1.45820E-04
  983.00      1.45290E-04
  985.00      1.44730E-04
  987.00      1.44170E-04
  989.00      1.43580E-04
  991.00      1.42840E-04
  993.00      1.42560E-04
  995.00      1.42030E-04
  997.00      1.41460E-04
  999.00      1.40940E-04
  1002.5      1.36170E-04
  1007.5      1.33450E-04
  1012.5      1.36640E-04
  1017.5      1.36200E-04
  1022.5      1.34910E-04
  1027.5      1.33720E-04
  1032.5      1.32130E-04
  1037.5      1.31310E-04
  1042.5      1.30120E-04
  1047.5      1.28960E-04
  1052.5      1.27810E-04
  1057.5      1.26680E-04
  1062.5      1.25560E-04
  1067.5      1.24310E-04
  1072.5      1.23360E-04
  1077.5      1.22290E-04
  1082.5      1.20270E-04
  1087.5      1.20040E-04
  1092.5      1.12490E-04
  1097.5      1.16610E-04
  1102.5      1.16670E-04
  1107.5      1.16080E-04
  1112.5      1.15120E-04
  1117.5      1.14160E-04
  1122.5      1.13160E-04
  1127.5      1.12250E-04
  1132.5      1.11290E-04
  1137.5      1.10380E-04
  1142.5      1.09470E-04
  1147.5      1.08580E-04
  1152.5      1.07690E-04
  1157.5      1.06800E-04
  1162.5      1.05800E-04
  1167.5      1.05010E-04
  1172.5      1.04240E-04
  1177.5      1.03400E-04
  1182.5      1.02570E-04
  1187.5      1.01750E-04
  1192.5      1.00950E-04
  1197.5      9.94590E-05
  1202.5      9.93610E-05
  1207.5      9.85800E-05
  1212.5      9.78030E-05
  1217.5      9.70490E-05
  1222.5      9.62970E-05
  1227.5      9.55530E-05
  1232.5      9.48170E-05
  1237.5      9.40890E-05
  1242.5      9.33730E-05
  1247.5      9.26570E-05
  1252.5      9.18200E-05
  1257.5      9.12560E-05
  1262.5      9.05720E-05
  1267.5      8.98990E-05
  1272.5      8.92260E-05
  1277.5      8.75280E-05
  1282.5      8.30260E-05
  1287.5      8.69810E-05
  1292.5      8.66140E-05
  1297.5      8.55830E-05
  1302.5      8.53370E-05
  1307.5      8.47300E-05
  1312.5      8.41160E-05
  1317.5      8.35080E-05
  1322.5      8.29060E-05
  1327.5      8.23110E-05
  1332.5      8.17210E-05
  1337.5      8.11310E-05
  1342.5      8.05100E-05
  1347.5      7.99910E-05
  1352.5      7.94190E-05
  1357.5      7.88700E-05
  1362.5      7.83020E-05
  1367.5      7.77710E-05
  1372.5      7.72140E-05
  1377.5      7.66960E-05
  1382.5      7.61660E-05
  1387.5      7.56410E-05
  1392.5      7.51100E-05
  1397.5      7.46060E-05
