 Castelli and Kurucz 2004-2012 Atmosphere
 T     39000.     G    4.50000 [-0.5] N(He)/Ntot=0.0784 VTURB=2.0  L/H=1.25 NOV
 Wavelength  Eddington Hnu
   (nm)    (ergs/s/cm2/Hz/sr)
  9.0900      1.43250E-25
  9.3500      5.41000E-25
  9.6100      1.90580E-24
  9.7700      4.03600E-24
  9.9600      9.52330E-24
  10.200      2.70280E-23
  10.380      5.75240E-23
  10.560      1.19630E-22
  10.770      2.73450E-22
  11.040      7.59850E-22
  11.400      2.77820E-21
  11.780      1.01480E-20
  12.130      3.14460E-20
  12.480      9.22120E-20
  12.710      1.82050E-19
  12.840      2.64840E-19
  13.050      4.78170E-19
  13.240      8.04800E-19
  13.390      1.20350E-18
  13.660      2.43400E-18
  13.980      5.45400E-18
  14.330      1.26840E-17
  14.720      3.09890E-17
  15.100      7.19560E-17
  15.520      1.73690E-16
  15.880      3.57550E-16
  16.200      6.62600E-16
  16.600      1.39370E-15
  17.030      2.98040E-15
  17.340      5.04870E-15
  17.680      8.83490E-15
  18.020      1.51370E-14
  18.170      1.90370E-14
  18.610      3.69160E-14
  19.100      7.44050E-14
  19.390      1.10950E-13
  19.840      2.01520E-13
  20.180      3.10670E-13
  20.500      4.61860E-13
  21.050      8.87990E-13
  21.620      1.68670E-12
  21.980      2.49570E-12
  22.300      3.49090E-12
  22.680      5.12530E-12
  23.000      3.04300E-09
  23.400      1.29990E-08
  24.000      2.27390E-08
  24.650      3.93240E-08
  25.240      7.41070E-08
  25.680      9.12220E-08
  26.000      1.78230E-07
  26.400      1.41510E-06
  26.850      2.13060E-06
  27.350      2.69440E-06
  27.850      1.80320E-06
  28.400      4.63410E-06
  29.000      6.42790E-06
  29.600      4.15590E-06
  30.100      2.39900E-06
  30.800      1.10860E-05
  31.800      1.24560E-05
  32.800      1.92770E-05
  33.800      1.86820E-05
  34.800      2.23540E-05
  35.700      4.84650E-05
  36.600      8.28230E-05
  37.500      1.00910E-04
  38.500      9.97370E-05
  39.500      1.43730E-04
  40.500      1.85120E-04
  41.400      1.89380E-04
  42.200      1.90990E-04
  43.000      1.83610E-04
  44.100      2.16860E-04
  45.100      2.32870E-04
  46.000      2.17280E-04
  47.000      2.28250E-04
  48.000      2.58150E-04
  49.000      2.30070E-04
  50.000      2.83070E-04
  50.600      3.03080E-04
  51.200      6.31570E-04
  52.000      6.01770E-04
  53.000      5.71270E-04
  54.000      5.28040E-04
  55.000      5.27010E-04
  56.000      6.92140E-04
  57.000      7.49330E-04
  58.000      7.35440E-04
  59.000      7.71860E-04
  60.000      6.94040E-04
  61.000      7.26980E-04
  62.000      8.77710E-04
  63.000      8.65200E-04
  64.000      9.30580E-04
  65.000      9.16890E-04
  65.800      8.52650E-04
  66.500      9.53250E-04
  67.500      1.02390E-03
  68.500      9.32240E-04
  69.500      1.04500E-03
  70.500      9.50480E-04
  71.600      1.11390E-03
  72.600      1.13630E-03
  73.500      1.16440E-03
  74.500      1.13730E-03
  75.500      1.14760E-03
  76.500      1.12380E-03
  77.500      1.18190E-03
  78.500      1.16630E-03
  79.500      1.22260E-03
  80.500      1.23130E-03
  81.500      1.25670E-03
  82.500      1.28650E-03
  83.500      1.17520E-03
  84.500      1.29950E-03
  85.500      1.29620E-03
  86.500      1.34190E-03
  87.500      1.35780E-03
  88.500      1.36500E-03
  89.500      1.37820E-03
  90.500      1.36990E-03
  91.500      1.15890E-03
  92.500      2.11570E-03
  93.500      2.91780E-03
  94.500      3.55590E-03
  95.500      3.93490E-03
  96.500      4.42370E-03
  97.500      3.23720E-03
  98.500      4.15960E-03
  99.500      3.85580E-03
  100.50      3.97820E-03
  101.50      4.11980E-03
  102.50      3.50830E-03
  103.50      4.20410E-03
  104.50      4.37560E-03
  105.50      4.33920E-03
  106.50      4.17140E-03
  107.50      4.21660E-03
  108.50      4.00220E-03
  109.50      4.20240E-03
  110.50      4.12180E-03
  111.50      4.10270E-03
  112.50      3.93150E-03
  113.50      4.10010E-03
  114.50      4.08720E-03
  115.50      3.94850E-03
  116.50      3.87750E-03
  117.50      3.38490E-03
  118.50      3.73720E-03
  119.50      3.70190E-03
  120.50      3.66490E-03
  121.50      3.05000E-03
  122.50      3.58430E-03
  123.50      3.66690E-03
  124.50      3.63370E-03
  125.50      3.66440E-03
  126.50      3.70470E-03
  127.50      3.72740E-03
  128.50      3.72970E-03
  129.50      3.67580E-03
  130.50      3.63800E-03
  131.50      3.67860E-03
  132.50      3.63810E-03
  133.50      3.61680E-03
  134.50      3.62490E-03
  135.50      3.54150E-03
  136.50      3.48080E-03
  137.50      3.43020E-03
  138.50      3.42760E-03
  139.50      3.31090E-03
  140.50      3.23400E-03
  141.50      3.40580E-03
  142.50      3.22690E-03
  143.50      3.33560E-03
  144.20      3.28820E-03
  144.70      3.28610E-03
  145.50      3.22160E-03
  146.50      3.23490E-03
  147.50      3.22120E-03
  148.50      3.25550E-03
  149.50      3.20240E-03
  150.50      3.22140E-03
  151.20      3.22040E-03
  151.70      3.18530E-03
  152.50      3.15910E-03
  153.50      2.98730E-03
  154.50      2.68640E-03
  155.50      2.72960E-03
  156.50      2.88670E-03
  157.50      2.96110E-03
  158.50      2.96180E-03
  159.50      2.95770E-03
  160.50      2.84440E-03
  161.50      2.79550E-03
  162.50      2.81480E-03
  163.50      2.80470E-03
  164.50      2.72790E-03
  165.50      2.86000E-03
  166.50      2.83770E-03
  167.20      2.72380E-03
  167.70      2.90810E-03
  168.50      2.86650E-03
  169.50      2.84950E-03
  170.50      2.81170E-03
  171.50      2.74510E-03
  172.50      2.72770E-03
  173.50      2.79610E-03
  174.50      2.77960E-03
  175.50      2.74100E-03
  176.50      2.74180E-03
  177.50      2.72150E-03
  178.50      2.72680E-03
  179.50      2.68520E-03
  180.50      2.67950E-03
  181.50      2.66170E-03
  182.50      2.63780E-03
  183.50      2.64440E-03
  184.50      2.62330E-03
  185.50      2.60870E-03
  186.50      2.59380E-03
  187.50      2.56360E-03
  188.50      2.54520E-03
  189.50      2.55890E-03
  190.50      2.55320E-03
  191.50      2.53430E-03
  192.50      2.46370E-03
  193.50      2.50930E-03
  194.50      2.49890E-03
  195.50      2.44900E-03
  196.70      2.45900E-03
  197.60      2.44800E-03
  198.40      2.43970E-03
  199.50      2.41780E-03
  200.50      2.41440E-03
  201.50      2.39960E-03
  202.50      2.38350E-03
  203.50      2.36620E-03
  204.50      2.34500E-03
  205.50      1.80190E-03
  206.50      1.74560E-03
  207.40      1.79790E-03
  207.80      1.84310E-03
  208.50      1.98360E-03
  209.50      2.20280E-03
  210.50      2.25830E-03
  211.50      2.26460E-03
  212.50      2.24100E-03
  213.50      2.23480E-03
  214.50      2.22440E-03
  215.50      2.24540E-03
  216.50      2.15720E-03
  217.50      2.23340E-03
  218.50      2.15250E-03
  219.50      2.21110E-03
  220.50      2.19930E-03
  221.50      2.11330E-03
  222.50      2.17140E-03
  223.50      2.16020E-03
  224.50      2.14280E-03
  225.50      2.06750E-03
  226.50      2.12030E-03
  227.50      2.11050E-03
  228.50      2.08830E-03
  229.50      2.03640E-03
  230.50      2.00720E-03
  231.50      2.04990E-03
  232.50      2.04550E-03
  233.50      2.03390E-03
  234.50      2.01880E-03
  235.50      2.00450E-03
  236.50      1.99170E-03
  237.50      1.97480E-03
  238.50      1.89630E-03
  239.50      1.94030E-03
  240.50      1.93920E-03
  241.50      1.92970E-03
  242.50      1.92570E-03
  243.50      1.91170E-03
  244.50      1.90140E-03
  245.50      1.88540E-03
  246.50      1.87920E-03
  247.50      1.87140E-03
  248.50      1.85460E-03
  249.50      1.70260E-03
  250.50      1.82570E-03
  251.30      1.71490E-03
  251.80      1.79350E-03
  252.50      1.80910E-03
  253.50      1.80740E-03
  254.50      1.79780E-03
  255.50      1.78610E-03
  256.50      1.77710E-03
  257.50      1.76660E-03
  258.50      1.75720E-03
  259.50      1.73750E-03
  260.50      1.73880E-03
  261.50      1.72430E-03
  262.50      1.72000E-03
  263.50      1.71130E-03
  264.50      1.69950E-03
  265.50      1.69200E-03
  266.50      1.68080E-03
  267.50      1.66290E-03
  268.50      1.66210E-03
  269.50      1.65090E-03
  270.50      1.64710E-03
  271.50      1.63560E-03
  272.50      1.62590E-03
  273.50      1.57530E-03
  274.50      1.61180E-03
  275.50      1.60250E-03
  276.50      1.59140E-03
  277.50      1.58570E-03
  278.50      1.57490E-03
  279.50      1.56020E-03
  280.50      1.55850E-03
  281.50      1.55170E-03
  282.50      1.54070E-03
  283.50      1.53430E-03
  284.50      1.52870E-03
  285.50      1.52040E-03
  286.50      1.51080E-03
  287.50      1.50370E-03
  288.50      1.49630E-03
  289.50      1.48810E-03
  291.00      1.47550E-03
  293.00      1.46200E-03
  295.00      1.44470E-03
  297.00      1.43000E-03
  299.00      1.41150E-03
  301.00      1.39860E-03
  303.00      1.38010E-03
  305.00      1.36920E-03
  307.00      1.35730E-03
  309.00      1.34490E-03
  311.00      1.33210E-03
  313.00      1.31860E-03
  315.00      1.30760E-03
  317.00      1.29400E-03
  319.00      1.28020E-03
  321.00      1.25200E-03
  323.00      1.25870E-03
  325.00      1.24720E-03
  327.00      1.22850E-03
  329.00      1.22210E-03
  331.00      1.21020E-03
  333.00      1.19900E-03
  335.00      1.18420E-03
  337.00      1.17630E-03
  339.00      1.16650E-03
  341.00      1.15540E-03
  343.00      1.14640E-03
  345.00      1.13240E-03
  347.00      1.12540E-03
  349.00      1.11530E-03
  351.00      1.10540E-03
  353.00      1.09460E-03
  355.00      1.08450E-03
  357.00      1.07650E-03
  359.00      1.06510E-03
  361.00      1.05550E-03
  363.00      1.04540E-03
  364.00      1.02550E-03
  365.00      9.45460E-04
  367.00      9.38760E-04
  369.00      9.33270E-04
  371.00      9.30270E-04
  373.00      9.35750E-04
  375.00      9.47710E-04
  377.00      9.53750E-04
  379.00      9.73300E-04
  381.00      9.90670E-04
  383.00      9.39430E-04
  385.00      9.91950E-04
  387.00      9.93340E-04
  389.00      9.10020E-04
  391.00      9.84840E-04
  393.00      9.69950E-04
  395.00      9.67100E-04
  397.00      8.76200E-04
  399.00      9.52410E-04
  401.00      9.46800E-04
  403.00      9.20900E-04
  405.00      9.34900E-04
  407.00      9.24040E-04
  409.00      8.92540E-04
  411.00      8.41940E-04
  413.00      8.99970E-04
  415.00      8.94070E-04
  417.00      8.89850E-04
  419.00      8.79380E-04
  421.00      8.64190E-04
  423.00      8.69620E-04
  425.00      8.62160E-04
  427.00      8.55100E-04
  429.00      8.48510E-04
  431.00      8.39900E-04
  433.00      8.07410E-04
  435.00      7.73770E-04
  437.00      8.20160E-04
  439.00      8.09630E-04
  441.00      8.07820E-04
  443.00      8.02850E-04
  445.00      7.96800E-04
  447.00      7.81460E-04
  449.00      7.84650E-04
  451.00      7.77030E-04
  453.00      7.71080E-04
  455.00      7.54450E-04
  457.00      7.61410E-04
  459.00      7.55180E-04
  461.00      7.49950E-04
  463.00      7.42060E-04
  465.00      7.27260E-04
  467.00      7.31920E-04
  469.00      7.05440E-04
  471.00      7.20090E-04
  473.00      7.18540E-04
  475.00      7.13290E-04
  477.00      7.08110E-04
  479.00      7.03010E-04
  481.00      6.97880E-04
  483.00      6.91960E-04
  485.00      6.71170E-04
  487.00      6.33770E-04
  489.00      6.76420E-04
  491.00      6.72980E-04
  493.00      6.63770E-04
  495.00      6.63630E-04
  497.00      6.59320E-04
  499.00      6.54790E-04
  501.00      6.47340E-04
  503.00      6.45420E-04
  505.00      6.40290E-04
  507.00      6.36780E-04
  509.00      6.32450E-04
  511.00      6.28150E-04
  513.00      6.23810E-04
  515.00      6.19570E-04
  517.00      6.15370E-04
  519.00      6.11230E-04
  521.00      6.07140E-04
  523.00      6.03100E-04
  525.00      5.98710E-04
  527.00      5.94600E-04
  529.00      5.91120E-04
  531.00      5.87210E-04
  533.00      5.83300E-04
  535.00      5.79510E-04
  537.00      5.75700E-04
  539.00      5.71910E-04
  541.00      5.58770E-04
  543.00      5.64490E-04
  545.00      5.60880E-04
  547.00      5.57220E-04
  549.00      5.53680E-04
  551.00      5.49920E-04
  553.00      5.46620E-04
  555.00      5.43140E-04
  557.00      5.39590E-04
  559.00      5.35350E-04
  561.00      5.32890E-04
  563.00      5.29540E-04
  565.00      5.26210E-04
  567.00      5.22900E-04
  569.00      5.13240E-04
  571.00      4.87770E-04
  573.00      4.84970E-04
  575.00      4.82160E-04
  577.00      4.79510E-04
  579.00      4.76970E-04
  581.00      4.73890E-04
  583.00      4.72890E-04
  585.00      4.72070E-04
  587.00      4.66360E-04
  589.00      4.70470E-04
  591.00      4.70170E-04
  593.00      4.70060E-04
  595.00      4.70260E-04
  597.00      4.70560E-04
  599.00      4.71020E-04
  601.00      4.69860E-04
  603.00      4.67770E-04
  605.00      4.66290E-04
  607.00      4.63410E-04
  609.00      4.61080E-04
  611.00      4.58020E-04
  613.00      4.55380E-04
  615.00      4.53110E-04
  617.00      4.49350E-04
  619.00      4.47920E-04
  621.00      4.45360E-04
  623.00      4.41470E-04
  625.00      4.39960E-04
  627.00      4.37720E-04
  629.00      4.35220E-04
  631.00      4.30780E-04
  633.00      4.30200E-04
  635.00      4.27830E-04
  637.00      4.25420E-04
  639.00      4.22940E-04
  641.00      4.18180E-04
  643.00      4.18280E-04
  645.00      4.15850E-04
  647.00      4.13500E-04
  649.00      4.11280E-04
  651.00      4.08830E-04
  653.00      4.03080E-04
  655.00      3.98750E-04
  657.00      3.72950E-04
  659.00      3.99070E-04
  661.00      3.97900E-04
  663.00      3.95740E-04
  665.00      3.93600E-04
  667.00      3.89220E-04
  669.00      3.84150E-04
  671.00      3.86920E-04
  673.00      3.85010E-04
  675.00      3.82930E-04
  677.00      3.81020E-04
  679.00      3.79020E-04
  681.00      3.77000E-04
  683.00      3.75000E-04
  685.00      3.73010E-04
  687.00      3.71000E-04
  689.00      3.65050E-04
  691.00      3.66970E-04
  693.00      3.65220E-04
  695.00      3.63310E-04
  697.00      3.61410E-04
  699.00      3.59530E-04
  701.00      3.57600E-04
  703.00      3.55550E-04
  705.00      3.53880E-04
  707.00      3.49770E-04
  709.00      3.50340E-04
  711.00      3.48530E-04
  713.00      3.46750E-04
  715.00      3.44990E-04
  717.00      3.40540E-04
  719.00      3.40030E-04
  721.00      3.39770E-04
  723.00      3.38020E-04
  725.00      3.36340E-04
  727.00      3.34660E-04
  729.00      3.32020E-04
  731.00      3.31240E-04
  733.00      3.29660E-04
  735.00      3.28020E-04
  737.00      3.26370E-04
  739.00      3.24770E-04
  741.00      3.23140E-04
  743.00      3.21580E-04
  745.00      3.19920E-04
  747.00      3.18430E-04
  749.00      3.16610E-04
  751.00      3.15280E-04
  753.00      3.13790E-04
  755.00      3.12260E-04
  757.00      3.10730E-04
  759.00      3.05280E-04
  761.00      3.07490E-04
  763.00      3.06250E-04
  765.00      3.04780E-04
  767.00      3.03350E-04
  769.00      3.01730E-04
  771.00      3.00390E-04
  773.00      2.98810E-04
  775.00      2.97610E-04
  777.00      2.96200E-04
  779.00      2.94800E-04
  781.00      2.93390E-04
  783.00      2.92030E-04
  785.00      2.90640E-04
  787.00      2.89300E-04
  789.00      2.87970E-04
  791.00      2.86670E-04
  793.00      2.85340E-04
  795.00      2.84020E-04
  797.00      2.82630E-04
  799.00      2.81400E-04
  801.00      2.80110E-04
  803.00      2.78760E-04
  805.00      2.77540E-04
  807.00      2.76270E-04
  809.00      2.75010E-04
  811.00      2.73740E-04
  813.00      2.72520E-04
  815.00      2.71260E-04
  817.00      2.69980E-04
  819.00      2.67860E-04
  821.00      2.58910E-04
  823.00      2.56290E-04
  825.00      2.56460E-04
  827.00      2.55510E-04
  829.00      2.54590E-04
  831.00      2.53550E-04
  833.00      2.52310E-04
  835.00      2.51110E-04
  837.00      2.50280E-04
  839.00      2.49330E-04
  841.00      2.48390E-04
  843.00      2.47440E-04
  845.00      2.46280E-04
  847.00      2.45640E-04
  849.00      2.44810E-04
  851.00      2.43780E-04
  853.00      2.43250E-04
  855.00      2.42160E-04
  857.00      2.42090E-04
  859.00      2.40180E-04
  861.00      2.39800E-04
  863.00      2.40360E-04
  865.00      2.38750E-04
  867.00      2.35750E-04
  869.00      2.38390E-04
  871.00      2.38440E-04
  873.00      2.36620E-04
  875.00      2.30520E-04
  877.00      2.34390E-04
  879.00      2.36260E-04
  881.00      2.35920E-04
  883.00      2.34930E-04
  885.00      2.29600E-04
  887.00      2.23140E-04
  889.00      2.31220E-04
  891.00      2.31790E-04
  893.00      2.30950E-04
  895.00      2.30300E-04
  897.00      2.29160E-04
  899.00      2.26420E-04
  901.00      2.15640E-04
  903.00      2.19650E-04
  905.00      2.24700E-04
  907.00      2.24100E-04
  909.00      2.23890E-04
  911.00      2.22820E-04
  913.00      2.22340E-04
  915.00      2.21450E-04
  917.00      2.20310E-04
  919.00      2.18860E-04
  921.00      2.14700E-04
  923.00      2.02570E-04
  925.00      2.12720E-04
  927.00      2.15220E-04
  929.00      2.15090E-04
  931.00      2.14110E-04
  933.00      2.13340E-04
  935.00      2.08730E-04
  937.00      2.11010E-04
  939.00      2.10930E-04
  941.00      2.10040E-04
  943.00      2.09240E-04
  945.00      2.08430E-04
  947.00      2.07290E-04
  949.00      2.06660E-04
  951.00      2.04520E-04
  953.00      2.00320E-04
  955.00      1.89000E-04
  957.00      2.00470E-04
  959.00      2.02070E-04
  961.00      2.01740E-04
  963.00      2.00880E-04
  965.00      2.00390E-04
  967.00      1.99610E-04
  969.00      1.98800E-04
  971.00      1.97090E-04
  973.00      1.97200E-04
  975.00      1.96380E-04
  977.00      1.94940E-04
  979.00      1.95020E-04
  981.00      1.94280E-04
  983.00      1.93520E-04
  985.00      1.92790E-04
  987.00      1.92060E-04
  989.00      1.91320E-04
  991.00      1.90570E-04
  993.00      1.89880E-04
  995.00      1.89160E-04
  997.00      1.88440E-04
  999.00      1.87730E-04
  1002.5      1.82610E-04
  1007.5      1.79320E-04
  1012.5      1.80340E-04
  1017.5      1.81340E-04
  1022.5      1.79650E-04
  1027.5      1.78000E-04
  1032.5      1.76100E-04
  1037.5      1.74790E-04
  1042.5      1.72610E-04
  1047.5      1.71640E-04
  1052.5      1.70100E-04
  1057.5      1.68580E-04
  1062.5      1.67090E-04
  1067.5      1.65540E-04
  1072.5      1.64150E-04
  1077.5      1.62700E-04
  1082.5      1.60530E-04
  1087.5      1.59720E-04
  1092.5      1.51770E-04
  1097.5      1.55460E-04
  1102.5      1.55570E-04
  1107.5      1.54430E-04
  1112.5      1.53130E-04
  1117.5      1.51880E-04
  1122.5      1.50580E-04
  1127.5      1.49330E-04
  1132.5      1.48070E-04
  1137.5      1.46840E-04
  1142.5      1.45630E-04
  1147.5      1.44420E-04
  1152.5      1.43230E-04
  1157.5      1.42050E-04
  1162.5      1.39750E-04
  1167.5      1.39020E-04
  1172.5      1.38610E-04
  1177.5      1.37490E-04
  1182.5      1.36380E-04
  1187.5      1.35290E-04
  1192.5      1.34210E-04
  1197.5      1.32620E-04
  1202.5      1.32090E-04
  1207.5      1.31050E-04
  1212.5      1.30010E-04
  1217.5      1.29000E-04
  1222.5      1.28000E-04
  1227.5      1.27000E-04
  1232.5      1.26020E-04
  1237.5      1.25050E-04
  1242.5      1.24090E-04
  1247.5      1.23140E-04
  1252.5      1.22130E-04
  1257.5      1.21270E-04
  1262.5      1.20350E-04
  1267.5      1.19450E-04
  1272.5      1.18550E-04
  1277.5      1.16710E-04
  1282.5      1.11560E-04
  1287.5      1.15610E-04
  1292.5      1.15060E-04
  1297.5      1.14000E-04
  1302.5      1.13370E-04
  1307.5      1.12540E-04
  1312.5      1.11720E-04
  1317.5      1.10910E-04
  1322.5      1.10110E-04
  1327.5      1.09310E-04
  1332.5      1.08530E-04
  1337.5      1.07750E-04
  1342.5      1.06960E-04
  1347.5      1.06220E-04
  1352.5      1.05460E-04
  1357.5      1.04720E-04
  1362.5      1.03980E-04
  1367.5      1.03250E-04
  1372.5      1.02530E-04
  1377.5      1.01820E-04
  1382.5      1.01110E-04
  1387.5      1.00410E-04
  1392.5      9.97180E-05
  1397.5      9.90340E-05
