 Castelli and Kurucz 2004-2012 Atmosphere
 T     39000.     G    4.00000 [-0.5] N(He)/Ntot=0.0784 VTURB=2.0  L/H=1.25 NOV
 Wavelength  Eddington Hnu
   (nm)    (ergs/s/cm2/Hz/sr)
  9.0900      1.02030E-25
  9.3500      3.82980E-25
  9.6100      1.34120E-24
  9.7700      2.83830E-24
  9.9600      6.68670E-24
  10.200      1.89600E-23
  10.380      4.03510E-23
  10.560      8.39710E-23
  10.770      1.92180E-22
  11.040      5.35500E-22
  11.400      1.96730E-21
  11.780      7.22910E-21
  12.130      2.25620E-20
  12.480      6.66680E-20
  12.710      1.32080E-19
  12.840      1.92520E-19
  13.050      3.49000E-19
  13.240      5.89530E-19
  13.390      8.84290E-19
  13.660      1.79690E-18
  13.980      4.05200E-18
  14.330      9.48050E-18
  14.720      2.32640E-17
  15.100      5.44740E-17
  15.520      1.32320E-16
  15.880      2.73760E-16
  16.200      5.10180E-16
  16.600      1.07920E-15
  17.030      2.31800E-15
  17.340      3.93670E-15
  17.680      6.92240E-15
  18.020      1.19040E-14
  18.170      1.49380E-14
  18.610      2.91860E-14
  19.100      5.90970E-14
  19.390      8.83870E-14
  19.840      1.61090E-13
  20.180      2.48810E-13
  20.500      3.71290E-13
  21.050      7.17080E-13
  21.620      1.36750E-12
  21.980      2.02990E-12
  22.300      2.84430E-12
  22.680      4.18410E-12
  23.000      3.93450E-09
  23.400      1.67140E-08
  24.000      2.82060E-08
  24.650      5.55600E-08
  25.240      1.42210E-07
  25.680      1.93780E-07
  26.000      4.31650E-07
  26.400      3.43890E-06
  26.850      4.98940E-06
  27.350      6.40610E-06
  27.850      4.20220E-06
  28.400      1.05910E-05
  29.000      1.57130E-05
  29.600      1.01710E-05
  30.100      3.81140E-06
  30.800      1.51570E-05
  31.800      1.46610E-05
  32.800      2.33570E-05
  33.800      2.06680E-05
  34.800      2.41730E-05
  35.700      5.88760E-05
  36.600      1.08480E-04
  37.500      1.37470E-04
  38.500      1.29710E-04
  39.500      2.05510E-04
  40.500      2.87200E-04
  41.400      3.00390E-04
  42.200      3.01200E-04
  43.000      2.90870E-04
  44.100      3.60550E-04
  45.100      3.87760E-04
  46.000      3.59440E-04
  47.000      3.84520E-04
  48.000      4.44510E-04
  49.000      3.71010E-04
  50.000      5.00010E-04
  50.600      4.33000E-04
  51.200      7.17820E-04
  52.000      6.86860E-04
  53.000      6.51910E-04
  54.000      5.94060E-04
  55.000      5.55020E-04
  56.000      7.53560E-04
  57.000      8.54400E-04
  58.000      8.49350E-04
  59.000      8.88890E-04
  60.000      7.88990E-04
  61.000      7.81330E-04
  62.000      9.91510E-04
  63.000      9.60970E-04
  64.000      1.06530E-03
  65.000      1.03990E-03
  65.800      9.58820E-04
  66.500      1.09430E-03
  67.500      1.16780E-03
  68.500      1.06460E-03
  69.500      1.19210E-03
  70.500      1.06790E-03
  71.600      1.26300E-03
  72.600      1.29620E-03
  73.500      1.32150E-03
  74.500      1.29050E-03
  75.500      1.29860E-03
  76.500      1.23610E-03
  77.500      1.33400E-03
  78.500      1.26470E-03
  79.500      1.36710E-03
  80.500      1.38760E-03
  81.500      1.41480E-03
  82.500      1.44320E-03
  83.500      1.31130E-03
  84.500      1.45540E-03
  85.500      1.43950E-03
  86.500      1.50040E-03
  87.500      1.51960E-03
  88.500      1.52130E-03
  89.500      1.53470E-03
  90.500      1.52310E-03
  91.500      1.30110E-03
  92.500      2.27410E-03
  93.500      2.94060E-03
  94.500      3.24550E-03
  95.500      3.53580E-03
  96.500      3.74930E-03
  97.500      3.04970E-03
  98.500      3.54330E-03
  99.500      3.34500E-03
  100.50      3.41540E-03
  101.50      3.53350E-03
  102.50      3.28260E-03
  103.50      3.64170E-03
  104.50      3.73440E-03
  105.50      3.71700E-03
  106.50      3.61830E-03
  107.50      3.65370E-03
  108.50      3.55080E-03
  109.50      3.64960E-03
  110.50      3.60930E-03
  111.50      3.58380E-03
  112.50      3.48500E-03
  113.50      3.60650E-03
  114.50      3.60990E-03
  115.50      3.51100E-03
  116.50      3.46410E-03
  117.50      3.11330E-03
  118.50      3.37290E-03
  119.50      3.33860E-03
  120.50      3.33190E-03
  121.50      2.96640E-03
  122.50      3.28040E-03
  123.50      3.29410E-03
  124.50      3.26140E-03
  125.50      3.30660E-03
  126.50      3.33270E-03
  127.50      3.34510E-03
  128.50      3.34420E-03
  129.50      3.32900E-03
  130.50      3.27990E-03
  131.50      3.29830E-03
  132.50      3.27370E-03
  133.50      3.26510E-03
  134.50      3.27150E-03
  135.50      3.19400E-03
  136.50      3.13530E-03
  137.50      3.08880E-03
  138.50      3.11050E-03
  139.50      3.03640E-03
  140.50      2.95510E-03
  141.50      3.11550E-03
  142.50      2.98580E-03
  143.50      3.06580E-03
  144.20      3.01090E-03
  144.70      3.01500E-03
  145.50      2.96720E-03
  146.50      2.98200E-03
  147.50      2.97860E-03
  148.50      3.00660E-03
  149.50      2.96540E-03
  150.50      2.98200E-03
  151.20      2.98800E-03
  151.70      2.94660E-03
  152.50      2.94050E-03
  153.50      2.80830E-03
  154.50      2.51870E-03
  155.50      2.56600E-03
  156.50      2.72850E-03
  157.50      2.79430E-03
  158.50      2.78340E-03
  159.50      2.78120E-03
  160.50      2.69030E-03
  161.50      2.65790E-03
  162.50      2.66530E-03
  163.50      2.67050E-03
  164.50      2.59110E-03
  165.50      2.70140E-03
  166.50      2.68520E-03
  167.20      2.59290E-03
  167.70      2.73550E-03
  168.50      2.70750E-03
  169.50      2.69930E-03
  170.50      2.66230E-03
  171.50      2.59490E-03
  172.50      2.59810E-03
  173.50      2.65620E-03
  174.50      2.63900E-03
  175.50      2.60720E-03
  176.50      2.60790E-03
  177.50      2.59580E-03
  178.50      2.59510E-03
  179.50      2.55950E-03
  180.50      2.55450E-03
  181.50      2.53850E-03
  182.50      2.52090E-03
  183.50      2.52220E-03
  184.50      2.50820E-03
  185.50      2.49220E-03
  186.50      2.47910E-03
  187.50      2.45440E-03
  188.50      2.44130E-03
  189.50      2.45340E-03
  190.50      2.44380E-03
  191.50      2.42930E-03
  192.50      2.37350E-03
  193.50      2.40540E-03
  194.50      2.39310E-03
  195.50      2.35960E-03
  196.70      2.35970E-03
  197.60      2.34690E-03
  198.40      2.34160E-03
  199.50      2.32450E-03
  200.50      2.31660E-03
  201.50      2.30300E-03
  202.50      2.28950E-03
  203.50      2.27450E-03
  204.50      2.25300E-03
  205.50      1.77120E-03
  206.50      1.73820E-03
  207.40      1.80800E-03
  207.80      1.87010E-03
  208.50      2.04420E-03
  209.50      2.18380E-03
  210.50      2.17610E-03
  211.50      2.18270E-03
  212.50      2.16390E-03
  213.50      2.15820E-03
  214.50      2.14640E-03
  215.50      2.16440E-03
  216.50      2.09360E-03
  217.50      2.14570E-03
  218.50      2.09110E-03
  219.50      2.12580E-03
  220.50      2.11310E-03
  221.50      2.05600E-03
  222.50      2.08880E-03
  223.50      2.07830E-03
  224.50      2.06540E-03
  225.50      2.01480E-03
  226.50      2.04300E-03
  227.50      2.03420E-03
  228.50      2.01610E-03
  229.50      1.97680E-03
  230.50      1.95900E-03
  231.50      1.98180E-03
  232.50      1.97680E-03
  233.50      1.96640E-03
  234.50      1.95250E-03
  235.50      1.94040E-03
  236.50      1.92910E-03
  237.50      1.91540E-03
  238.50      1.85760E-03
  239.50      1.88500E-03
  240.50      1.87980E-03
  241.50      1.87100E-03
  242.50      1.86820E-03
  243.50      1.85560E-03
  244.50      1.84620E-03
  245.50      1.83080E-03
  246.50      1.82520E-03
  247.50      1.81920E-03
  248.50      1.80380E-03
  249.50      1.67220E-03
  250.50      1.78320E-03
  251.30      1.69650E-03
  251.80      1.75420E-03
  252.50      1.76060E-03
  253.50      1.76060E-03
  254.50      1.75260E-03
  255.50      1.74220E-03
  256.50      1.73400E-03
  257.50      1.72400E-03
  258.50      1.71530E-03
  259.50      1.69470E-03
  260.50      1.69780E-03
  261.50      1.68340E-03
  262.50      1.68030E-03
  263.50      1.67250E-03
  264.50      1.66160E-03
  265.50      1.65450E-03
  266.50      1.64500E-03
  267.50      1.62910E-03
  268.50      1.62710E-03
  269.50      1.61750E-03
  270.50      1.61310E-03
  271.50      1.60310E-03
  272.50      1.59520E-03
  273.50      1.55460E-03
  274.50      1.58050E-03
  275.50      1.57130E-03
  276.50      1.56290E-03
  277.50      1.55520E-03
  278.50      1.54490E-03
  279.50      1.53450E-03
  280.50      1.53100E-03
  281.50      1.52370E-03
  282.50      1.51440E-03
  283.50      1.50850E-03
  284.50      1.50220E-03
  285.50      1.49440E-03
  286.50      1.48570E-03
  287.50      1.47820E-03
  288.50      1.47170E-03
  289.50      1.46440E-03
  291.00      1.45310E-03
  293.00      1.43990E-03
  295.00      1.42500E-03
  297.00      1.40970E-03
  299.00      1.39260E-03
  301.00      1.38070E-03
  303.00      1.36320E-03
  305.00      1.35240E-03
  307.00      1.34000E-03
  309.00      1.32970E-03
  311.00      1.31700E-03
  313.00      1.30410E-03
  315.00      1.29410E-03
  317.00      1.28100E-03
  319.00      1.26930E-03
  321.00      1.24250E-03
  323.00      1.24710E-03
  325.00      1.23600E-03
  327.00      1.21800E-03
  329.00      1.21200E-03
  331.00      1.20040E-03
  333.00      1.19000E-03
  335.00      1.17590E-03
  337.00      1.16820E-03
  339.00      1.15800E-03
  341.00      1.14710E-03
  343.00      1.13860E-03
  345.00      1.12580E-03
  347.00      1.11840E-03
  349.00      1.10860E-03
  351.00      1.09960E-03
  353.00      1.08900E-03
  355.00      1.07960E-03
  357.00      1.07100E-03
  359.00      1.06100E-03
  361.00      1.05160E-03
  363.00      1.04190E-03
  364.00      1.02060E-03
  365.00      9.40890E-04
  367.00      9.34310E-04
  369.00      9.31690E-04
  371.00      9.33630E-04
  373.00      9.42290E-04
  375.00      9.59980E-04
  377.00      9.67130E-04
  379.00      9.75210E-04
  381.00      9.85790E-04
  383.00      9.49860E-04
  385.00      9.80500E-04
  387.00      9.78020E-04
  389.00      9.24150E-04
  391.00      9.66770E-04
  393.00      9.50900E-04
  395.00      9.50420E-04
  397.00      8.91400E-04
  399.00      9.36090E-04
  401.00      9.28570E-04
  403.00      9.09530E-04
  405.00      9.14990E-04
  407.00      9.06890E-04
  409.00      8.87860E-04
  411.00      8.49670E-04
  413.00      8.85160E-04
  415.00      8.78410E-04
  417.00      8.72670E-04
  419.00      8.64440E-04
  421.00      8.50700E-04
  423.00      8.53110E-04
  425.00      8.46380E-04
  427.00      8.39920E-04
  429.00      8.33600E-04
  431.00      8.26510E-04
  433.00      8.06620E-04
  435.00      7.80230E-04
  437.00      8.07840E-04
  439.00      7.99510E-04
  441.00      7.94870E-04
  443.00      7.90010E-04
  445.00      7.84100E-04
  447.00      7.73930E-04
  449.00      7.72680E-04
  451.00      7.65930E-04
  453.00      7.60470E-04
  455.00      7.46740E-04
  457.00      7.50270E-04
  459.00      7.44740E-04
  461.00      7.39600E-04
  463.00      7.32600E-04
  465.00      7.20780E-04
  467.00      7.22870E-04
  469.00      6.98530E-04
  471.00      7.12500E-04
  473.00      7.08990E-04
  475.00      7.03980E-04
  477.00      6.98970E-04
  479.00      6.93990E-04
  481.00      6.89190E-04
  483.00      6.84270E-04
  485.00      6.72290E-04
  487.00      6.41770E-04
  489.00      6.69950E-04
  491.00      6.65480E-04
  493.00      6.58890E-04
  495.00      6.56480E-04
  497.00      6.52060E-04
  499.00      6.47710E-04
  501.00      6.41840E-04
  503.00      6.38810E-04
  505.00      6.34210E-04
  507.00      6.30330E-04
  509.00      6.26180E-04
  511.00      6.22030E-04
  513.00      6.17820E-04
  515.00      6.13730E-04
  517.00      6.09740E-04
  519.00      6.05700E-04
  521.00      6.01720E-04
  523.00      5.97830E-04
  525.00      5.93650E-04
  527.00      5.89670E-04
  529.00      5.86230E-04
  531.00      5.82450E-04
  533.00      5.78650E-04
  535.00      5.74980E-04
  537.00      5.71290E-04
  539.00      5.67620E-04
  541.00      5.56720E-04
  543.00      5.60460E-04
  545.00      5.56920E-04
  547.00      5.53350E-04
  549.00      5.49930E-04
  551.00      5.46270E-04
  553.00      5.43070E-04
  555.00      5.39690E-04
  557.00      5.36190E-04
  559.00      5.32100E-04
  561.00      5.29730E-04
  563.00      5.26460E-04
  565.00      5.23230E-04
  567.00      5.20030E-04
  569.00      5.10650E-04
  571.00      4.84610E-04
  573.00      4.81860E-04
  575.00      4.79120E-04
  577.00      4.76650E-04
  579.00      4.74570E-04
  581.00      4.72010E-04
  583.00      4.72060E-04
  585.00      4.71540E-04
  587.00      4.67770E-04
  589.00      4.70870E-04
  591.00      4.70990E-04
  593.00      4.71510E-04
  595.00      4.72490E-04
  597.00      4.72600E-04
  599.00      4.72150E-04
  601.00      4.69820E-04
  603.00      4.67250E-04
  605.00      4.64960E-04
  607.00      4.61680E-04
  609.00      4.59780E-04
  611.00      4.56530E-04
  613.00      4.54000E-04
  615.00      4.52050E-04
  617.00      4.47820E-04
  619.00      4.46950E-04
  621.00      4.44420E-04
  623.00      4.39990E-04
  625.00      4.39200E-04
  627.00      4.36920E-04
  629.00      4.34480E-04
  631.00      4.29540E-04
  633.00      4.29620E-04
  635.00      4.27230E-04
  637.00      4.24860E-04
  639.00      4.22470E-04
  641.00      4.17220E-04
  643.00      4.17860E-04
  645.00      4.15500E-04
  647.00      4.13210E-04
  649.00      4.11010E-04
  651.00      4.08720E-04
  653.00      4.02910E-04
  655.00      4.01650E-04
  657.00      3.79710E-04
  659.00      3.99820E-04
  661.00      3.97840E-04
  663.00      3.95710E-04
  665.00      3.93600E-04
  667.00      3.90100E-04
  669.00      3.84700E-04
  671.00      3.87120E-04
  673.00      3.85200E-04
  675.00      3.83150E-04
  677.00      3.81210E-04
  679.00      3.79240E-04
  681.00      3.77250E-04
  683.00      3.75280E-04
  685.00      3.73310E-04
  687.00      3.71360E-04
  689.00      3.65660E-04
  691.00      3.67500E-04
  693.00      3.65640E-04
  695.00      3.63750E-04
  697.00      3.61880E-04
  699.00      3.60030E-04
  701.00      3.58140E-04
  703.00      3.56180E-04
  705.00      3.54480E-04
  707.00      3.51220E-04
  709.00      3.50960E-04
  711.00      3.49170E-04
  713.00      3.47410E-04
  715.00      3.45690E-04
  717.00      3.41430E-04
  719.00      3.41100E-04
  721.00      3.40530E-04
  723.00      3.38830E-04
  725.00      3.37150E-04
  727.00      3.35480E-04
  729.00      3.33330E-04
  731.00      3.32110E-04
  733.00      3.30540E-04
  735.00      3.28920E-04
  737.00      3.27280E-04
  739.00      3.25710E-04
  741.00      3.24100E-04
  743.00      3.22550E-04
  745.00      3.20890E-04
  747.00      3.19440E-04
  749.00      3.17710E-04
  751.00      3.16330E-04
  753.00      3.14850E-04
  755.00      3.13340E-04
  757.00      3.11830E-04
  759.00      3.06880E-04
  761.00      3.08740E-04
  763.00      3.07410E-04
  765.00      3.05940E-04
  767.00      3.04510E-04
  769.00      3.02950E-04
  771.00      3.01590E-04
  773.00      3.00080E-04
  775.00      2.98830E-04
  777.00      2.97430E-04
  779.00      2.96050E-04
  781.00      2.94670E-04
  783.00      2.93300E-04
  785.00      2.91870E-04
  787.00      2.90560E-04
  789.00      2.89250E-04
  791.00      2.87940E-04
  793.00      2.86630E-04
  795.00      2.85310E-04
  797.00      2.83930E-04
  799.00      2.82710E-04
  801.00      2.81430E-04
  803.00      2.80100E-04
  805.00      2.78880E-04
  807.00      2.77620E-04
  809.00      2.76370E-04
  811.00      2.75130E-04
  813.00      2.73890E-04
  815.00      2.72660E-04
  817.00      2.71370E-04
  819.00      2.69210E-04
  821.00      2.59350E-04
  823.00      2.56910E-04
  825.00      2.57010E-04
  827.00      2.56030E-04
  829.00      2.55020E-04
  831.00      2.53970E-04
  833.00      2.52800E-04
  835.00      2.51770E-04
  837.00      2.50900E-04
  839.00      2.50000E-04
  841.00      2.49180E-04
  843.00      2.48380E-04
  845.00      2.47510E-04
  847.00      2.46770E-04
  849.00      2.46150E-04
  851.00      2.45090E-04
  853.00      2.44830E-04
  855.00      2.43470E-04
  857.00      2.43780E-04
  859.00      2.42110E-04
  861.00      2.41450E-04
  863.00      2.42280E-04
  865.00      2.41120E-04
  867.00      2.37520E-04
  869.00      2.40750E-04
  871.00      2.40690E-04
  873.00      2.39550E-04
  875.00      2.32820E-04
  877.00      2.37560E-04
  879.00      2.38450E-04
  881.00      2.37710E-04
  883.00      2.36840E-04
  885.00      2.32990E-04
  887.00      2.26130E-04
  889.00      2.33440E-04
  891.00      2.33410E-04
  893.00      2.32100E-04
  895.00      2.31540E-04
  897.00      2.30670E-04
  899.00      2.28660E-04
  901.00      2.19430E-04
  903.00      2.23330E-04
  905.00      2.26540E-04
  907.00      2.25680E-04
  909.00      2.24980E-04
  911.00      2.23600E-04
  913.00      2.23250E-04
  915.00      2.22360E-04
  917.00      2.21390E-04
  919.00      2.20490E-04
  921.00      2.17780E-04
  923.00      2.07220E-04
  925.00      2.15870E-04
  927.00      2.16910E-04
  929.00      2.16190E-04
  931.00      2.15250E-04
  933.00      2.14430E-04
  935.00      2.10200E-04
  937.00      2.11740E-04
  939.00      2.11930E-04
  941.00      2.11050E-04
  943.00      2.10250E-04
  945.00      2.09440E-04
  947.00      2.08510E-04
  949.00      2.07810E-04
  951.00      2.06490E-04
  953.00      2.03810E-04
  955.00      1.93930E-04
  957.00      2.03230E-04
  959.00      2.03720E-04
  961.00      2.02970E-04
  963.00      2.02100E-04
  965.00      2.01440E-04
  967.00      2.00670E-04
  969.00      1.99900E-04
  971.00      1.98500E-04
  973.00      1.98310E-04
  975.00      1.97470E-04
  977.00      1.95610E-04
  979.00      1.96110E-04
  981.00      1.95370E-04
  983.00      1.94610E-04
  985.00      1.93890E-04
  987.00      1.93160E-04
  989.00      1.92430E-04
  991.00      1.91700E-04
  993.00      1.90990E-04
  995.00      1.90270E-04
  997.00      1.89560E-04
  999.00      1.88850E-04
  1002.5      1.85370E-04
  1007.5      1.82250E-04
  1012.5      1.81690E-04
  1017.5      1.82490E-04
  1022.5      1.80820E-04
  1027.5      1.79160E-04
  1032.5      1.77390E-04
  1037.5      1.75960E-04
  1042.5      1.73690E-04
  1047.5      1.72830E-04
  1052.5      1.71290E-04
  1057.5      1.69780E-04
  1062.5      1.68280E-04
  1067.5      1.66780E-04
  1072.5      1.65350E-04
  1077.5      1.63910E-04
  1082.5      1.61950E-04
  1087.5      1.61090E-04
  1092.5      1.54970E-04
  1097.5      1.57610E-04
  1102.5      1.56910E-04
  1107.5      1.55660E-04
  1112.5      1.54350E-04
  1117.5      1.53130E-04
  1122.5      1.51840E-04
  1127.5      1.50570E-04
  1132.5      1.49320E-04
  1137.5      1.48090E-04
  1142.5      1.46870E-04
  1147.5      1.45670E-04
  1152.5      1.44480E-04
  1157.5      1.43300E-04
  1162.5      1.41030E-04
  1167.5      1.40250E-04
  1172.5      1.39850E-04
  1177.5      1.38730E-04
  1182.5      1.37620E-04
  1187.5      1.36530E-04
  1192.5      1.35450E-04
  1197.5      1.34110E-04
  1202.5      1.33330E-04
  1207.5      1.32280E-04
  1212.5      1.31240E-04
  1217.5      1.30230E-04
  1222.5      1.29220E-04
  1227.5      1.28230E-04
  1232.5      1.27240E-04
  1237.5      1.26270E-04
  1242.5      1.25300E-04
  1247.5      1.24350E-04
  1252.5      1.23380E-04
  1257.5      1.22480E-04
  1262.5      1.21560E-04
  1267.5      1.20650E-04
  1272.5      1.19750E-04
  1277.5      1.18380E-04
  1282.5      1.14180E-04
  1287.5      1.17030E-04
  1292.5      1.16250E-04
  1297.5      1.15300E-04
  1302.5      1.14560E-04
  1307.5      1.13730E-04
  1312.5      1.12900E-04
  1317.5      1.12090E-04
  1322.5      1.11280E-04
  1327.5      1.10480E-04
  1332.5      1.09700E-04
  1337.5      1.08910E-04
  1342.5      1.08130E-04
  1347.5      1.07380E-04
  1352.5      1.06620E-04
  1357.5      1.05870E-04
  1362.5      1.05130E-04
  1367.5      1.04400E-04
  1372.5      1.03670E-04
  1377.5      1.02960E-04
  1382.5      1.02250E-04
  1387.5      1.01540E-04
  1392.5      1.00850E-04
  1397.5      1.00160E-04
