 Castelli and Kurucz 2004-2012 Atmosphere
 T     33000.     G    4.50000 [-0.5] N(He)/Ntot=0.0784 VTURB=2.0  L/H=1.25 NOV
 Wavelength  Eddington Hnu
   (nm)    (ergs/s/cm2/Hz/sr)
  9.0900      6.16940E-32
  9.3500      3.53870E-31
  9.6100      1.85920E-30
  9.7700      4.95530E-30
  9.9600      1.52760E-29
  10.200      5.98450E-29
  10.380      1.60490E-28
  10.560      4.16840E-28
  10.770      1.22170E-27
  11.040      4.59750E-27
  11.400      2.45130E-26
  11.780      1.29260E-25
  12.130      5.47170E-25
  12.480      2.14260E-24
  12.710      5.05220E-24
  12.840      8.09790E-24
  13.050      1.70210E-23
  13.240      3.27060E-23
  13.390      5.40850E-23
  13.660      1.30410E-22
  13.980      3.55080E-22
  14.330      1.01180E-21
  14.720      3.07350E-21
  15.100      8.61850E-21
  15.520      2.54950E-20
  15.880      6.19450E-20
  16.200      1.32370E-19
  16.600      3.29290E-19
  17.030      8.37770E-19
  17.340      1.60100E-18
  17.680      3.17980E-18
  18.020      6.16150E-18
  18.170      8.19730E-18
  18.610      1.84500E-17
  19.100      4.37330E-17
  19.390      7.14950E-17
  19.840      1.49370E-16
  20.180      2.55290E-16
  20.500      4.16450E-16
  21.050      9.35670E-16
  21.620      2.07630E-15
  21.980      3.37370E-15
  22.300      5.12570E-15
  22.680      8.29190E-15
  23.000      6.80110E-12
  23.400      1.96020E-11
  24.000      3.30390E-11
  24.650      5.84030E-11
  25.240      9.76410E-11
  25.680      1.24550E-10
  26.000      2.16020E-10
  26.400      3.35130E-10
  26.850      4.96570E-10
  27.350      6.92390E-10
  27.850      8.95300E-10
  28.400      1.72770E-09
  29.000      2.50650E-09
  29.600      3.35890E-09
  30.100      4.57070E-09
  30.800      8.65810E-09
  31.800      2.00140E-08
  32.800      2.96350E-08
  33.800      5.10790E-08
  34.800      7.89680E-08
  35.700      1.30050E-07
  36.600      2.10700E-07
  37.500      2.66100E-07
  38.500      3.76110E-07
  39.500      5.34610E-07
  40.500      6.86140E-07
  41.400      8.79080E-07
  42.200      1.02480E-06
  43.000      1.22320E-06
  44.100      1.58100E-06
  45.100      1.92520E-06
  46.000      2.21740E-06
  47.000      2.71240E-06
  48.000      3.27780E-06
  49.000      3.81560E-06
  50.000      4.66400E-06
  50.600      1.26350E-05
  51.200      6.28830E-05
  52.000      6.08990E-05
  53.000      5.90570E-05
  54.000      5.57010E-05
  55.000      6.65420E-05
  56.000      7.99020E-05
  57.000      8.57370E-05
  58.000      8.17810E-05
  59.000      8.98190E-05
  60.000      8.42070E-05
  61.000      9.60890E-05
  62.000      1.10650E-04
  63.000      1.12290E-04
  64.000      1.14710E-04
  65.000      1.20520E-04
  65.800      1.15070E-04
  66.500      1.26020E-04
  67.500      1.35100E-04
  68.500      1.23820E-04
  69.500      1.48060E-04
  70.500      1.38650E-04
  71.600      1.63860E-04
  72.600      1.65900E-04
  73.500      1.71780E-04
  74.500      1.75170E-04
  75.500      1.79260E-04
  76.500      1.85870E-04
  77.500      1.93380E-04
  78.500      2.03930E-04
  79.500      2.08370E-04
  80.500      2.10080E-04
  81.500      2.15640E-04
  82.500      2.27250E-04
  83.500      2.09480E-04
  84.500      2.33830E-04
  85.500      2.39040E-04
  86.500      2.49530E-04
  87.500      2.56690E-04
  88.500      2.65010E-04
  89.500      2.72840E-04
  90.500      2.73770E-04
  91.500      2.92870E-04
  92.500      8.79630E-04
  93.500      1.43870E-03
  94.500      2.15040E-03
  95.500      2.42250E-03
  96.500      2.90200E-03
  97.500      1.46910E-03
  98.500      2.69410E-03
  99.500      2.48970E-03
  100.50      2.63290E-03
  101.50      2.70460E-03
  102.50      1.94600E-03
  103.50      2.67950E-03
  104.50      3.01350E-03
  105.50      2.96210E-03
  106.50      2.70860E-03
  107.50      2.81150E-03
  108.50      2.62620E-03
  109.50      2.84260E-03
  110.50      2.76720E-03
  111.50      2.76390E-03
  112.50      2.47780E-03
  113.50      2.74520E-03
  114.50      2.65130E-03
  115.50      2.62620E-03
  116.50      2.59650E-03
  117.50      1.98840E-03
  118.50      2.46560E-03
  119.50      2.44370E-03
  120.50      2.35290E-03
  121.50      1.71330E-03
  122.50      2.34400E-03
  123.50      2.50160E-03
  124.50      2.45830E-03
  125.50      2.47770E-03
  126.50      2.53160E-03
  127.50      2.56350E-03
  128.50      2.57360E-03
  129.50      2.44160E-03
  130.50      2.47010E-03
  131.50      2.55930E-03
  132.50      2.49910E-03
  133.50      2.46210E-03
  134.50      2.48740E-03
  135.50      2.46670E-03
  136.50      2.41880E-03
  137.50      2.40340E-03
  138.50      2.37310E-03
  139.50      2.10070E-03
  140.50      2.13250E-03
  141.50      2.31570E-03
  142.50      2.16630E-03
  143.50      2.26760E-03
  144.20      2.28150E-03
  144.70      2.26900E-03
  145.50      2.21440E-03
  146.50      2.20150E-03
  147.50      2.19810E-03
  148.50      2.21570E-03
  149.50      2.17480E-03
  150.50      2.15080E-03
  151.20      2.12870E-03
  151.70      2.13280E-03
  152.50      2.10020E-03
  153.50      1.92410E-03
  154.50      1.78750E-03
  155.50      1.78470E-03
  156.50      1.89500E-03
  157.50      1.96650E-03
  158.50      1.98980E-03
  159.50      1.98670E-03
  160.50      1.89710E-03
  161.50      1.85020E-03
  162.50      1.88920E-03
  163.50      1.90510E-03
  164.50      1.87280E-03
  165.50      1.94060E-03
  166.50      1.92550E-03
  167.20      1.84080E-03
  167.70      2.01380E-03
  168.50      1.96220E-03
  169.50      1.93140E-03
  170.50      1.91080E-03
  171.50      1.87090E-03
  172.50      1.83470E-03
  173.50      1.89600E-03
  174.50      1.88480E-03
  175.50      1.86680E-03
  176.50      1.85770E-03
  177.50      1.83840E-03
  178.50      1.85360E-03
  179.50      1.83460E-03
  180.50      1.84260E-03
  181.50      1.81230E-03
  182.50      1.80370E-03
  183.50      1.81130E-03
  184.50      1.74540E-03
  185.50      1.74960E-03
  186.50      1.75930E-03
  187.50      1.75020E-03
  188.50      1.69430E-03
  189.50      1.67300E-03
  190.50      1.71450E-03
  191.50      1.68110E-03
  192.50      1.62150E-03
  193.50      1.68350E-03
  194.50      1.70330E-03
  195.50      1.61370E-03
  196.70      1.66450E-03
  197.60      1.69200E-03
  198.40      1.65080E-03
  199.50      1.62030E-03
  200.50      1.65020E-03
  201.50      1.65460E-03
  202.50      1.65530E-03
  203.50      1.62070E-03
  204.50      1.61190E-03
  205.50      1.37300E-03
  206.50      1.34060E-03
  207.40      1.37930E-03
  207.80      1.37180E-03
  208.50      1.42570E-03
  209.50      1.50110E-03
  210.50      1.55940E-03
  211.50      1.57260E-03
  212.50      1.56000E-03
  213.50      1.55520E-03
  214.50      1.54210E-03
  215.50      1.54890E-03
  216.50      1.51280E-03
  217.50      1.53660E-03
  218.50      1.50540E-03
  219.50      1.52690E-03
  220.50      1.51790E-03
  221.50      1.48100E-03
  222.50      1.49810E-03
  223.50      1.48790E-03
  224.50      1.47960E-03
  225.50      1.44530E-03
  226.50      1.46420E-03
  227.50      1.45710E-03
  228.50      1.44120E-03
  229.50      1.37160E-03
  230.50      1.40250E-03
  231.50      1.41600E-03
  232.50      1.41170E-03
  233.50      1.40190E-03
  234.50      1.39640E-03
  235.50      1.38670E-03
  236.50      1.37860E-03
  237.50      1.36740E-03
  238.50      1.33200E-03
  239.50      1.34440E-03
  240.50      1.34500E-03
  241.50      1.33680E-03
  242.50      1.33180E-03
  243.50      1.32070E-03
  244.50      1.31520E-03
  245.50      1.30750E-03
  246.50      1.30140E-03
  247.50      1.29350E-03
  248.50      1.28210E-03
  249.50      1.13490E-03
  250.50      1.26040E-03
  251.30      1.20990E-03
  251.80      1.23980E-03
  252.50      1.25730E-03
  253.50      1.25230E-03
  254.50      1.23870E-03
  255.50      1.23360E-03
  256.50      1.22970E-03
  257.50      1.22320E-03
  258.50      1.21730E-03
  259.50      1.20910E-03
  260.50      1.20770E-03
  261.50      1.19880E-03
  262.50      1.19430E-03
  263.50      1.18780E-03
  264.50      1.17980E-03
  265.50      1.17360E-03
  266.50      1.16220E-03
  267.50      1.15250E-03
  268.50      1.15530E-03
  269.50      1.14000E-03
  270.50      1.13920E-03
  271.50      1.13270E-03
  272.50      1.12400E-03
  273.50      1.10760E-03
  274.50      1.11770E-03
  275.50      1.11250E-03
  276.50      1.10000E-03
  277.50      1.10270E-03
  278.50      1.09540E-03
  279.50      1.07640E-03
  280.50      1.08020E-03
  281.50      1.07960E-03
  282.50      1.06740E-03
  283.50      1.05930E-03
  284.50      1.06330E-03
  285.50      1.05630E-03
  286.50      1.05010E-03
  287.50      1.04540E-03
  288.50      1.04030E-03
  289.50      1.03480E-03
  291.00      1.02510E-03
  293.00      1.01730E-03
  295.00      1.00080E-03
  297.00      9.95700E-04
  299.00      9.83290E-04
  301.00      9.72440E-04
  303.00      9.62720E-04
  305.00      9.55440E-04
  307.00      9.48550E-04
  309.00      9.33850E-04
  311.00      9.29640E-04
  313.00      9.19720E-04
  315.00      9.10890E-04
  317.00      9.01980E-04
  319.00      8.90110E-04
  321.00      8.81170E-04
  323.00      8.77300E-04
  325.00      8.70460E-04
  327.00      8.60250E-04
  329.00      8.53260E-04
  331.00      8.46110E-04
  333.00      8.37060E-04
  335.00      8.28310E-04
  337.00      8.21980E-04
  339.00      8.16430E-04
  341.00      8.08970E-04
  343.00      8.00160E-04
  345.00      7.90390E-04
  347.00      7.85130E-04
  349.00      7.78100E-04
  351.00      7.72150E-04
  353.00      7.66870E-04
  355.00      7.59680E-04
  357.00      7.55990E-04
  359.00      7.44980E-04
  361.00      7.40290E-04
  363.00      7.32500E-04
  364.00      7.31300E-04
  365.00      7.09870E-04
  367.00      7.06370E-04
  369.00      7.00570E-04
  371.00      6.87060E-04
  373.00      6.76120E-04
  375.00      6.80070E-04
  377.00      6.72510E-04
  379.00      6.96710E-04
  381.00      7.19880E-04
  383.00      6.56610E-04
  385.00      7.35260E-04
  387.00      7.37650E-04
  389.00      6.37380E-04
  391.00      7.38500E-04
  393.00      7.30670E-04
  395.00      7.23100E-04
  397.00      6.13660E-04
  399.00      7.12410E-04
  401.00      7.10520E-04
  403.00      6.85650E-04
  405.00      7.04680E-04
  407.00      6.89670E-04
  409.00      6.54130E-04
  411.00      5.99270E-04
  413.00      6.71980E-04
  415.00      6.70450E-04
  417.00      6.70550E-04
  419.00      6.64350E-04
  421.00      6.58530E-04
  423.00      6.56290E-04
  425.00      6.48480E-04
  427.00      6.40300E-04
  429.00      6.37110E-04
  431.00      6.28130E-04
  433.00      5.90110E-04
  435.00      5.53160E-04
  437.00      6.13940E-04
  439.00      6.02900E-04
  441.00      6.07100E-04
  443.00      6.04670E-04
  445.00      6.00500E-04
  447.00      5.78810E-04
  449.00      5.91190E-04
  451.00      5.86770E-04
  453.00      5.83110E-04
  455.00      5.75340E-04
  457.00      5.74470E-04
  459.00      5.69160E-04
  461.00      5.64690E-04
  463.00      5.58920E-04
  465.00      5.44260E-04
  467.00      5.51200E-04
  469.00      5.41710E-04
  471.00      5.38180E-04
  473.00      5.41960E-04
  475.00      5.37590E-04
  477.00      5.34920E-04
  479.00      5.30950E-04
  481.00      5.26480E-04
  483.00      5.20040E-04
  485.00      4.94430E-04
  487.00      4.55490E-04
  489.00      5.08450E-04
  491.00      5.07060E-04
  493.00      4.95440E-04
  495.00      5.00000E-04
  497.00      4.98020E-04
  499.00      4.94470E-04
  501.00      4.85020E-04
  503.00      4.87140E-04
  505.00      4.82110E-04
  507.00      4.80950E-04
  509.00      4.77510E-04
  511.00      4.74160E-04
  513.00      4.70650E-04
  515.00      4.67480E-04
  517.00      4.64420E-04
  519.00      4.61480E-04
  521.00      4.58460E-04
  523.00      4.55360E-04
  525.00      4.52040E-04
  527.00      4.48990E-04
  529.00      4.46320E-04
  531.00      4.43330E-04
  533.00      4.40430E-04
  535.00      4.37520E-04
  537.00      4.34690E-04
  539.00      4.31760E-04
  541.00      4.26620E-04
  543.00      4.26250E-04
  545.00      4.23440E-04
  547.00      4.20700E-04
  549.00      4.18000E-04
  551.00      4.15350E-04
  553.00      4.12650E-04
  555.00      4.10100E-04
  557.00      4.07460E-04
  559.00      4.04660E-04
  561.00      4.02360E-04
  563.00      3.99840E-04
  565.00      3.97250E-04
  567.00      3.94500E-04
  569.00      3.89890E-04
  571.00      3.85790E-04
  573.00      3.83580E-04
  575.00      3.80980E-04
  577.00      3.79080E-04
  579.00      3.76750E-04
  581.00      3.74420E-04
  583.00      3.71980E-04
  585.00      3.70250E-04
  587.00      3.59850E-04
  589.00      3.65500E-04
  591.00      3.64310E-04
  593.00      3.62440E-04
  595.00      3.60620E-04
  597.00      3.59120E-04
  599.00      3.57330E-04
  601.00      3.55800E-04
  603.00      3.53640E-04
  605.00      3.51640E-04
  607.00      3.49690E-04
  609.00      3.47630E-04
  611.00      3.45590E-04
  613.00      3.43590E-04
  615.00      3.41360E-04
  617.00      3.39430E-04
  619.00      3.37620E-04
  621.00      3.35690E-04
  623.00      3.33770E-04
  625.00      3.31780E-04
  627.00      3.29930E-04
  629.00      3.28070E-04
  631.00      3.26140E-04
  633.00      3.24360E-04
  635.00      3.22460E-04
  637.00      3.20700E-04
  639.00      3.18880E-04
  641.00      3.17080E-04
  643.00      3.15340E-04
  645.00      3.13550E-04
  647.00      3.11610E-04
  649.00      3.09950E-04
  651.00      3.08260E-04
  653.00      3.05330E-04
  655.00      2.96920E-04
  657.00      2.70820E-04
  659.00      2.99150E-04
  661.00      2.99740E-04
  663.00      2.98350E-04
  665.00      2.96760E-04
  667.00      2.92650E-04
  669.00      2.90960E-04
  671.00      2.91870E-04
  673.00      2.90220E-04
  675.00      2.88840E-04
  677.00      2.87390E-04
  679.00      2.85560E-04
  681.00      2.84320E-04
  683.00      2.82790E-04
  685.00      2.81340E-04
  687.00      2.79840E-04
  689.00      2.78050E-04
  691.00      2.76730E-04
  693.00      2.75500E-04
  695.00      2.74060E-04
  697.00      2.72630E-04
  699.00      2.71220E-04
  701.00      2.69780E-04
  703.00      2.68270E-04
  705.00      2.66990E-04
  707.00      2.62340E-04
  709.00      2.64300E-04
  711.00      2.62910E-04
  713.00      2.61590E-04
  715.00      2.60280E-04
  717.00      2.58760E-04
  719.00      2.57580E-04
  721.00      2.56350E-04
  723.00      2.54150E-04
  725.00      2.53660E-04
  727.00      2.52510E-04
  729.00      2.49650E-04
  731.00      2.49970E-04
  733.00      2.48740E-04
  735.00      2.47510E-04
  737.00      2.46290E-04
  739.00      2.45080E-04
  741.00      2.43870E-04
  743.00      2.42670E-04
  745.00      2.41490E-04
  747.00      2.40150E-04
  749.00      2.39020E-04
  751.00      2.37930E-04
  753.00      2.36810E-04
  755.00      2.35680E-04
  757.00      2.34540E-04
  759.00      2.33100E-04
  761.00      2.32180E-04
  763.00      2.31160E-04
  765.00      2.30060E-04
  767.00      2.28980E-04
  769.00      2.27820E-04
  771.00      2.26770E-04
  773.00      2.25620E-04
  775.00      2.24660E-04
  777.00      2.23590E-04
  779.00      2.22550E-04
  781.00      2.21430E-04
  783.00      2.20470E-04
  785.00      2.19580E-04
  787.00      2.18450E-04
  789.00      2.17370E-04
  791.00      2.16510E-04
  793.00      2.15480E-04
  795.00      2.14530E-04
  797.00      2.13430E-04
  799.00      2.12540E-04
  801.00      2.11540E-04
  803.00      2.10530E-04
  805.00      2.09570E-04
  807.00      2.08620E-04
  809.00      2.07470E-04
  811.00      2.06310E-04
  813.00      2.05790E-04
  815.00      2.04670E-04
  817.00      2.03940E-04
  819.00      2.02620E-04
  821.00      2.00850E-04
  823.00      1.99900E-04
  825.00      1.99400E-04
  827.00      1.97850E-04
  829.00      1.97630E-04
  831.00      1.96850E-04
  833.00      1.95860E-04
  835.00      1.94400E-04
  837.00      1.94000E-04
  839.00      1.93370E-04
  841.00      1.92520E-04
  843.00      1.91620E-04
  845.00      1.89950E-04
  847.00      1.89960E-04
  849.00      1.88870E-04
  851.00      1.87940E-04
  853.00      1.87180E-04
  855.00      1.85890E-04
  857.00      1.86490E-04
  859.00      1.82800E-04
  861.00      1.83120E-04
  863.00      1.84870E-04
  865.00      1.81890E-04
  867.00      1.77260E-04
  869.00      1.82520E-04
  871.00      1.83100E-04
  873.00      1.79640E-04
  875.00      1.70600E-04
  877.00      1.76620E-04
  879.00      1.80600E-04
  881.00      1.80460E-04
  883.00      1.78960E-04
  885.00      1.71260E-04
  887.00      1.63750E-04
  889.00      1.75260E-04
  891.00      1.76890E-04
  893.00      1.76500E-04
  895.00      1.76030E-04
  897.00      1.74980E-04
  899.00      1.71300E-04
  901.00      1.58110E-04
  903.00      1.63490E-04
  905.00      1.70960E-04
  907.00      1.70330E-04
  909.00      1.70860E-04
  911.00      1.70800E-04
  913.00      1.70200E-04
  915.00      1.69500E-04
  917.00      1.68090E-04
  919.00      1.66950E-04
  921.00      1.61230E-04
  923.00      1.47490E-04
  925.00      1.59910E-04
  927.00      1.64050E-04
  929.00      1.64250E-04
  931.00      1.63430E-04
  933.00      1.63310E-04
  935.00      1.62190E-04
  937.00      1.62080E-04
  939.00      1.61480E-04
  941.00      1.60780E-04
  943.00      1.60150E-04
  945.00      1.59500E-04
  947.00      1.58100E-04
  949.00      1.57780E-04
  951.00      1.55340E-04
  953.00      1.49900E-04
  955.00      1.37720E-04
  957.00      1.51280E-04
  959.00      1.54120E-04
  961.00      1.53900E-04
  963.00      1.53280E-04
  965.00      1.53400E-04
  967.00      1.52800E-04
  969.00      1.52110E-04
  971.00      1.50640E-04
  973.00      1.50960E-04
  975.00      1.50450E-04
  977.00      1.49860E-04
  979.00      1.49290E-04
  981.00      1.48690E-04
  983.00      1.48150E-04
  985.00      1.47570E-04
  987.00      1.46990E-04
  989.00      1.46390E-04
  991.00      1.45590E-04
  993.00      1.45340E-04
  995.00      1.44790E-04
  997.00      1.44210E-04
  999.00      1.43310E-04
  1002.5      1.37480E-04
  1007.5      1.34640E-04
  1012.5      1.39110E-04
  1017.5      1.38810E-04
  1022.5      1.37480E-04
  1027.5      1.36270E-04
  1032.5      1.34580E-04
  1037.5      1.33800E-04
  1042.5      1.32580E-04
  1047.5      1.31390E-04
  1052.5      1.30210E-04
  1057.5      1.29050E-04
  1062.5      1.27900E-04
  1067.5      1.26590E-04
  1072.5      1.25650E-04
  1077.5      1.24540E-04
  1082.5      1.22460E-04
  1087.5      1.22000E-04
  1092.5      1.13140E-04
  1097.5      1.17850E-04
  1102.5      1.18630E-04
  1107.5      1.18140E-04
  1112.5      1.17210E-04
  1117.5      1.16220E-04
  1122.5      1.15200E-04
  1127.5      1.14270E-04
  1132.5      1.13280E-04
  1137.5      1.12360E-04
  1142.5      1.11420E-04
  1147.5      1.10500E-04
  1152.5      1.09600E-04
  1157.5      1.08690E-04
  1162.5      1.07690E-04
  1167.5      1.06880E-04
  1172.5      1.06070E-04
  1177.5      1.05210E-04
  1182.5      1.04360E-04
  1187.5      1.03530E-04
  1192.5      1.02700E-04
  1197.5      1.00990E-04
  1202.5      1.01080E-04
  1207.5      1.00280E-04
  1212.5      9.94890E-05
  1217.5      9.87160E-05
  1222.5      9.79470E-05
  1227.5      9.71870E-05
  1232.5      9.64340E-05
  1237.5      9.56900E-05
  1242.5      9.49580E-05
  1247.5      9.42250E-05
  1252.5      9.33520E-05
  1257.5      9.27950E-05
  1262.5      9.20950E-05
  1267.5      9.14080E-05
  1272.5      9.06840E-05
  1277.5      8.86360E-05
  1282.5      8.33150E-05
  1287.5      8.81450E-05
  1292.5      8.80460E-05
  1297.5      8.69190E-05
  1302.5      8.67480E-05
  1307.5      8.61290E-05
  1312.5      8.55020E-05
  1317.5      8.48810E-05
  1322.5      8.42670E-05
  1327.5      8.36600E-05
  1332.5      8.30570E-05
  1337.5      8.24540E-05
  1342.5      8.18180E-05
  1347.5      8.12910E-05
  1352.5      8.07070E-05
  1357.5      8.01470E-05
  1362.5      7.95650E-05
  1367.5      7.90260E-05
  1372.5      7.84570E-05
  1377.5      7.79290E-05
  1382.5      7.73890E-05
  1387.5      7.68530E-05
  1392.5      7.63110E-05
  1397.5      7.57970E-05
