 Castelli and Kurucz 2004-2012 Atmosphere
 T     32000.     G    4.50000 [-0.5] N(He)/Ntot=0.0784 VTURB=2.0  L/H=1.25 NOV
 Wavelength  Eddington Hnu
   (nm)    (ergs/s/cm2/Hz/sr)
  9.0900      1.75020E-33
  9.3500      1.08960E-32
  9.6100      6.19430E-32
  9.7700      1.73020E-31
  9.9600      5.63390E-31
  10.200      2.36120E-30
  10.380      6.65370E-30
  10.560      1.81450E-29
  10.770      5.62240E-29
  11.040      2.26960E-28
  11.400      1.32500E-27
  11.780      7.66360E-27
  12.130      3.52210E-26
  12.480      1.49310E-25
  12.710      3.70350E-25
  12.840      6.10490E-25
  13.050      1.34170E-24
  13.240      2.68170E-24
  13.390      4.57200E-24
  13.660      1.16310E-23
  13.980      3.36770E-23
  14.330      1.02360E-22
  14.720      3.33110E-22
  15.100      9.96130E-22
  15.520      3.15240E-21
  15.880      8.09200E-21
  16.200      1.81020E-20
  16.600      4.75540E-20
  17.030      1.27990E-19
  17.340      2.54200E-19
  17.680      5.25570E-19
  18.020      1.05860E-18
  18.170      1.43120E-18
  18.610      3.37490E-18
  19.100      8.39940E-18
  19.390      1.41140E-17
  19.840      3.07050E-17
  20.180      5.40340E-17
  20.500      9.04990E-17
  21.050      2.12260E-16
  21.620      4.91230E-16
  21.980      8.17820E-16
  22.300      1.26910E-15
  22.680      2.10740E-15
  23.000      1.35400E-12
  23.400      3.63860E-12
  24.000      6.38540E-12
  24.650      1.18270E-11
  25.240      2.04060E-11
  25.680      2.68650E-11
  26.000      4.52710E-11
  26.400      6.71400E-11
  26.850      1.00480E-10
  27.350      1.45350E-10
  27.850      1.98200E-10
  28.400      3.81960E-10
  29.000      5.70960E-10
  29.600      8.01900E-10
  30.100      1.06450E-09
  30.800      1.91560E-09
  31.800      4.30530E-09
  32.800      6.77360E-09
  33.800      1.18500E-08
  34.800      1.89670E-08
  35.700      3.38750E-08
  36.600      5.57840E-08
  37.500      7.37090E-08
  38.500      1.08420E-07
  39.500      1.60010E-07
  40.500      2.12120E-07
  41.400      2.80980E-07
  42.200      3.36510E-07
  43.000      4.15210E-07
  44.100      5.50180E-07
  45.100      6.90430E-07
  46.000      8.18800E-07
  47.000      1.02800E-06
  48.000      1.26690E-06
  49.000      1.52420E-06
  50.000      1.88750E-06
  50.600      5.89000E-06
  51.200      3.09000E-05
  52.000      3.02240E-05
  53.000      2.99990E-05
  54.000      2.84730E-05
  55.000      3.49080E-05
  56.000      4.12500E-05
  57.000      4.46470E-05
  58.000      4.26000E-05
  59.000      4.77030E-05
  60.000      4.59820E-05
  61.000      5.23750E-05
  62.000      5.98920E-05
  63.000      6.14060E-05
  64.000      6.22670E-05
  65.000      6.65420E-05
  65.800      6.52050E-05
  66.500      7.09520E-05
  67.500      7.52840E-05
  68.500      7.07420E-05
  69.500      8.51390E-05
  70.500      8.12000E-05
  71.600      9.50980E-05
  72.600      9.67210E-05
  73.500      1.00320E-04
  74.500      1.04710E-04
  75.500      1.07700E-04
  76.500      1.12640E-04
  77.500      1.17780E-04
  78.500      1.25050E-04
  79.500      1.28280E-04
  80.500      1.30290E-04
  81.500      1.33900E-04
  82.500      1.42010E-04
  83.500      1.31840E-04
  84.500      1.47380E-04
  85.500      1.51400E-04
  86.500      1.58650E-04
  87.500      1.64420E-04
  88.500      1.71130E-04
  89.500      1.77110E-04
  90.500      1.78520E-04
  91.500      1.96860E-04
  92.500      6.82580E-04
  93.500      1.18620E-03
  94.500      1.88520E-03
  95.500      2.14810E-03
  96.500      2.60580E-03
  97.500      1.19130E-03
  98.500      2.42900E-03
  99.500      2.24790E-03
  100.50      2.39660E-03
  101.50      2.45140E-03
  102.50      1.66320E-03
  103.50      2.39770E-03
  104.50      2.76440E-03
  105.50      2.70620E-03
  106.50      2.44380E-03
  107.50      2.56410E-03
  108.50      2.38720E-03
  109.50      2.59900E-03
  110.50      2.52770E-03
  111.50      2.52430E-03
  112.50      2.23980E-03
  113.50      2.50760E-03
  114.50      2.40040E-03
  115.50      2.40000E-03
  116.50      2.37590E-03
  117.50      1.78480E-03
  118.50      2.25740E-03
  119.50      2.23080E-03
  120.50      2.12070E-03
  121.50      1.47990E-03
  122.50      2.13390E-03
  123.50      2.29330E-03
  124.50      2.25100E-03
  125.50      2.27010E-03
  126.50      2.31940E-03
  127.50      2.35100E-03
  128.50      2.35930E-03
  129.50      2.21230E-03
  130.50      2.25120E-03
  131.50      2.34600E-03
  132.50      2.28430E-03
  133.50      2.24750E-03
  134.50      2.26850E-03
  135.50      2.26070E-03
  136.50      2.20780E-03
  137.50      2.19580E-03
  138.50      2.16790E-03
  139.50      1.88200E-03
  140.50      1.92760E-03
  141.50      2.10550E-03
  142.50      1.97500E-03
  143.50      2.06610E-03
  144.20      2.08630E-03
  144.70      2.07230E-03
  145.50      2.02350E-03
  146.50      2.00260E-03
  147.50      2.00330E-03
  148.50      2.01580E-03
  149.50      1.97980E-03
  150.50      1.94240E-03
  151.20      1.90890E-03
  151.70      1.91950E-03
  152.50      1.89550E-03
  153.50      1.72440E-03
  154.50      1.62330E-03
  155.50      1.61080E-03
  156.50      1.71310E-03
  157.50      1.78160E-03
  158.50      1.80180E-03
  159.50      1.80040E-03
  160.50      1.72390E-03
  161.50      1.68080E-03
  162.50      1.71720E-03
  163.50      1.73890E-03
  164.50      1.71150E-03
  165.50      1.76650E-03
  166.50      1.75510E-03
  167.20      1.68260E-03
  167.70      1.83790E-03
  168.50      1.78870E-03
  169.50      1.75640E-03
  170.50      1.73560E-03
  171.50      1.69780E-03
  172.50      1.66480E-03
  173.50      1.71960E-03
  174.50      1.70900E-03
  175.50      1.69750E-03
  176.50      1.68480E-03
  177.50      1.66350E-03
  178.50      1.67960E-03
  179.50      1.66840E-03
  180.50      1.67790E-03
  181.50      1.64080E-03
  182.50      1.63900E-03
  183.50      1.64180E-03
  184.50      1.56590E-03
  185.50      1.57570E-03
  186.50      1.59100E-03
  187.50      1.58870E-03
  188.50      1.52150E-03
  189.50      1.48950E-03
  190.50      1.54020E-03
  191.50      1.50530E-03
  192.50      1.45100E-03
  193.50      1.51390E-03
  194.50      1.53780E-03
  195.50      1.44570E-03
  196.70      1.50050E-03
  197.60      1.53730E-03
  198.40      1.48670E-03
  199.50      1.46030E-03
  200.50      1.48860E-03
  201.50      1.49680E-03
  202.50      1.50390E-03
  203.50      1.46130E-03
  204.50      1.45570E-03
  205.50      1.27370E-03
  206.50      1.25000E-03
  207.40      1.28930E-03
  207.80      1.27060E-03
  208.50      1.31190E-03
  209.50      1.35850E-03
  210.50      1.41430E-03
  211.50      1.42630E-03
  212.50      1.42010E-03
  213.50      1.41320E-03
  214.50      1.39740E-03
  215.50      1.40580E-03
  216.50      1.37960E-03
  217.50      1.39360E-03
  218.50      1.37110E-03
  219.50      1.38640E-03
  220.50      1.37810E-03
  221.50      1.35080E-03
  222.50      1.35970E-03
  223.50      1.34900E-03
  224.50      1.34420E-03
  225.50      1.31710E-03
  226.50      1.32990E-03
  227.50      1.32350E-03
  228.50      1.31010E-03
  229.50      1.24420E-03
  230.50      1.27910E-03
  231.50      1.28610E-03
  232.50      1.28160E-03
  233.50      1.27190E-03
  234.50      1.26930E-03
  235.50      1.26070E-03
  236.50      1.25380E-03
  237.50      1.24330E-03
  238.50      1.21690E-03
  239.50      1.22370E-03
  240.50      1.22320E-03
  241.50      1.21550E-03
  242.50      1.21100E-03
  243.50      1.19990E-03
  244.50      1.19570E-03
  245.50      1.18960E-03
  246.50      1.18390E-03
  247.50      1.17630E-03
  248.50      1.16640E-03
  249.50      1.03350E-03
  250.50      1.14660E-03
  251.30      1.10550E-03
  251.80      1.13020E-03
  252.50      1.14410E-03
  253.50      1.13940E-03
  254.50      1.12460E-03
  255.50      1.12130E-03
  256.50      1.11850E-03
  257.50      1.11280E-03
  258.50      1.10780E-03
  259.50      1.10110E-03
  260.50      1.09980E-03
  261.50      1.09200E-03
  262.50      1.08770E-03
  263.50      1.08170E-03
  264.50      1.07430E-03
  265.50      1.06870E-03
  266.50      1.05720E-03
  267.50      1.04980E-03
  268.50      1.05250E-03
  269.50      1.03650E-03
  270.50      1.03590E-03
  271.50      1.03120E-03
  272.50      1.02300E-03
  273.50      1.01210E-03
  274.50      1.01760E-03
  275.50      1.01320E-03
  276.50      1.00130E-03
  277.50      1.00490E-03
  278.50      9.98100E-04
  279.50      9.79360E-04
  280.50      9.83740E-04
  281.50      9.84160E-04
  282.50      9.72340E-04
  283.50      9.63300E-04
  284.50      9.69350E-04
  285.50      9.62590E-04
  286.50      9.57460E-04
  287.50      9.53100E-04
  288.50      9.48550E-04
  289.50      9.43550E-04
  291.00      9.34590E-04
  293.00      9.27740E-04
  295.00      9.12160E-04
  297.00      9.08470E-04
  299.00      8.97550E-04
  301.00      8.86820E-04
  303.00      8.79240E-04
  305.00      8.72770E-04
  307.00      8.66400E-04
  309.00      8.51810E-04
  311.00      8.49210E-04
  313.00      8.39990E-04
  315.00      8.32060E-04
  317.00      8.24040E-04
  319.00      8.12800E-04
  321.00      8.06680E-04
  323.00      8.01490E-04
  325.00      7.95540E-04
  327.00      7.86870E-04
  329.00      7.80000E-04
  331.00      7.73790E-04
  333.00      7.65450E-04
  335.00      7.57900E-04
  337.00      7.51980E-04
  339.00      7.46980E-04
  341.00      7.40310E-04
  343.00      7.32040E-04
  345.00      7.23170E-04
  347.00      7.18330E-04
  349.00      7.11930E-04
  351.00      7.06750E-04
  353.00      7.02170E-04
  355.00      6.95720E-04
  357.00      6.92770E-04
  359.00      6.82190E-04
  361.00      6.78410E-04
  363.00      6.71180E-04
  364.00      6.71570E-04
  365.00      6.56110E-04
  367.00      6.53360E-04
  369.00      6.47940E-04
  371.00      6.34000E-04
  373.00      6.21550E-04
  375.00      6.25990E-04
  377.00      6.18500E-04
  379.00      6.42590E-04
  381.00      6.65750E-04
  383.00      6.03420E-04
  385.00      6.82910E-04
  387.00      6.86100E-04
  389.00      5.85910E-04
  391.00      6.87940E-04
  393.00      6.80980E-04
  395.00      6.73780E-04
  397.00      5.64420E-04
  399.00      6.63320E-04
  401.00      6.62880E-04
  403.00      6.37990E-04
  405.00      6.57640E-04
  407.00      6.42320E-04
  409.00      6.06970E-04
  411.00      5.53170E-04
  413.00      6.26050E-04
  415.00      6.25390E-04
  417.00      6.26020E-04
  419.00      6.20530E-04
  421.00      6.16270E-04
  423.00      6.12870E-04
  425.00      6.05080E-04
  427.00      5.96960E-04
  429.00      5.94190E-04
  431.00      5.85390E-04
  433.00      5.47310E-04
  435.00      5.11090E-04
  437.00      5.72030E-04
  439.00      5.61940E-04
  441.00      5.66670E-04
  443.00      5.64680E-04
  445.00      5.60740E-04
  447.00      5.38850E-04
  449.00      5.52110E-04
  451.00      5.48580E-04
  453.00      5.45050E-04
  455.00      5.38710E-04
  457.00      5.36610E-04
  459.00      5.31770E-04
  461.00      5.27410E-04
  463.00      5.22440E-04
  465.00      5.09110E-04
  467.00      5.15100E-04
  469.00      5.08190E-04
  471.00      5.02120E-04
  473.00      5.06310E-04
  475.00      5.02100E-04
  477.00      5.00130E-04
  479.00      4.96380E-04
  481.00      4.91960E-04
  483.00      4.85610E-04
  485.00      4.59870E-04
  487.00      4.21820E-04
  489.00      4.74930E-04
  491.00      4.73770E-04
  493.00      4.62390E-04
  495.00      4.67330E-04
  497.00      4.65750E-04
  499.00      4.62400E-04
  501.00      4.52910E-04
  503.00      4.55610E-04
  505.00      4.50680E-04
  507.00      4.49850E-04
  509.00      4.46600E-04
  511.00      4.43450E-04
  513.00      4.40080E-04
  515.00      4.37150E-04
  517.00      4.34390E-04
  519.00      4.31710E-04
  521.00      4.28870E-04
  523.00      4.25990E-04
  525.00      4.22970E-04
  527.00      4.20100E-04
  529.00      4.17560E-04
  531.00      4.14790E-04
  533.00      4.12110E-04
  535.00      4.09370E-04
  537.00      4.06750E-04
  539.00      4.03990E-04
  541.00      3.99990E-04
  543.00      3.98900E-04
  545.00      3.96290E-04
  547.00      3.93740E-04
  549.00      3.91220E-04
  551.00      3.88790E-04
  553.00      3.86240E-04
  555.00      3.83890E-04
  557.00      3.81440E-04
  559.00      3.78900E-04
  561.00      3.76680E-04
  563.00      3.74340E-04
  565.00      3.71900E-04
  567.00      3.69220E-04
  569.00      3.65340E-04
  571.00      3.62830E-04
  573.00      3.60760E-04
  575.00      3.58210E-04
  577.00      3.56540E-04
  579.00      3.54320E-04
  581.00      3.52170E-04
  583.00      3.49810E-04
  585.00      3.48050E-04
  587.00      3.37530E-04
  589.00      3.43190E-04
  591.00      3.42090E-04
  593.00      3.40160E-04
  595.00      3.38300E-04
  597.00      3.37210E-04
  599.00      3.35020E-04
  601.00      3.33320E-04
  603.00      3.31230E-04
  605.00      3.29370E-04
  607.00      3.27570E-04
  609.00      3.25640E-04
  611.00      3.23740E-04
  613.00      3.21890E-04
  615.00      3.19760E-04
  617.00      3.18000E-04
  619.00      3.16300E-04
  621.00      3.14530E-04
  623.00      3.12750E-04
  625.00      3.10870E-04
  627.00      3.09160E-04
  629.00      3.07440E-04
  631.00      3.05630E-04
  633.00      3.03970E-04
  635.00      3.02190E-04
  637.00      3.00570E-04
  639.00      2.98860E-04
  641.00      2.97190E-04
  643.00      2.95570E-04
  645.00      2.93910E-04
  647.00      2.92020E-04
  649.00      2.90510E-04
  651.00      2.88960E-04
  653.00      2.86250E-04
  655.00      2.77610E-04
  657.00      2.51950E-04
  659.00      2.80070E-04
  661.00      2.80870E-04
  663.00      2.79730E-04
  665.00      2.78240E-04
  667.00      2.74320E-04
  669.00      2.72820E-04
  671.00      2.73750E-04
  673.00      2.72140E-04
  675.00      2.70910E-04
  677.00      2.69530E-04
  679.00      2.67710E-04
  681.00      2.66650E-04
  683.00      2.65210E-04
  685.00      2.63870E-04
  687.00      2.62480E-04
  689.00      2.60920E-04
  691.00      2.59540E-04
  693.00      2.58420E-04
  695.00      2.57080E-04
  697.00      2.55750E-04
  699.00      2.54430E-04
  701.00      2.53100E-04
  703.00      2.51720E-04
  705.00      2.50490E-04
  707.00      2.45930E-04
  709.00      2.47970E-04
  711.00      2.46660E-04
  713.00      2.45430E-04
  715.00      2.44220E-04
  717.00      2.42880E-04
  719.00      2.41740E-04
  721.00      2.40550E-04
  723.00      2.38240E-04
  725.00      2.38000E-04
  727.00      2.36960E-04
  729.00      2.34170E-04
  731.00      2.34580E-04
  733.00      2.33440E-04
  735.00      2.32290E-04
  737.00      2.31160E-04
  739.00      2.30020E-04
  741.00      2.28890E-04
  743.00      2.27780E-04
  745.00      2.26680E-04
  747.00      2.25370E-04
  749.00      2.24400E-04
  751.00      2.23340E-04
  753.00      2.22300E-04
  755.00      2.21250E-04
  757.00      2.20190E-04
  759.00      2.19010E-04
  761.00      2.17970E-04
  763.00      2.17030E-04
  765.00      2.16000E-04
  767.00      2.14990E-04
  769.00      2.13930E-04
  771.00      2.12940E-04
  773.00      2.11880E-04
  775.00      2.10950E-04
  777.00      2.09950E-04
  779.00      2.08990E-04
  781.00      2.07930E-04
  783.00      2.07040E-04
  785.00      2.06220E-04
  787.00      2.05160E-04
  789.00      2.04130E-04
  791.00      2.03350E-04
  793.00      2.02380E-04
  795.00      2.01490E-04
  797.00      2.00430E-04
  799.00      1.99620E-04
  801.00      1.98670E-04
  803.00      1.97710E-04
  805.00      1.96820E-04
  807.00      1.95930E-04
  809.00      1.94830E-04
  811.00      1.93690E-04
  813.00      1.93290E-04
  815.00      1.92250E-04
  817.00      1.91590E-04
  819.00      1.90310E-04
  821.00      1.88950E-04
  823.00      1.88190E-04
  825.00      1.87670E-04
  827.00      1.86060E-04
  829.00      1.85960E-04
  831.00      1.85230E-04
  833.00      1.84320E-04
  835.00      1.82870E-04
  837.00      1.82520E-04
  839.00      1.81960E-04
  841.00      1.81150E-04
  843.00      1.80290E-04
  845.00      1.78610E-04
  847.00      1.78720E-04
  849.00      1.77640E-04
  851.00      1.76830E-04
  853.00      1.76040E-04
  855.00      1.74740E-04
  857.00      1.75490E-04
  859.00      1.71670E-04
  861.00      1.72060E-04
  863.00      1.74020E-04
  865.00      1.70960E-04
  867.00      1.66150E-04
  869.00      1.71770E-04
  871.00      1.72450E-04
  873.00      1.68910E-04
  875.00      1.59610E-04
  877.00      1.65910E-04
  879.00      1.70100E-04
  881.00      1.70010E-04
  883.00      1.68510E-04
  885.00      1.60700E-04
  887.00      1.53110E-04
  889.00      1.64900E-04
  891.00      1.66640E-04
  893.00      1.66310E-04
  895.00      1.65920E-04
  897.00      1.64870E-04
  899.00      1.61160E-04
  901.00      1.47870E-04
  903.00      1.53360E-04
  905.00      1.60990E-04
  907.00      1.60420E-04
  909.00      1.60990E-04
  911.00      1.61030E-04
  913.00      1.60470E-04
  915.00      1.59750E-04
  917.00      1.58420E-04
  919.00      1.57300E-04
  921.00      1.51530E-04
  923.00      1.37780E-04
  925.00      1.50300E-04
  927.00      1.54550E-04
  929.00      1.54830E-04
  931.00      1.54030E-04
  933.00      1.53930E-04
  935.00      1.53150E-04
  937.00      1.52850E-04
  939.00      1.52270E-04
  941.00      1.51640E-04
  943.00      1.51020E-04
  945.00      1.50410E-04
  947.00      1.48960E-04
  949.00      1.48750E-04
  951.00      1.46310E-04
  953.00      1.40840E-04
  955.00      1.28670E-04
  957.00      1.42320E-04
  959.00      1.45260E-04
  961.00      1.45070E-04
  963.00      1.44430E-04
  965.00      1.44680E-04
  967.00      1.44120E-04
  969.00      1.43460E-04
  971.00      1.42220E-04
  973.00      1.42410E-04
  975.00      1.41900E-04
  977.00      1.41360E-04
  979.00      1.40810E-04
  981.00      1.40240E-04
  983.00      1.39740E-04
  985.00      1.39190E-04
  987.00      1.38650E-04
  989.00      1.38070E-04
  991.00      1.37270E-04
  993.00      1.37100E-04
  995.00      1.36580E-04
  997.00      1.36000E-04
  999.00      1.35150E-04
  1002.5      1.29320E-04
  1007.5      1.26560E-04
  1012.5      1.31350E-04
  1017.5      1.30960E-04
  1022.5      1.29710E-04
  1027.5      1.28570E-04
  1032.5      1.26950E-04
  1037.5      1.26240E-04
  1042.5      1.25100E-04
  1047.5      1.23980E-04
  1052.5      1.22870E-04
  1057.5      1.21770E-04
  1062.5      1.20690E-04
  1067.5      1.19450E-04
  1072.5      1.18570E-04
  1077.5      1.17540E-04
  1082.5      1.15500E-04
  1087.5      1.15080E-04
  1092.5      1.06250E-04
  1097.5      1.11040E-04
  1102.5      1.11880E-04
  1107.5      1.11500E-04
  1112.5      1.10630E-04
  1117.5      1.09700E-04
  1122.5      1.08730E-04
  1127.5      1.07860E-04
  1132.5      1.06930E-04
  1137.5      1.06060E-04
  1142.5      1.05180E-04
  1147.5      1.04320E-04
  1152.5      1.03470E-04
  1157.5      1.02610E-04
  1162.5      1.01730E-04
  1167.5      1.00910E-04
  1172.5      1.00140E-04
  1177.5      9.93350E-05
  1182.5      9.85340E-05
  1187.5      9.77510E-05
  1192.5      9.69720E-05
  1197.5      9.52980E-05
  1202.5      9.54440E-05
  1207.5      9.46930E-05
  1212.5      9.39490E-05
  1217.5      9.32170E-05
  1222.5      9.24920E-05
  1227.5      9.17770E-05
  1232.5      9.10680E-05
  1237.5      9.03660E-05
  1242.5      8.96760E-05
  1247.5      8.89840E-05
  1252.5      8.81470E-05
  1257.5      8.76370E-05
  1262.5      8.69770E-05
  1267.5      8.63310E-05
  1272.5      8.56290E-05
  1277.5      8.36080E-05
  1282.5      7.82990E-05
  1287.5      8.32030E-05
  1292.5      8.31550E-05
  1297.5      8.20540E-05
  1302.5      8.19380E-05
  1307.5      8.13570E-05
  1312.5      8.07660E-05
  1317.5      8.01810E-05
  1322.5      7.96020E-05
  1327.5      7.90290E-05
  1332.5      7.84610E-05
  1337.5      7.78910E-05
  1342.5      7.72870E-05
  1347.5      7.67960E-05
  1352.5      7.62430E-05
  1357.5      7.57170E-05
  1362.5      7.51660E-05
  1367.5      7.46620E-05
  1372.5      7.41230E-05
  1377.5      7.36280E-05
  1382.5      7.31180E-05
  1387.5      7.26130E-05
  1392.5      7.20980E-05
  1397.5      7.16170E-05
