 Castelli and Kurucz 2004-2012 Atmosphere
 T     34000.     G    5.00000 [-0.5] N(He)/Ntot=0.0784 VTURB=2.0  L/H=1.25 NOV
 Wavelength  Eddington Hnu
   (nm)    (ergs/s/cm2/Hz/sr)
  9.0900      2.16560E-30
  9.3500      1.13740E-29
  9.6100      5.48940E-29
  9.7700      1.39160E-28
  9.9600      4.04770E-28
  10.200      1.47830E-27
  10.380      3.76770E-27
  10.560      9.31750E-27
  10.770      2.58430E-26
  11.040      9.08680E-26
  11.400      4.44800E-25
  11.780      2.15560E-24
  12.130      8.48080E-24
  12.480      3.09930E-23
  12.710      6.99700E-23
  12.840      1.09500E-22
  13.050      2.21660E-22
  13.240      4.12020E-22
  13.390      6.64100E-22
  13.660      1.53080E-21
  13.980      3.95980E-21
  14.330      1.06880E-20
  14.720      3.06460E-20
  15.100      8.14000E-20
  15.520      2.27420E-19
  15.880      5.27020E-19
  16.200      1.08070E-18
  16.600      2.55760E-18
  17.030      6.18270E-18
  17.340      1.14000E-17
  17.680      2.17990E-17
  18.020      4.07130E-17
  18.170      5.33110E-17
  18.610      1.14670E-16
  19.100      2.58970E-16
  19.390      4.11810E-16
  19.840      8.25520E-16
  20.180      1.36900E-15
  20.500      2.17260E-15
  21.050      4.66510E-15
  21.620      9.89970E-15
  21.980      1.56580E-14
  22.300      2.32430E-14
  22.680      3.66120E-14
  23.000      1.89260E-11
  23.400      6.07640E-11
  24.000      1.03100E-10
  24.650      1.77090E-10
  25.240      2.88460E-10
  25.680      3.62950E-10
  26.000      6.06430E-10
  26.400      9.14000E-10
  26.850      1.32690E-09
  27.350      1.81310E-09
  27.850      2.30260E-09
  28.400      4.28730E-09
  29.000      6.07650E-09
  29.600      7.98550E-09
  30.100      1.06900E-08
  30.800      1.96470E-08
  31.800      4.29200E-08
  32.800      6.15350E-08
  33.800      1.01970E-07
  34.800      1.52970E-07
  35.700      2.44380E-07
  36.600      3.83480E-07
  37.500      4.75490E-07
  38.500      6.55720E-07
  39.500      9.10450E-07
  40.500      1.14740E-06
  41.400      1.44900E-06
  42.200      1.67110E-06
  43.000      1.97270E-06
  44.100      2.51060E-06
  45.100      3.03160E-06
  46.000      3.46580E-06
  47.000      4.19620E-06
  48.000      5.01510E-06
  49.000      5.79260E-06
  50.000      6.99340E-06
  50.600      1.70790E-05
  51.200      8.48500E-05
  52.000      8.24150E-05
  53.000      8.15570E-05
  54.000      7.60000E-05
  55.000      9.03140E-05
  56.000      1.06360E-04
  57.000      1.13420E-04
  58.000      1.08390E-04
  59.000      1.18460E-04
  60.000      1.12810E-04
  61.000      1.25800E-04
  62.000      1.42990E-04
  63.000      1.45230E-04
  64.000      1.47580E-04
  65.000      1.55500E-04
  65.800      1.49910E-04
  66.500      1.61460E-04
  67.500      1.70730E-04
  68.500      1.58190E-04
  69.500      1.85720E-04
  70.500      1.76890E-04
  71.600      2.03500E-04
  72.600      2.05790E-04
  73.500      2.12880E-04
  74.500      2.17260E-04
  75.500      2.21920E-04
  76.500      2.29010E-04
  77.500      2.37000E-04
  78.500      2.49110E-04
  79.500      2.53780E-04
  80.500      2.56160E-04
  81.500      2.62780E-04
  82.500      2.75310E-04
  83.500      2.56800E-04
  84.500      2.83210E-04
  85.500      2.88880E-04
  86.500      3.00620E-04
  87.500      3.08480E-04
  88.500      3.17410E-04
  89.500      3.26020E-04
  90.500      3.26960E-04
  91.500      3.30510E-04
  92.500      8.29800E-04
  93.500      1.38340E-03
  94.500      2.26040E-03
  95.500      2.63500E-03
  96.500      3.33560E-03
  97.500      1.62440E-03
  98.500      3.22560E-03
  99.500      2.94530E-03
  100.50      3.15250E-03
  101.50      3.18450E-03
  102.50      2.01540E-03
  103.50      3.12470E-03
  104.50      3.55330E-03
  105.50      3.49880E-03
  106.50      3.18440E-03
  107.50      3.30900E-03
  108.50      3.04540E-03
  109.50      3.33960E-03
  110.50      3.24160E-03
  111.50      3.23650E-03
  112.50      2.90420E-03
  113.50      3.20480E-03
  114.50      3.08090E-03
  115.50      3.05830E-03
  116.50      3.01370E-03
  117.50      2.34240E-03
  118.50      2.86560E-03
  119.50      2.83380E-03
  120.50      2.69750E-03
  121.50      1.78180E-03
  122.50      2.66910E-03
  123.50      2.87640E-03
  124.50      2.83130E-03
  125.50      2.85250E-03
  126.50      2.90550E-03
  127.50      2.93130E-03
  128.50      2.93830E-03
  129.50      2.77800E-03
  130.50      2.81570E-03
  131.50      2.90760E-03
  132.50      2.83330E-03
  133.50      2.79220E-03
  134.50      2.81060E-03
  135.50      2.79380E-03
  136.50      2.73320E-03
  137.50      2.71810E-03
  138.50      2.67870E-03
  139.50      2.39180E-03
  140.50      2.42350E-03
  141.50      2.60820E-03
  142.50      2.44760E-03
  143.50      2.55270E-03
  144.20      2.56910E-03
  144.70      2.55190E-03
  145.50      2.49480E-03
  146.50      2.47820E-03
  147.50      2.46390E-03
  148.50      2.48280E-03
  149.50      2.43770E-03
  150.50      2.40320E-03
  151.20      2.38090E-03
  151.70      2.38060E-03
  152.50      2.34680E-03
  153.50      2.15740E-03
  154.50      2.01510E-03
  155.50      2.01150E-03
  156.50      2.11970E-03
  157.50      2.18630E-03
  158.50      2.21250E-03
  159.50      2.20870E-03
  160.50      2.11310E-03
  161.50      2.05770E-03
  162.50      2.09910E-03
  163.50      2.10780E-03
  164.50      2.06490E-03
  165.50      2.14710E-03
  166.50      2.13060E-03
  167.20      2.04430E-03
  167.70      2.21300E-03
  168.50      2.16150E-03
  169.50      2.12960E-03
  170.50      2.10250E-03
  171.50      2.06160E-03
  172.50      2.01960E-03
  173.50      2.08350E-03
  174.50      2.07060E-03
  175.50      2.04870E-03
  176.50      2.03510E-03
  177.50      2.01570E-03
  178.50      2.02870E-03
  179.50      2.00920E-03
  180.50      2.01420E-03
  181.50      1.98210E-03
  182.50      1.97090E-03
  183.50      1.97570E-03
  184.50      1.90600E-03
  185.50      1.90550E-03
  186.50      1.91440E-03
  187.50      1.90490E-03
  188.50      1.84620E-03
  189.50      1.82200E-03
  190.50      1.86350E-03
  191.50      1.82590E-03
  192.50      1.76270E-03
  193.50      1.82460E-03
  194.50      1.84420E-03
  195.50      1.75340E-03
  196.70      1.80220E-03
  197.60      1.82900E-03
  198.40      1.78500E-03
  199.50      1.75200E-03
  200.50      1.78140E-03
  201.50      1.78410E-03
  202.50      1.78290E-03
  203.50      1.74780E-03
  204.50      1.73740E-03
  205.50      1.48980E-03
  206.50      1.45470E-03
  207.40      1.48380E-03
  207.80      1.46980E-03
  208.50      1.50820E-03
  209.50      1.56650E-03
  210.50      1.66360E-03
  211.50      1.68680E-03
  212.50      1.67370E-03
  213.50      1.66770E-03
  214.50      1.65340E-03
  215.50      1.65560E-03
  216.50      1.62020E-03
  217.50      1.64140E-03
  218.50      1.60930E-03
  219.50      1.62940E-03
  220.50      1.62020E-03
  221.50      1.57920E-03
  222.50      1.59850E-03
  223.50      1.58790E-03
  224.50      1.57780E-03
  225.50      1.53780E-03
  226.50      1.56080E-03
  227.50      1.55250E-03
  228.50      1.53550E-03
  229.50      1.46820E-03
  230.50      1.48990E-03
  231.50      1.50770E-03
  232.50      1.50270E-03
  233.50      1.49220E-03
  234.50      1.48570E-03
  235.50      1.47530E-03
  236.50      1.46660E-03
  237.50      1.45430E-03
  238.50      1.41360E-03
  239.50      1.42970E-03
  240.50      1.42990E-03
  241.50      1.42090E-03
  242.50      1.41470E-03
  243.50      1.40270E-03
  244.50      1.39670E-03
  245.50      1.38800E-03
  246.50      1.38160E-03
  247.50      1.37300E-03
  248.50      1.36200E-03
  249.50      1.23040E-03
  250.50      1.33820E-03
  251.30      1.27870E-03
  251.80      1.31340E-03
  252.50      1.33300E-03
  253.50      1.32730E-03
  254.50      1.31280E-03
  255.50      1.30700E-03
  256.50      1.30260E-03
  257.50      1.29530E-03
  258.50      1.28900E-03
  259.50      1.28040E-03
  260.50      1.27840E-03
  261.50      1.26940E-03
  262.50      1.26390E-03
  263.50      1.25690E-03
  264.50      1.24850E-03
  265.50      1.24180E-03
  266.50      1.22960E-03
  267.50      1.21950E-03
  268.50      1.22130E-03
  269.50      1.20480E-03
  270.50      1.20390E-03
  271.50      1.19720E-03
  272.50      1.18660E-03
  273.50      1.16800E-03
  274.50      1.18020E-03
  275.50      1.17470E-03
  276.50      1.16060E-03
  277.50      1.16390E-03
  278.50      1.15630E-03
  279.50      1.13620E-03
  280.50      1.13970E-03
  281.50      1.13900E-03
  282.50      1.12510E-03
  283.50      1.11610E-03
  284.50      1.12140E-03
  285.50      1.11380E-03
  286.50      1.10720E-03
  287.50      1.10210E-03
  288.50      1.09660E-03
  289.50      1.09050E-03
  291.00      1.08020E-03
  293.00      1.07160E-03
  295.00      1.05300E-03
  297.00      1.04850E-03
  299.00      1.03540E-03
  301.00      1.02380E-03
  303.00      1.01350E-03
  305.00      1.00540E-03
  307.00      9.97720E-04
  309.00      9.82210E-04
  311.00      9.77390E-04
  313.00      9.66740E-04
  315.00      9.57200E-04
  317.00      9.47600E-04
  319.00      9.33950E-04
  321.00      9.25000E-04
  323.00      9.21250E-04
  325.00      9.13750E-04
  327.00      9.03200E-04
  329.00      8.95480E-04
  331.00      8.87890E-04
  333.00      8.78320E-04
  335.00      8.69060E-04
  337.00      8.62220E-04
  339.00      8.56050E-04
  341.00      8.48080E-04
  343.00      8.38610E-04
  345.00      8.28200E-04
  347.00      8.22550E-04
  349.00      8.15160E-04
  351.00      8.08540E-04
  353.00      8.02470E-04
  355.00      7.95020E-04
  357.00      7.91630E-04
  359.00      7.79100E-04
  361.00      7.75000E-04
  363.00      7.65820E-04
  364.00      7.65750E-04
  365.00      7.45390E-04
  367.00      7.41650E-04
  369.00      7.35940E-04
  371.00      7.21500E-04
  373.00      7.13640E-04
  375.00      7.08610E-04
  377.00      6.93890E-04
  379.00      7.12140E-04
  381.00      7.36070E-04
  383.00      6.68910E-04
  385.00      7.54970E-04
  387.00      7.64070E-04
  389.00      6.44740E-04
  391.00      7.65440E-04
  393.00      7.63240E-04
  395.00      7.50490E-04
  397.00      6.20470E-04
  399.00      7.37230E-04
  401.00      7.40890E-04
  403.00      7.09670E-04
  405.00      7.36070E-04
  407.00      7.19480E-04
  409.00      6.70780E-04
  411.00      6.09960E-04
  413.00      6.99530E-04
  415.00      6.99650E-04
  417.00      7.01030E-04
  419.00      6.94200E-04
  421.00      6.88800E-04
  423.00      6.86000E-04
  425.00      6.77640E-04
  427.00      6.68770E-04
  429.00      6.64990E-04
  431.00      6.54120E-04
  433.00      6.03050E-04
  435.00      5.64130E-04
  437.00      6.38270E-04
  439.00      6.26080E-04
  441.00      6.33630E-04
  443.00      6.31150E-04
  445.00      6.26670E-04
  447.00      5.98380E-04
  449.00      6.16570E-04
  451.00      6.12560E-04
  453.00      6.08460E-04
  455.00      6.00320E-04
  457.00      5.99370E-04
  459.00      5.93790E-04
  461.00      5.88890E-04
  463.00      5.82820E-04
  465.00      5.68180E-04
  467.00      5.74850E-04
  469.00      5.64540E-04
  471.00      5.60230E-04
  473.00      5.64770E-04
  475.00      5.60170E-04
  477.00      5.57330E-04
  479.00      5.53100E-04
  481.00      5.47520E-04
  483.00      5.39690E-04
  485.00      5.04740E-04
  487.00      4.63420E-04
  489.00      5.26620E-04
  491.00      5.26700E-04
  493.00      5.13160E-04
  495.00      5.20490E-04
  497.00      5.18370E-04
  499.00      5.14630E-04
  501.00      5.04230E-04
  503.00      5.06930E-04
  505.00      5.01490E-04
  507.00      5.00400E-04
  509.00      4.96780E-04
  511.00      4.93240E-04
  513.00      4.89570E-04
  515.00      4.86230E-04
  517.00      4.83010E-04
  519.00      4.79910E-04
  521.00      4.76720E-04
  523.00      4.73460E-04
  525.00      4.70030E-04
  527.00      4.66830E-04
  529.00      4.63950E-04
  531.00      4.60820E-04
  533.00      4.57760E-04
  535.00      4.54680E-04
  537.00      4.51730E-04
  539.00      4.48650E-04
  541.00      4.43100E-04
  543.00      4.42860E-04
  545.00      4.39910E-04
  547.00      4.37030E-04
  549.00      4.34190E-04
  551.00      4.31410E-04
  553.00      4.28570E-04
  555.00      4.25910E-04
  557.00      4.23130E-04
  559.00      4.20240E-04
  561.00      4.17770E-04
  563.00      4.15130E-04
  565.00      4.12410E-04
  567.00      4.09540E-04
  569.00      4.05000E-04
  571.00      4.01180E-04
  573.00      3.98840E-04
  575.00      3.96130E-04
  577.00      3.94100E-04
  579.00      3.91650E-04
  581.00      3.89210E-04
  583.00      3.86600E-04
  585.00      3.84570E-04
  587.00      3.72240E-04
  589.00      3.79010E-04
  591.00      3.78000E-04
  593.00      3.75950E-04
  595.00      3.73930E-04
  597.00      3.72240E-04
  599.00      3.70100E-04
  601.00      3.68510E-04
  603.00      3.66610E-04
  605.00      3.64600E-04
  607.00      3.62570E-04
  609.00      3.60420E-04
  611.00      3.58290E-04
  613.00      3.56200E-04
  615.00      3.53870E-04
  617.00      3.51870E-04
  619.00      3.49960E-04
  621.00      3.47940E-04
  623.00      3.45930E-04
  625.00      3.43850E-04
  627.00      3.41920E-04
  629.00      3.39980E-04
  631.00      3.37970E-04
  633.00      3.36090E-04
  635.00      3.34110E-04
  637.00      3.32280E-04
  639.00      3.30370E-04
  641.00      3.28500E-04
  643.00      3.26670E-04
  645.00      3.24810E-04
  647.00      3.22750E-04
  649.00      3.21040E-04
  651.00      3.18940E-04
  653.00      3.15640E-04
  655.00      3.03910E-04
  657.00      2.76040E-04
  659.00      3.08480E-04
  661.00      3.09800E-04
  663.00      3.08910E-04
  665.00      3.07290E-04
  667.00      3.02550E-04
  669.00      3.00860E-04
  671.00      3.02200E-04
  673.00      3.00490E-04
  675.00      2.99040E-04
  677.00      2.97510E-04
  679.00      2.95590E-04
  681.00      2.94310E-04
  683.00      2.92710E-04
  685.00      2.91200E-04
  687.00      2.89640E-04
  689.00      2.87900E-04
  691.00      2.86400E-04
  693.00      2.85100E-04
  695.00      2.83610E-04
  697.00      2.82120E-04
  699.00      2.80650E-04
  701.00      2.79160E-04
  703.00      2.77600E-04
  705.00      2.76250E-04
  707.00      2.71230E-04
  709.00      2.73440E-04
  711.00      2.72000E-04
  713.00      2.70620E-04
  715.00      2.69260E-04
  717.00      2.67750E-04
  719.00      2.66470E-04
  721.00      2.65160E-04
  723.00      2.62900E-04
  725.00      2.62380E-04
  727.00      2.61160E-04
  729.00      2.58110E-04
  731.00      2.58520E-04
  733.00      2.57240E-04
  735.00      2.55960E-04
  737.00      2.54690E-04
  739.00      2.53430E-04
  741.00      2.52170E-04
  743.00      2.50920E-04
  745.00      2.49700E-04
  747.00      2.48310E-04
  749.00      2.47140E-04
  751.00      2.45990E-04
  753.00      2.44830E-04
  755.00      2.43650E-04
  757.00      2.42460E-04
  759.00      2.41050E-04
  761.00      2.40020E-04
  763.00      2.38960E-04
  765.00      2.37800E-04
  767.00      2.36680E-04
  769.00      2.35490E-04
  771.00      2.34390E-04
  773.00      2.33210E-04
  775.00      2.32190E-04
  777.00      2.31080E-04
  779.00      2.30000E-04
  781.00      2.28840E-04
  783.00      2.27830E-04
  785.00      2.26900E-04
  787.00      2.25740E-04
  789.00      2.24630E-04
  791.00      2.23720E-04
  793.00      2.22650E-04
  795.00      2.21660E-04
  797.00      2.20540E-04
  799.00      2.19590E-04
  801.00      2.18580E-04
  803.00      2.17550E-04
  805.00      2.16580E-04
  807.00      2.15560E-04
  809.00      2.14400E-04
  811.00      2.13160E-04
  813.00      2.12590E-04
  815.00      2.11470E-04
  817.00      2.10660E-04
  819.00      2.09270E-04
  821.00      2.07620E-04
  823.00      2.06620E-04
  825.00      2.06030E-04
  827.00      2.04520E-04
  829.00      2.04250E-04
  831.00      2.03450E-04
  833.00      2.02410E-04
  835.00      2.00960E-04
  837.00      2.00510E-04
  839.00      1.99860E-04
  841.00      1.98960E-04
  843.00      1.98050E-04
  845.00      1.96360E-04
  847.00      1.96360E-04
  849.00      1.95270E-04
  851.00      1.94420E-04
  853.00      1.93430E-04
  855.00      1.92630E-04
  857.00      1.92300E-04
  859.00      1.89320E-04
  861.00      1.89800E-04
  863.00      1.90350E-04
  865.00      1.87740E-04
  867.00      1.85050E-04
  869.00      1.87850E-04
  871.00      1.88120E-04
  873.00      1.84760E-04
  875.00      1.78530E-04
  877.00      1.81910E-04
  879.00      1.85360E-04
  881.00      1.85390E-04
  883.00      1.83600E-04
  885.00      1.76040E-04
  887.00      1.70390E-04
  889.00      1.79650E-04
  891.00      1.81780E-04
  893.00      1.81660E-04
  895.00      1.81190E-04
  897.00      1.79820E-04
  899.00      1.75360E-04
  901.00      1.63190E-04
  903.00      1.67490E-04
  905.00      1.75190E-04
  907.00      1.75090E-04
  909.00      1.75990E-04
  911.00      1.75870E-04
  913.00      1.75230E-04
  915.00      1.74410E-04
  917.00      1.73030E-04
  919.00      1.71350E-04
  921.00      1.64610E-04
  923.00      1.51730E-04
  925.00      1.63040E-04
  927.00      1.68280E-04
  929.00      1.69030E-04
  931.00      1.68290E-04
  933.00      1.68390E-04
  935.00      1.67230E-04
  937.00      1.67180E-04
  939.00      1.66550E-04
  941.00      1.65840E-04
  943.00      1.65180E-04
  945.00      1.64430E-04
  947.00      1.62710E-04
  949.00      1.62340E-04
  951.00      1.59300E-04
  953.00      1.52670E-04
  955.00      1.40970E-04
  957.00      1.54120E-04
  959.00      1.58140E-04
  961.00      1.58390E-04
  963.00      1.57760E-04
  965.00      1.58170E-04
  967.00      1.57580E-04
  969.00      1.56860E-04
  971.00      1.55420E-04
  973.00      1.55680E-04
  975.00      1.55140E-04
  977.00      1.54540E-04
  979.00      1.53940E-04
  981.00      1.53320E-04
  983.00      1.52760E-04
  985.00      1.52160E-04
  987.00      1.51560E-04
  989.00      1.50930E-04
  991.00      1.50090E-04
  993.00      1.49850E-04
  995.00      1.49260E-04
  997.00      1.48350E-04
  999.00      1.47430E-04
  1002.5      1.40450E-04
  1007.5      1.37510E-04
  1012.5      1.43130E-04
  1017.5      1.43090E-04
  1022.5      1.41710E-04
  1027.5      1.40450E-04
  1032.5      1.38660E-04
  1037.5      1.37900E-04
  1042.5      1.36640E-04
  1047.5      1.35410E-04
  1052.5      1.34180E-04
  1057.5      1.32980E-04
  1062.5      1.31790E-04
  1067.5      1.30440E-04
  1072.5      1.29460E-04
  1077.5      1.28320E-04
  1082.5      1.26110E-04
  1087.5      1.25340E-04
  1092.5      1.15380E-04
  1097.5      1.20390E-04
  1102.5      1.22010E-04
  1107.5      1.21650E-04
  1112.5      1.20740E-04
  1117.5      1.19720E-04
  1122.5      1.18650E-04
  1127.5      1.17700E-04
  1132.5      1.16680E-04
  1137.5      1.15720E-04
  1142.5      1.14750E-04
  1147.5      1.13810E-04
  1152.5      1.12870E-04
  1157.5      1.11930E-04
  1162.5      1.10910E-04
  1167.5      1.10070E-04
  1172.5      1.09220E-04
  1177.5      1.08340E-04
  1182.5      1.07460E-04
  1187.5      1.06600E-04
  1192.5      1.05740E-04
  1197.5      1.03790E-04
  1202.5      1.04070E-04
  1207.5      1.03240E-04
  1212.5      1.02430E-04
  1217.5      1.01630E-04
  1222.5      1.00830E-04
  1227.5      1.00050E-04
  1232.5      9.92700E-05
  1237.5      9.85020E-05
  1242.5      9.77450E-05
  1247.5      9.69880E-05
  1252.5      9.60790E-05
  1257.5      9.55120E-05
  1262.5      9.47890E-05
  1267.5      9.40790E-05
  1272.5      9.31930E-05
  1277.5      9.07970E-05
  1282.5      8.48170E-05
  1287.5      9.03640E-05
  1292.5      9.05040E-05
  1297.5      8.93660E-05
  1302.5      8.92720E-05
  1307.5      8.86320E-05
  1312.5      8.79850E-05
  1317.5      8.73440E-05
  1322.5      8.67110E-05
  1327.5      8.60840E-05
  1332.5      8.54620E-05
  1337.5      8.48410E-05
  1342.5      8.41850E-05
  1347.5      8.36400E-05
  1352.5      8.30390E-05
  1357.5      8.24600E-05
  1362.5      8.18610E-05
  1367.5      8.13040E-05
  1372.5      8.07190E-05
  1377.5      8.01730E-05
  1382.5      7.96150E-05
  1387.5      7.90630E-05
  1392.5      7.85050E-05
  1397.5      7.79740E-05
