 Castelli and Kurucz 2004-2012 Atmosphere
 T     48000.     G    4.50000 [-0.5] N(He)/Ntot=0.0784 VTURB=2.0  L/H=1.25 NOV
 Wavelength  Eddington Hnu
   (nm)    (ergs/s/cm2/Hz/sr)
  9.0900      7.39160E-19
  9.3500      2.01680E-18
  9.6100      5.12270E-18
  9.7700      9.10000E-18
  9.9600      1.72720E-17
  10.200      3.75360E-17
  10.380      6.57010E-17
  10.560      1.12860E-16
  10.770      2.07500E-16
  11.040      4.38990E-16
  11.400      1.12940E-15
  11.780      2.87030E-15
  12.130      6.49650E-15
  12.480      1.39550E-14
  12.710      2.26340E-14
  12.840      3.03160E-14
  13.050      4.58430E-14
  13.240      6.61420E-14
  13.390      8.78050E-14
  13.660      1.42940E-13
  13.980      2.51140E-13
  14.330      4.47280E-13
  14.720      7.97290E-13
  15.100      1.45700E-12
  15.520      2.65470E-12
  15.880      4.35500E-12
  16.200      7.24510E-12
  16.600      1.20560E-11
  17.030      1.95330E-11
  17.340      2.75440E-11
  17.680      4.04500E-11
  18.020      5.85520E-11
  18.170      6.55020E-11
  18.610      1.05540E-10
  19.100      1.65550E-10
  19.390      2.23360E-10
  19.840      3.30860E-10
  20.180      4.27880E-10
  20.500      5.72780E-10
  21.050      8.80980E-10
  21.620      1.34220E-09
  21.980      1.75970E-09
  22.300      2.15980E-09
  22.680      2.74970E-09
  23.000      2.48360E-07
  23.400      2.78200E-06
  24.000      1.00840E-05
  24.650      3.22420E-05
  25.240      8.63640E-05
  25.680      1.26610E-04
  26.000      1.45640E-04
  26.400      2.94320E-04
  26.850      3.27330E-04
  27.350      3.81880E-04
  27.850      3.22060E-04
  28.400      4.98310E-04
  29.000      6.46270E-04
  29.600      5.72580E-04
  30.100      3.46150E-04
  30.800      4.03790E-04
  31.800      2.30620E-04
  32.800      2.73310E-04
  33.800      2.06870E-04
  34.800      2.20650E-04
  35.700      4.62910E-04
  36.600      7.71160E-04
  37.500      9.34680E-04
  38.500      8.09350E-04
  39.500      1.21930E-03
  40.500      1.63690E-03
  41.400      1.70700E-03
  42.200      1.63300E-03
  43.000      1.60480E-03
  44.100      1.98650E-03
  45.100      2.08330E-03
  46.000      1.95080E-03
  47.000      2.11360E-03
  48.000      2.34880E-03
  49.000      2.18060E-03
  50.000      2.64210E-03
  50.600      2.36060E-03
  51.200      2.71200E-03
  52.000      2.66930E-03
  53.000      2.60350E-03
  54.000      2.30430E-03
  55.000      2.05290E-03
  56.000      2.60950E-03
  57.000      2.86560E-03
  58.000      2.92610E-03
  59.000      2.98820E-03
  60.000      2.82450E-03
  61.000      2.50800E-03
  62.000      3.01200E-03
  63.000      2.80850E-03
  64.000      3.15570E-03
  65.000      3.06390E-03
  65.800      2.90350E-03
  66.500      3.20580E-03
  67.500      3.24830E-03
  68.500      3.06510E-03
  69.500      3.30480E-03
  70.500      3.09950E-03
  71.600      3.32120E-03
  72.600      3.40830E-03
  73.500      3.40700E-03
  74.500      3.35270E-03
  75.500      3.32400E-03
  76.500      3.12230E-03
  77.500      3.35450E-03
  78.500      3.17200E-03
  79.500      3.35210E-03
  80.500      3.43040E-03
  81.500      3.44370E-03
  82.500      3.46880E-03
  83.500      3.28230E-03
  84.500      3.45910E-03
  85.500      3.37140E-03
  86.500      3.48780E-03
  87.500      3.51230E-03
  88.500      3.47090E-03
  89.500      3.47380E-03
  90.500      3.42890E-03
  91.500      2.66430E-03
  92.500      4.10870E-03
  93.500      5.02300E-03
  94.500      5.54620E-03
  95.500      6.16540E-03
  96.500      6.43560E-03
  97.500      5.47260E-03
  98.500      6.14450E-03
  99.500      5.69820E-03
  100.50      5.92220E-03
  101.50      5.97780E-03
  102.50      5.58130E-03
  103.50      6.23570E-03
  104.50      6.31940E-03
  105.50      6.28700E-03
  106.50      6.10000E-03
  107.50      6.23390E-03
  108.50      5.96230E-03
  109.50      6.14300E-03
  110.50      6.09990E-03
  111.50      6.06830E-03
  112.50      5.97560E-03
  113.50      6.07790E-03
  114.50      6.07680E-03
  115.50      5.96540E-03
  116.50      5.79870E-03
  117.50      5.52650E-03
  118.50      5.78290E-03
  119.50      5.63960E-03
  120.50      5.64090E-03
  121.50      4.97120E-03
  122.50      5.55740E-03
  123.50      5.35580E-03
  124.50      5.28270E-03
  125.50      5.43240E-03
  126.50      5.41810E-03
  127.50      5.38950E-03
  128.50      5.35930E-03
  129.50      5.36900E-03
  130.50      5.24710E-03
  131.50      5.21960E-03
  132.50      5.16470E-03
  133.50      5.14960E-03
  134.50      5.11650E-03
  135.50      4.98840E-03
  136.50      4.84130E-03
  137.50      4.72150E-03
  138.50      4.81750E-03
  139.50      4.75610E-03
  140.50      4.61230E-03
  141.50      4.86350E-03
  142.50      4.74530E-03
  143.50      4.81190E-03
  144.20      4.66090E-03
  144.70      4.67260E-03
  145.50      4.61730E-03
  146.50      4.60690E-03
  147.50      4.62050E-03
  148.50      4.65540E-03
  149.50      4.59310E-03
  150.50      4.56310E-03
  151.20      4.56680E-03
  151.70      4.48640E-03
  152.50      4.52670E-03
  153.50      4.39810E-03
  154.50      4.08890E-03
  155.50      4.10640E-03
  156.50      4.29540E-03
  157.50      4.33370E-03
  158.50      4.26850E-03
  159.50      4.27040E-03
  160.50      4.18490E-03
  161.50      4.15460E-03
  162.50      4.13810E-03
  163.50      4.11980E-03
  164.50      3.95180E-03
  165.50      4.11510E-03
  166.50      4.10570E-03
  167.20      4.00910E-03
  167.70      4.10350E-03
  168.50      4.08710E-03
  169.50      4.07670E-03
  170.50      4.01410E-03
  171.50      3.90530E-03
  172.50      3.91310E-03
  173.50      3.97170E-03
  174.50      3.93380E-03
  175.50      3.90030E-03
  176.50      3.88080E-03
  177.50      3.85340E-03
  178.50      3.83910E-03
  179.50      3.79450E-03
  180.50      3.77150E-03
  181.50      3.73730E-03
  182.50      3.71940E-03
  183.50      3.69610E-03
  184.50      3.67800E-03
  185.50      3.64660E-03
  186.50      3.62780E-03
  187.50      3.59830E-03
  188.50      3.57050E-03
  189.50      3.56580E-03
  190.50      3.54270E-03
  191.50      3.51790E-03
  192.50      3.45530E-03
  193.50      3.47210E-03
  194.50      3.45040E-03
  195.50      3.41900E-03
  196.70      3.39640E-03
  197.60      3.36760E-03
  198.40      3.36210E-03
  199.50      3.33170E-03
  200.50      3.31530E-03
  201.50      3.29340E-03
  202.50      3.27220E-03
  203.50      3.24570E-03
  204.50      3.20950E-03
  205.50      2.52780E-03
  206.50      2.46180E-03
  207.40      2.52730E-03
  207.80      2.59270E-03
  208.50      2.77480E-03
  209.50      3.04120E-03
  210.50      3.08380E-03
  211.50      3.08200E-03
  212.50      3.05780E-03
  213.50      3.04090E-03
  214.50      3.02050E-03
  215.50      3.04390E-03
  216.50      2.93940E-03
  217.50      3.01920E-03
  218.50      2.92480E-03
  219.50      2.98460E-03
  220.50      2.96670E-03
  221.50      2.86520E-03
  222.50      2.93080E-03
  223.50      2.91290E-03
  224.50      2.89360E-03
  225.50      2.80070E-03
  226.50      2.85650E-03
  227.50      2.84310E-03
  228.50      2.81700E-03
  229.50      2.78270E-03
  230.50      2.71440E-03
  231.50      2.76150E-03
  232.50      2.75350E-03
  233.50      2.73630E-03
  234.50      2.71520E-03
  235.50      2.69600E-03
  236.50      2.67910E-03
  237.50      2.65960E-03
  238.50      2.56730E-03
  239.50      2.61790E-03
  240.50      2.59790E-03
  241.50      2.58670E-03
  242.50      2.58310E-03
  243.50      2.56370E-03
  244.50      2.54960E-03
  245.50      2.52290E-03
  246.50      2.51650E-03
  247.50      2.50770E-03
  248.50      2.48530E-03
  249.50      2.40210E-03
  250.50      2.45490E-03
  251.30      2.31210E-03
  251.80      2.41650E-03
  252.50      2.41250E-03
  253.50      2.41840E-03
  254.50      2.40680E-03
  255.50      2.39190E-03
  256.50      2.37960E-03
  257.50      2.36360E-03
  258.50      2.34890E-03
  259.50      2.31760E-03
  260.50      2.32430E-03
  261.50      2.30050E-03
  262.50      2.29780E-03
  263.50      2.28480E-03
  264.50      2.26930E-03
  265.50      2.25830E-03
  266.50      2.24500E-03
  267.50      2.22310E-03
  268.50      2.21800E-03
  269.50      2.20220E-03
  270.50      2.19580E-03
  271.50      2.18270E-03
  272.50      2.17000E-03
  273.50      2.10350E-03
  274.50      2.14660E-03
  275.50      2.13290E-03
  276.50      2.12190E-03
  277.50      2.10880E-03
  278.50      2.09370E-03
  279.50      2.08300E-03
  280.50      2.07420E-03
  281.50      2.06260E-03
  282.50      2.04880E-03
  283.50      2.04070E-03
  284.50      2.03020E-03
  285.50      2.01860E-03
  286.50      2.00330E-03
  287.50      1.99080E-03
  288.50      1.98460E-03
  289.50      1.97350E-03
  291.00      1.95870E-03
  293.00      1.93900E-03
  295.00      1.91790E-03
  297.00      1.89610E-03
  299.00      1.87290E-03
  301.00      1.85490E-03
  303.00      1.83110E-03
  305.00      1.81420E-03
  307.00      1.79120E-03
  309.00      1.78000E-03
  311.00      1.76170E-03
  313.00      1.74250E-03
  315.00      1.72730E-03
  317.00      1.70880E-03
  319.00      1.69270E-03
  321.00      1.65140E-03
  323.00      1.66010E-03
  325.00      1.64380E-03
  327.00      1.62040E-03
  329.00      1.61040E-03
  331.00      1.59430E-03
  333.00      1.57880E-03
  335.00      1.55950E-03
  337.00      1.54790E-03
  339.00      1.53100E-03
  341.00      1.51480E-03
  343.00      1.50510E-03
  345.00      1.48800E-03
  347.00      1.47570E-03
  349.00      1.46190E-03
  351.00      1.45000E-03
  353.00      1.43540E-03
  355.00      1.42250E-03
  357.00      1.40910E-03
  359.00      1.39640E-03
  361.00      1.38360E-03
  363.00      1.37000E-03
  364.00      1.33850E-03
  365.00      1.22530E-03
  367.00      1.21570E-03
  369.00      1.20980E-03
  371.00      1.21160E-03
  373.00      1.22120E-03
  375.00      1.23940E-03
  377.00      1.25280E-03
  379.00      1.26680E-03
  381.00      1.27800E-03
  383.00      1.23390E-03
  385.00      1.26980E-03
  387.00      1.27040E-03
  389.00      1.19300E-03
  391.00      1.25200E-03
  393.00      1.23280E-03
  395.00      1.23210E-03
  397.00      1.14940E-03
  399.00      1.21090E-03
  401.00      1.20400E-03
  403.00      1.17690E-03
  405.00      1.18400E-03
  407.00      1.17430E-03
  409.00      1.14540E-03
  411.00      1.09460E-03
  413.00      1.14440E-03
  415.00      1.13590E-03
  417.00      1.12690E-03
  419.00      1.11390E-03
  421.00      1.09450E-03
  423.00      1.09980E-03
  425.00      1.09090E-03
  427.00      1.08210E-03
  429.00      1.07340E-03
  431.00      1.06410E-03
  433.00      1.03330E-03
  435.00      1.00010E-03
  437.00      1.03790E-03
  439.00      1.02930E-03
  441.00      1.02120E-03
  443.00      1.01450E-03
  445.00      1.00610E-03
  447.00      9.96730E-04
  449.00      9.91350E-04
  451.00      9.83080E-04
  453.00      9.74570E-04
  455.00      9.53990E-04
  457.00      9.61150E-04
  459.00      9.53950E-04
  461.00      9.46860E-04
  463.00      9.37980E-04
  465.00      9.26650E-04
  467.00      9.24450E-04
  469.00      8.90940E-04
  471.00      9.11670E-04
  473.00      9.05460E-04
  475.00      8.98780E-04
  477.00      8.92090E-04
  479.00      8.85040E-04
  481.00      8.79040E-04
  483.00      8.72380E-04
  485.00      8.53540E-04
  487.00      8.15720E-04
  489.00      8.52980E-04
  491.00      8.47590E-04
  493.00      8.40910E-04
  495.00      8.35670E-04
  497.00      8.29660E-04
  499.00      8.23890E-04
  501.00      8.17430E-04
  503.00      8.12250E-04
  505.00      8.06360E-04
  507.00      8.00840E-04
  509.00      7.95390E-04
  511.00      7.89850E-04
  513.00      7.84290E-04
  515.00      7.78920E-04
  517.00      7.73690E-04
  519.00      7.68360E-04
  521.00      7.62980E-04
  523.00      7.57950E-04
  525.00      7.52580E-04
  527.00      7.47430E-04
  529.00      7.42690E-04
  531.00      7.37710E-04
  533.00      7.32710E-04
  535.00      7.27900E-04
  537.00      7.23020E-04
  539.00      7.18220E-04
  541.00      7.01780E-04
  543.00      7.08820E-04
  545.00      7.04180E-04
  547.00      6.99490E-04
  549.00      6.95010E-04
  551.00      6.90330E-04
  553.00      6.86030E-04
  555.00      6.81610E-04
  557.00      6.76990E-04
  559.00      6.72040E-04
  561.00      6.68570E-04
  563.00      6.64310E-04
  565.00      6.60080E-04
  567.00      6.55900E-04
  569.00      6.43560E-04
  571.00      6.06820E-04
  573.00      6.03260E-04
  575.00      5.99700E-04
  577.00      5.96420E-04
  579.00      5.93460E-04
  581.00      5.88900E-04
  583.00      5.89370E-04
  585.00      5.88320E-04
  587.00      5.85970E-04
  589.00      5.87070E-04
  591.00      5.87040E-04
  593.00      5.87440E-04
  595.00      5.88420E-04
  597.00      5.89240E-04
  599.00      5.90480E-04
  601.00      5.88370E-04
  603.00      5.86160E-04
  605.00      5.84140E-04
  607.00      5.79900E-04
  609.00      5.77430E-04
  611.00      5.73300E-04
  613.00      5.70040E-04
  615.00      5.67570E-04
  617.00      5.62110E-04
  619.00      5.60850E-04
  621.00      5.57670E-04
  623.00      5.51970E-04
  625.00      5.50660E-04
  627.00      5.47970E-04
  629.00      5.44820E-04
  631.00      5.38230E-04
  633.00      5.38350E-04
  635.00      5.35480E-04
  637.00      5.32410E-04
  639.00      5.29080E-04
  641.00      5.22080E-04
  643.00      5.23370E-04
  645.00      5.20380E-04
  647.00      5.17430E-04
  649.00      5.14570E-04
  651.00      5.11450E-04
  653.00      5.03360E-04
  655.00      5.01390E-04
  657.00      4.74310E-04
  659.00      4.99860E-04
  661.00      4.97610E-04
  663.00      4.94860E-04
  665.00      4.92140E-04
  667.00      4.88290E-04
  669.00      4.80680E-04
  671.00      4.83920E-04
  673.00      4.81440E-04
  675.00      4.78810E-04
  677.00      4.76250E-04
  679.00      4.73690E-04
  681.00      4.71140E-04
  683.00      4.68610E-04
  685.00      4.66100E-04
  687.00      4.63600E-04
  689.00      4.54980E-04
  691.00      4.58490E-04
  693.00      4.56250E-04
  695.00      4.53840E-04
  697.00      4.51450E-04
  699.00      4.49070E-04
  701.00      4.46680E-04
  703.00      4.44240E-04
  705.00      4.41980E-04
  707.00      4.39260E-04
  709.00      4.37470E-04
  711.00      4.35110E-04
  713.00      4.32840E-04
  715.00      4.30730E-04
  717.00      4.24410E-04
  719.00      4.24110E-04
  721.00      4.24130E-04
  723.00      4.21970E-04
  725.00      4.19830E-04
  727.00      4.17700E-04
  729.00      4.15480E-04
  731.00      4.13420E-04
  733.00      4.11400E-04
  735.00      4.09330E-04
  737.00      4.07250E-04
  739.00      4.05160E-04
  741.00      4.03190E-04
  743.00      4.01220E-04
  745.00      3.99130E-04
  747.00      3.97240E-04
  749.00      3.95190E-04
  751.00      3.93300E-04
  753.00      3.91400E-04
  755.00      3.89480E-04
  757.00      3.87570E-04
  759.00      3.79930E-04
  761.00      3.83490E-04
  763.00      3.81930E-04
  765.00      3.80080E-04
  767.00      3.78220E-04
  769.00      3.76320E-04
  771.00      3.74530E-04
  773.00      3.72670E-04
  775.00      3.71030E-04
  777.00      3.69250E-04
  779.00      3.67490E-04
  781.00      3.65750E-04
  783.00      3.64010E-04
  785.00      3.62200E-04
  787.00      3.60540E-04
  789.00      3.58860E-04
  791.00      3.57190E-04
  793.00      3.55520E-04
  795.00      3.53850E-04
  797.00      3.52130E-04
  799.00      3.50560E-04
  801.00      3.48930E-04
  803.00      3.47280E-04
  805.00      3.45710E-04
  807.00      3.44110E-04
  809.00      3.42530E-04
  811.00      3.40950E-04
  813.00      3.39390E-04
  815.00      3.37840E-04
  817.00      3.36220E-04
  819.00      3.33320E-04
  821.00      3.19320E-04
  823.00      3.16010E-04
  825.00      3.16210E-04
  827.00      3.15190E-04
  829.00      3.13850E-04
  831.00      3.12520E-04
  833.00      3.11120E-04
  835.00      3.09880E-04
  837.00      3.08650E-04
  839.00      3.07450E-04
  841.00      3.06380E-04
  843.00      3.05310E-04
  845.00      3.04260E-04
  847.00      3.03280E-04
  849.00      3.02470E-04
  851.00      3.01450E-04
  853.00      3.00800E-04
  855.00      2.99600E-04
  857.00      2.99280E-04
  859.00      2.98040E-04
  861.00      2.97200E-04
  863.00      2.97280E-04
  865.00      2.96240E-04
  867.00      2.93730E-04
  869.00      2.95350E-04
  871.00      2.95100E-04
  873.00      2.94090E-04
  875.00      2.89110E-04
  877.00      2.92090E-04
  879.00      2.92810E-04
  881.00      2.92360E-04
  883.00      2.91460E-04
  885.00      2.87340E-04
  887.00      2.81190E-04
  889.00      2.87260E-04
  891.00      2.87160E-04
  893.00      2.86020E-04
  895.00      2.85410E-04
  897.00      2.84060E-04
  899.00      2.81590E-04
  901.00      2.72040E-04
  903.00      2.75180E-04
  905.00      2.78630E-04
  907.00      2.78290E-04
  909.00      2.77250E-04
  911.00      2.75410E-04
  913.00      2.74970E-04
  915.00      2.73860E-04
  917.00      2.72680E-04
  919.00      2.71210E-04
  921.00      2.68020E-04
  923.00      2.56340E-04
  925.00      2.65190E-04
  927.00      2.66710E-04
  929.00      2.66110E-04
  931.00      2.65040E-04
  933.00      2.63760E-04
  935.00      2.57480E-04
  937.00      2.60500E-04
  939.00      2.60740E-04
  941.00      2.59720E-04
  943.00      2.58700E-04
  945.00      2.57660E-04
  947.00      2.56630E-04
  949.00      2.55590E-04
  951.00      2.54050E-04
  953.00      2.50400E-04
  955.00      2.39020E-04
  957.00      2.49380E-04
  959.00      2.50300E-04
  961.00      2.49610E-04
  963.00      2.48610E-04
  965.00      2.47660E-04
  967.00      2.46690E-04
  969.00      2.45730E-04
  971.00      2.44590E-04
  973.00      2.43790E-04
  975.00      2.42510E-04
  977.00      2.40200E-04
  979.00      2.40990E-04
  981.00      2.40060E-04
  983.00      2.39110E-04
  985.00      2.38220E-04
  987.00      2.37300E-04
  989.00      2.36390E-04
  991.00      2.35490E-04
  993.00      2.34590E-04
  995.00      2.33700E-04
  997.00      2.32810E-04
  999.00      2.31920E-04
  1002.5      2.27450E-04
  1007.5      2.23550E-04
  1012.5      2.22600E-04
  1017.5      2.23980E-04
  1022.5      2.21900E-04
  1027.5      2.19840E-04
  1032.5      2.17780E-04
  1037.5      2.15840E-04
  1042.5      2.12730E-04
  1047.5      2.11940E-04
  1052.5      2.10030E-04
  1057.5      2.08140E-04
  1062.5      2.06280E-04
  1067.5      2.04440E-04
  1072.5      2.02630E-04
  1077.5      2.00840E-04
  1082.5      1.98880E-04
  1087.5      1.97310E-04
  1092.5      1.89790E-04
  1097.5      1.92770E-04
  1102.5      1.92230E-04
  1107.5      1.90580E-04
  1112.5      1.88950E-04
  1117.5      1.87440E-04
  1122.5      1.85850E-04
  1127.5      1.84270E-04
  1132.5      1.82710E-04
  1137.5      1.81190E-04
  1142.5      1.79670E-04
  1147.5      1.78180E-04
  1152.5      1.76700E-04
  1157.5      1.75240E-04
  1162.5      1.72030E-04
  1167.5      1.71120E-04
  1172.5      1.70960E-04
  1177.5      1.69580E-04
  1182.5      1.68200E-04
  1187.5      1.66850E-04
  1192.5      1.65510E-04
  1197.5      1.64130E-04
  1202.5      1.62880E-04
  1207.5      1.61580E-04
  1212.5      1.60300E-04
  1217.5      1.59040E-04
  1222.5      1.57790E-04
  1227.5      1.56560E-04
  1232.5      1.55340E-04
  1237.5      1.54140E-04
  1242.5      1.52950E-04
  1247.5      1.51770E-04
  1252.5      1.50600E-04
  1257.5      1.49460E-04
  1262.5      1.48320E-04
  1267.5      1.47190E-04
  1272.5      1.46080E-04
  1277.5      1.44610E-04
  1282.5      1.38990E-04
  1287.5      1.42670E-04
  1292.5      1.41760E-04
  1297.5      1.40700E-04
  1302.5      1.39670E-04
  1307.5      1.38640E-04
  1312.5      1.37620E-04
  1317.5      1.36620E-04
  1322.5      1.35620E-04
  1327.5      1.34640E-04
  1332.5      1.33660E-04
  1337.5      1.32700E-04
  1342.5      1.31750E-04
  1347.5      1.30800E-04
  1352.5      1.29870E-04
  1357.5      1.28950E-04
  1362.5      1.28040E-04
  1367.5      1.27130E-04
  1372.5      1.26240E-04
  1377.5      1.25350E-04
  1382.5      1.24480E-04
  1387.5      1.23610E-04
  1392.5      1.22760E-04
  1397.5      1.21910E-04
