 Castelli and Kurucz 2004-2012 Atmosphere
 T     32000.     G    5.00000 [-0.5] N(He)/Ntot=0.0784 VTURB=2.0  L/H=1.25 NOV
 Wavelength  Eddington Hnu
   (nm)    (ergs/s/cm2/Hz/sr)
  9.0900      2.48190E-33
  9.3500      1.53320E-32
  9.6100      8.61760E-32
  9.7700      2.38760E-31
  9.9600      7.69180E-31
  10.200      3.17900E-30
  10.380      8.86240E-30
  10.560      2.39120E-29
  10.770      7.32190E-29
  11.040      2.91250E-28
  11.400      1.67130E-27
  11.780      9.52260E-27
  12.130      4.32790E-26
  12.480      1.81950E-25
  12.710      4.49400E-25
  12.840      7.39400E-25
  13.050      1.62090E-24
  13.240      3.23440E-24
  13.390      5.50890E-24
  13.660      1.40010E-23
  13.980      4.05260E-23
  14.330      1.23280E-22
  14.720      4.02100E-22
  15.100      1.20520E-21
  15.520      3.82360E-21
  15.880      9.83130E-21
  16.200      2.20410E-20
  16.600      5.80430E-20
  17.030      1.56610E-19
  17.340      3.11480E-19
  17.680      6.44710E-19
  18.020      1.30000E-18
  18.170      1.75770E-18
  18.610      4.14820E-18
  19.100      1.03270E-17
  19.390      1.73520E-17
  19.840      3.77200E-17
  20.180      6.63350E-17
  20.500      1.11010E-16
  21.050      2.59880E-16
  21.620      6.00160E-16
  21.980      9.97040E-16
  22.300      1.54460E-15
  22.680      2.56270E-15
  23.000      8.98220E-13
  23.400      2.47430E-12
  24.000      4.43330E-12
  24.650      8.28110E-12
  25.240      1.43270E-11
  25.680      1.91500E-11
  26.000      3.04580E-11
  26.400      4.31760E-11
  26.850      6.41620E-11
  27.350      9.38440E-11
  27.850      1.31000E-10
  28.400      2.34430E-10
  29.000      3.51630E-10
  29.600      5.04650E-10
  30.100      6.68560E-10
  30.800      1.08540E-09
  31.800      2.30240E-09
  32.800      3.72060E-09
  33.800      6.44250E-09
  34.800      1.03780E-08
  35.700      1.91400E-08
  36.600      3.10840E-08
  37.500      4.18820E-08
  38.500      6.21200E-08
  39.500      9.24900E-08
  40.500      1.24410E-07
  41.400      1.66790E-07
  42.200      2.02500E-07
  43.000      2.53760E-07
  44.100      3.39400E-07
  45.100      4.33190E-07
  46.000      5.22320E-07
  47.000      6.63870E-07
  48.000      8.24510E-07
  49.000      1.00930E-06
  50.000      1.25300E-06
  50.600      3.95090E-06
  51.200      2.10690E-05
  52.000      2.10290E-05
  53.000      2.19030E-05
  54.000      2.07430E-05
  55.000      2.57400E-05
  56.000      2.96680E-05
  57.000      3.23380E-05
  58.000      3.10510E-05
  59.000      3.52360E-05
  60.000      3.52030E-05
  61.000      3.92730E-05
  62.000      4.41620E-05
  63.000      4.58130E-05
  64.000      4.62210E-05
  65.000      5.04270E-05
  65.800      5.06750E-05
  66.500      5.40510E-05
  67.500      5.62680E-05
  68.500      5.43210E-05
  69.500      6.48230E-05
  70.500      6.35760E-05
  71.600      7.23140E-05
  72.600      7.38990E-05
  73.500      7.67400E-05
  74.500      8.14540E-05
  75.500      8.41810E-05
  76.500      8.82320E-05
  77.500      9.23510E-05
  78.500      9.81780E-05
  79.500      1.00900E-04
  80.500      1.03310E-04
  81.500      1.06280E-04
  82.500      1.12740E-04
  83.500      1.06500E-04
  84.500      1.17870E-04
  85.500      1.21260E-04
  86.500      1.27200E-04
  87.500      1.32430E-04
  88.500      1.38290E-04
  89.500      1.43380E-04
  90.500      1.45030E-04
  91.500      1.52810E-04
  92.500      4.75270E-04
  93.500      8.97190E-04
  94.500      1.67830E-03
  95.500      2.03690E-03
  96.500      2.64930E-03
  97.500      1.06550E-03
  98.500      2.62450E-03
  99.500      2.40770E-03
  100.50      2.60950E-03
  101.50      2.59670E-03
  102.50      1.41410E-03
  103.50      2.47890E-03
  104.50      2.97950E-03
  105.50      2.91300E-03
  106.50      2.59460E-03
  107.50      2.75080E-03
  108.50      2.52120E-03
  109.50      2.78850E-03
  110.50      2.70070E-03
  111.50      2.69500E-03
  112.50      2.37900E-03
  113.50      2.67130E-03
  114.50      2.52480E-03
  115.50      2.55230E-03
  116.50      2.52220E-03
  117.50      1.89940E-03
  118.50      2.40200E-03
  119.50      2.35530E-03
  120.50      2.17360E-03
  121.50      1.28780E-03
  122.50      2.18790E-03
  123.50      2.40820E-03
  124.50      2.36920E-03
  125.50      2.38910E-03
  126.50      2.43030E-03
  127.50      2.45810E-03
  128.50      2.46090E-03
  129.50      2.27370E-03
  130.50      2.32820E-03
  131.50      2.43320E-03
  132.50      2.35900E-03
  133.50      2.31860E-03
  134.50      2.33020E-03
  135.50      2.33720E-03
  136.50      2.26670E-03
  137.50      2.25810E-03
  138.50      2.22790E-03
  139.50      1.92900E-03
  140.50      1.98280E-03
  141.50      2.15060E-03
  142.50      2.03220E-03
  143.50      2.11300E-03
  144.20      2.14060E-03
  144.70      2.12150E-03
  145.50      2.07740E-03
  146.50      2.04590E-03
  147.50      2.04130E-03
  148.50      2.04900E-03
  149.50      2.01540E-03
  150.50      1.95620E-03
  151.20      1.91070E-03
  151.70      1.92420E-03
  152.50      1.90910E-03
  153.50      1.73490E-03
  154.50      1.65900E-03
  155.50      1.63770E-03
  156.50      1.73270E-03
  157.50      1.79400E-03
  158.50      1.81160E-03
  159.50      1.81170E-03
  160.50      1.74400E-03
  161.50      1.69910E-03
  162.50      1.73360E-03
  163.50      1.75520E-03
  164.50      1.72310E-03
  165.50      1.77650E-03
  166.50      1.76820E-03
  167.20      1.70630E-03
  167.70      1.83780E-03
  168.50      1.79260E-03
  169.50      1.75880E-03
  170.50      1.73190E-03
  171.50      1.69550E-03
  172.50      1.66230E-03
  173.50      1.71170E-03
  174.50      1.70020E-03
  175.50      1.69200E-03
  176.50      1.67210E-03
  177.50      1.64900E-03
  178.50      1.66360E-03
  179.50      1.65930E-03
  180.50      1.66710E-03
  181.50      1.62280E-03
  182.50      1.62520E-03
  183.50      1.62060E-03
  184.50      1.53610E-03
  185.50      1.54560E-03
  186.50      1.56460E-03
  187.50      1.56820E-03
  188.50      1.49020E-03
  189.50      1.44800E-03
  190.50      1.50520E-03
  191.50      1.46640E-03
  192.50      1.41490E-03
  193.50      1.47610E-03
  194.50      1.50270E-03
  195.50      1.40970E-03
  196.70      1.46490E-03
  197.60      1.50740E-03
  198.40      1.44820E-03
  199.50      1.42380E-03
  200.50      1.45010E-03
  201.50      1.45940E-03
  202.50      1.46980E-03
  203.50      1.42110E-03
  204.50      1.41720E-03
  205.50      1.27910E-03
  206.50      1.26290E-03
  207.40      1.29790E-03
  207.80      1.26480E-03
  208.50      1.28710E-03
  209.50      1.29880E-03
  210.50      1.37010E-03
  211.50      1.38670E-03
  212.50      1.38640E-03
  213.50      1.37640E-03
  214.50      1.35760E-03
  215.50      1.36470E-03
  216.50      1.34720E-03
  217.50      1.35140E-03
  218.50      1.33500E-03
  219.50      1.34430E-03
  220.50      1.33610E-03
  221.50      1.31530E-03
  222.50      1.31760E-03
  223.50      1.30630E-03
  224.50      1.30310E-03
  225.50      1.27970E-03
  226.50      1.28850E-03
  227.50      1.28180E-03
  228.50      1.27010E-03
  229.50      1.21230E-03
  230.50      1.24210E-03
  231.50      1.24540E-03
  232.50      1.24030E-03
  233.50      1.23020E-03
  234.50      1.22900E-03
  235.50      1.22110E-03
  236.50      1.21450E-03
  237.50      1.20380E-03
  238.50      1.18280E-03
  239.50      1.18630E-03
  240.50      1.18390E-03
  241.50      1.17640E-03
  242.50      1.17170E-03
  243.50      1.16020E-03
  244.50      1.15640E-03
  245.50      1.15100E-03
  246.50      1.14550E-03
  247.50      1.13780E-03
  248.50      1.12950E-03
  249.50      1.02590E-03
  250.50      1.11050E-03
  251.30      1.07170E-03
  251.80      1.09490E-03
  252.50      1.10600E-03
  253.50      1.10120E-03
  254.50      1.08550E-03
  255.50      1.08280E-03
  256.50      1.08030E-03
  257.50      1.07500E-03
  258.50      1.07030E-03
  259.50      1.06430E-03
  260.50      1.06270E-03
  261.50      1.05570E-03
  262.50      1.05110E-03
  263.50      1.04550E-03
  264.50      1.03810E-03
  265.50      1.03280E-03
  266.50      1.02090E-03
  267.50      1.01490E-03
  268.50      1.01680E-03
  269.50      9.99380E-04
  270.50      9.99320E-04
  271.50      9.95640E-04
  272.50      9.86710E-04
  273.50      9.79320E-04
  274.50      9.81570E-04
  275.50      9.77840E-04
  276.50      9.65180E-04
  277.50      9.70070E-04
  278.50      9.63490E-04
  279.50      9.44460E-04
  280.50      9.48930E-04
  281.50      9.49990E-04
  282.50      9.36910E-04
  283.50      9.26640E-04
  284.50      9.35500E-04
  285.50      9.28660E-04
  286.50      9.24090E-04
  287.50      9.19750E-04
  288.50      9.15290E-04
  289.50      9.10430E-04
  291.00      9.01760E-04
  293.00      8.95020E-04
  295.00      8.78410E-04
  297.00      8.76520E-04
  299.00      8.66240E-04
  301.00      8.55320E-04
  303.00      8.49010E-04
  305.00      8.42450E-04
  307.00      8.35960E-04
  309.00      8.21350E-04
  311.00      8.19310E-04
  313.00      8.10240E-04
  315.00      8.02790E-04
  317.00      7.94780E-04
  319.00      7.82540E-04
  321.00      7.79120E-04
  323.00      7.73000E-04
  325.00      7.67160E-04
  327.00      7.59390E-04
  329.00      7.52220E-04
  331.00      7.46420E-04
  333.00      7.38520E-04
  335.00      7.31350E-04
  337.00      7.25510E-04
  339.00      7.20400E-04
  341.00      7.14000E-04
  343.00      7.05700E-04
  345.00      6.97080E-04
  347.00      6.92380E-04
  349.00      6.86300E-04
  351.00      6.81150E-04
  353.00      6.76220E-04
  355.00      6.70470E-04
  357.00      6.68360E-04
  359.00      6.56860E-04
  361.00      6.54400E-04
  363.00      6.46510E-04
  364.00      6.48710E-04
  365.00      6.37150E-04
  367.00      6.34790E-04
  369.00      6.30100E-04
  371.00      6.16090E-04
  373.00      6.06720E-04
  375.00      6.01960E-04
  377.00      5.88080E-04
  379.00      6.06530E-04
  381.00      6.29720E-04
  383.00      5.66030E-04
  385.00      6.51220E-04
  387.00      6.61960E-04
  389.00      5.45900E-04
  391.00      6.64780E-04
  393.00      6.63900E-04
  395.00      6.52660E-04
  397.00      5.26080E-04
  399.00      6.39790E-04
  401.00      6.46190E-04
  403.00      6.15170E-04
  405.00      6.42750E-04
  407.00      6.25890E-04
  409.00      5.78710E-04
  411.00      5.21040E-04
  413.00      6.08630E-04
  415.00      6.10580E-04
  417.00      6.12680E-04
  419.00      6.07660E-04
  421.00      6.04660E-04
  423.00      6.00110E-04
  425.00      5.92040E-04
  427.00      5.83310E-04
  429.00      5.80520E-04
  431.00      5.69990E-04
  433.00      5.20010E-04
  435.00      4.83090E-04
  437.00      5.55800E-04
  439.00      5.45350E-04
  441.00      5.53760E-04
  443.00      5.52290E-04
  445.00      5.48220E-04
  447.00      5.20150E-04
  449.00      5.39410E-04
  451.00      5.37150E-04
  453.00      5.33460E-04
  455.00      5.27840E-04
  457.00      5.24770E-04
  459.00      5.20110E-04
  461.00      5.15660E-04
  463.00      5.11150E-04
  465.00      4.99260E-04
  467.00      5.03870E-04
  469.00      4.98370E-04
  471.00      4.89630E-04
  473.00      4.94730E-04
  475.00      4.90550E-04
  477.00      4.88960E-04
  479.00      4.85110E-04
  481.00      4.79650E-04
  483.00      4.72130E-04
  485.00      4.37730E-04
  487.00      3.98600E-04
  489.00      4.60820E-04
  491.00      4.61750E-04
  493.00      4.48450E-04
  495.00      4.56590E-04
  497.00      4.55160E-04
  499.00      4.51830E-04
  501.00      4.41410E-04
  503.00      4.45170E-04
  505.00      4.39910E-04
  507.00      4.39540E-04
  509.00      4.36310E-04
  511.00      4.33190E-04
  513.00      4.29810E-04
  515.00      4.26940E-04
  517.00      4.24330E-04
  519.00      4.21710E-04
  521.00      4.18890E-04
  523.00      4.16060E-04
  525.00      4.13210E-04
  527.00      4.10370E-04
  529.00      4.07820E-04
  531.00      4.05090E-04
  533.00      4.02470E-04
  535.00      3.99760E-04
  537.00      3.97220E-04
  539.00      3.94510E-04
  541.00      3.91170E-04
  543.00      3.89510E-04
  545.00      3.86930E-04
  547.00      3.84440E-04
  549.00      3.81980E-04
  551.00      3.79620E-04
  553.00      3.77060E-04
  555.00      3.74810E-04
  557.00      3.72410E-04
  559.00      3.70010E-04
  561.00      3.67740E-04
  563.00      3.65450E-04
  565.00      3.63000E-04
  567.00      3.60340E-04
  569.00      3.56990E-04
  571.00      3.55270E-04
  573.00      3.53240E-04
  575.00      3.50660E-04
  577.00      3.49060E-04
  579.00      3.46870E-04
  581.00      3.44770E-04
  583.00      3.42430E-04
  585.00      3.40520E-04
  587.00      3.28240E-04
  589.00      3.35090E-04
  591.00      3.34640E-04
  593.00      3.32710E-04
  595.00      3.30720E-04
  597.00      3.29240E-04
  599.00      3.26940E-04
  601.00      3.25260E-04
  603.00      3.23210E-04
  605.00      3.21400E-04
  607.00      3.19630E-04
  609.00      3.17760E-04
  611.00      3.15900E-04
  613.00      3.14100E-04
  615.00      3.11970E-04
  617.00      3.10280E-04
  619.00      3.08620E-04
  621.00      3.06900E-04
  623.00      3.05160E-04
  625.00      3.03310E-04
  627.00      3.01630E-04
  629.00      2.99950E-04
  631.00      2.98200E-04
  633.00      2.96570E-04
  635.00      2.94810E-04
  637.00      2.93240E-04
  639.00      2.91570E-04
  641.00      2.89940E-04
  643.00      2.88360E-04
  645.00      2.86730E-04
  647.00      2.84850E-04
  649.00      2.83390E-04
  651.00      2.81490E-04
  653.00      2.78510E-04
  655.00      2.66630E-04
  657.00      2.39800E-04
  659.00      2.71530E-04
  661.00      2.73370E-04
  663.00      2.72790E-04
  665.00      2.71400E-04
  667.00      2.67030E-04
  669.00      2.65660E-04
  671.00      2.67100E-04
  673.00      2.65500E-04
  675.00      2.64310E-04
  677.00      2.62930E-04
  679.00      2.61070E-04
  681.00      2.60090E-04
  683.00      2.58690E-04
  685.00      2.57400E-04
  687.00      2.56040E-04
  689.00      2.54580E-04
  691.00      2.53170E-04
  693.00      2.52070E-04
  695.00      2.50760E-04
  697.00      2.49470E-04
  699.00      2.48170E-04
  701.00      2.46890E-04
  703.00      2.45570E-04
  705.00      2.44340E-04
  707.00      2.39500E-04
  709.00      2.41870E-04
  711.00      2.40590E-04
  713.00      2.39390E-04
  715.00      2.38200E-04
  717.00      2.36980E-04
  719.00      2.35810E-04
  721.00      2.34620E-04
  723.00      2.32200E-04
  725.00      2.32140E-04
  727.00      2.31120E-04
  729.00      2.28210E-04
  731.00      2.28800E-04
  733.00      2.27670E-04
  735.00      2.26560E-04
  737.00      2.25450E-04
  739.00      2.24340E-04
  741.00      2.23240E-04
  743.00      2.22150E-04
  745.00      2.21080E-04
  747.00      2.19770E-04
  749.00      2.18890E-04
  751.00      2.17820E-04
  753.00      2.16810E-04
  755.00      2.15790E-04
  757.00      2.14750E-04
  759.00      2.13700E-04
  761.00      2.12590E-04
  763.00      2.11670E-04
  765.00      2.10670E-04
  767.00      2.09670E-04
  769.00      2.08660E-04
  771.00      2.07680E-04
  773.00      2.06670E-04
  775.00      2.05740E-04
  777.00      2.04720E-04
  779.00      2.03810E-04
  781.00      2.02780E-04
  783.00      2.01920E-04
  785.00      2.01120E-04
  787.00      2.00080E-04
  789.00      1.99080E-04
  791.00      1.98330E-04
  793.00      1.97380E-04
  795.00      1.96490E-04
  797.00      1.95490E-04
  799.00      1.94690E-04
  801.00      1.93790E-04
  803.00      1.92870E-04
  805.00      1.91960E-04
  807.00      1.91090E-04
  809.00      1.89980E-04
  811.00      1.88880E-04
  813.00      1.88500E-04
  815.00      1.87500E-04
  817.00      1.86810E-04
  819.00      1.85580E-04
  821.00      1.84420E-04
  823.00      1.83730E-04
  825.00      1.83160E-04
  827.00      1.81570E-04
  829.00      1.81510E-04
  831.00      1.80810E-04
  833.00      1.79920E-04
  835.00      1.78520E-04
  837.00      1.78170E-04
  839.00      1.77640E-04
  841.00      1.76840E-04
  843.00      1.76030E-04
  845.00      1.74340E-04
  847.00      1.74530E-04
  849.00      1.73480E-04
  851.00      1.72870E-04
  853.00      1.71840E-04
  855.00      1.71090E-04
  857.00      1.70940E-04
  859.00      1.67830E-04
  861.00      1.68490E-04
  863.00      1.69290E-04
  865.00      1.66600E-04
  867.00      1.63730E-04
  869.00      1.67020E-04
  871.00      1.67490E-04
  873.00      1.64010E-04
  875.00      1.57370E-04
  877.00      1.61230E-04
  879.00      1.65060E-04
  881.00      1.65220E-04
  883.00      1.63430E-04
  885.00      1.55660E-04
  887.00      1.49810E-04
  889.00      1.59640E-04
  891.00      1.62000E-04
  893.00      1.61990E-04
  895.00      1.61650E-04
  897.00      1.60300E-04
  899.00      1.55800E-04
  901.00      1.43440E-04
  903.00      1.47950E-04
  905.00      1.55950E-04
  907.00      1.55960E-04
  909.00      1.57000E-04
  911.00      1.57000E-04
  913.00      1.56450E-04
  915.00      1.55690E-04
  917.00      1.54360E-04
  919.00      1.52740E-04
  921.00      1.45960E-04
  923.00      1.33010E-04
  925.00      1.44540E-04
  927.00      1.49950E-04
  929.00      1.50860E-04
  931.00      1.50170E-04
  933.00      1.50280E-04
  935.00      1.49700E-04
  937.00      1.49390E-04
  939.00      1.48810E-04
  941.00      1.48170E-04
  943.00      1.47590E-04
  945.00      1.46810E-04
  947.00      1.45180E-04
  949.00      1.44920E-04
  951.00      1.41890E-04
  953.00      1.35260E-04
  955.00      1.23610E-04
  957.00      1.36890E-04
  959.00      1.41040E-04
  961.00      1.41370E-04
  963.00      1.40810E-04
  965.00      1.41340E-04
  967.00      1.40840E-04
  969.00      1.40180E-04
  971.00      1.39130E-04
  973.00      1.39190E-04
  975.00      1.38670E-04
  977.00      1.38150E-04
  979.00      1.37610E-04
  981.00      1.37050E-04
  983.00      1.36560E-04
  985.00      1.36020E-04
  987.00      1.35490E-04
  989.00      1.34920E-04
  991.00      1.34080E-04
  993.00      1.33970E-04
  995.00      1.33360E-04
  997.00      1.32550E-04
  999.00      1.31700E-04
  1002.5      1.24760E-04
  1007.5      1.21990E-04
  1012.5      1.28130E-04
  1017.5      1.27960E-04
  1022.5      1.26740E-04
  1027.5      1.25630E-04
  1032.5      1.23950E-04
  1037.5      1.23350E-04
  1042.5      1.22240E-04
  1047.5      1.21140E-04
  1052.5      1.20050E-04
  1057.5      1.18980E-04
  1062.5      1.17930E-04
  1067.5      1.16680E-04
  1072.5      1.15850E-04
  1077.5      1.14840E-04
  1082.5      1.12680E-04
  1087.5      1.12070E-04
  1092.5      1.02180E-04
  1097.5      1.07300E-04
  1102.5      1.09070E-04
  1107.5      1.08850E-04
  1112.5      1.08090E-04
  1117.5      1.07180E-04
  1122.5      1.06230E-04
  1127.5      1.05380E-04
  1132.5      1.04460E-04
  1137.5      1.03620E-04
  1142.5      1.02750E-04
  1147.5      1.01920E-04
  1152.5      1.01080E-04
  1157.5      1.00240E-04
  1162.5      9.94120E-05
  1167.5      9.85900E-05
  1172.5      9.78320E-05
  1177.5      9.70420E-05
  1182.5      9.62610E-05
  1187.5      9.54940E-05
  1192.5      9.47310E-05
  1197.5      9.28410E-05
  1202.5      9.32370E-05
  1207.5      9.25040E-05
  1212.5      9.17770E-05
  1217.5      9.10610E-05
  1222.5      9.03520E-05
  1227.5      8.96530E-05
  1232.5      8.89600E-05
  1237.5      8.82740E-05
  1242.5      8.76000E-05
  1247.5      8.69200E-05
  1252.5      8.60820E-05
  1257.5      8.56050E-05
  1262.5      8.49600E-05
  1267.5      8.43300E-05
  1272.5      8.34910E-05
  1277.5      8.11360E-05
  1282.5      7.52060E-05
  1287.5      8.08640E-05
  1292.5      8.10860E-05
  1297.5      8.00030E-05
  1302.5      8.00370E-05
  1307.5      7.94700E-05
  1312.5      7.88920E-05
  1317.5      7.83200E-05
  1322.5      7.77540E-05
  1327.5      7.71950E-05
  1332.5      7.66370E-05
  1337.5      7.60810E-05
  1342.5      7.54880E-05
  1347.5      7.50130E-05
  1352.5      7.44730E-05
  1357.5      7.39580E-05
  1362.5      7.34150E-05
  1367.5      7.29270E-05
  1372.5      7.24010E-05
  1377.5      7.19160E-05
  1382.5      7.14180E-05
  1387.5      7.09240E-05
  1392.5      7.04200E-05
  1397.5      6.99500E-05
