 Castelli and Kurucz 2004-2012 Atmosphere
 T     47000.     G    5.00000 [-0.5] N(He)/Ntot=0.0784 VTURB=2.0  L/H=1.25 NOV
 Wavelength  Eddington Hnu
   (nm)    (ergs/s/cm2/Hz/sr)
  9.0900      1.49450E-19
  9.3500      4.15370E-19
  9.6100      1.07970E-18
  9.7700      1.92890E-18
  9.9600      3.70380E-18
  10.200      8.16040E-18
  10.380      1.44250E-17
  10.560      2.50140E-17
  10.770      4.64710E-17
  11.040      9.95920E-17
  11.400      2.60450E-16
  11.780      6.75420E-16
  12.130      1.54760E-15
  12.480      3.38400E-15
  12.710      5.53500E-15
  12.840      7.28470E-15
  13.050      1.11350E-14
  13.240      1.61880E-14
  13.390      2.16190E-14
  13.660      3.56460E-14
  13.980      6.36140E-14
  14.330      1.15630E-13
  14.720      2.13840E-13
  15.100      3.95100E-13
  15.520      7.36160E-13
  15.880      1.22770E-12
  16.200      1.94120E-12
  16.600      3.29800E-12
  17.030      5.57200E-12
  17.340      8.04870E-12
  17.680      1.20640E-11
  18.020      1.77110E-11
  18.170      2.04340E-11
  18.610      3.32780E-11
  19.100      5.44940E-11
  19.390      7.32890E-11
  19.840      1.11790E-10
  20.180      1.51280E-10
  20.500      2.02720E-10
  21.050      3.24210E-10
  21.620      5.13020E-10
  21.980      6.84460E-10
  22.300      8.67590E-10
  22.680      1.13820E-09
  23.000      1.34620E-07
  23.400      8.81140E-07
  24.000      3.13130E-06
  24.650      1.28740E-05
  25.240      4.19890E-05
  25.680      6.04430E-05
  26.000      7.65080E-05
  26.400      1.94940E-04
  26.850      2.41890E-04
  27.350      2.85900E-04
  27.850      2.32730E-04
  28.400      3.88190E-04
  29.000      4.96180E-04
  29.600      4.19590E-04
  30.100      2.13010E-04
  30.800      3.21530E-04
  31.800      1.94000E-04
  32.800      2.49530E-04
  33.800      1.85720E-04
  34.800      1.95750E-04
  35.700      4.28350E-04
  36.600      6.93130E-04
  37.500      8.41170E-04
  38.500      7.69520E-04
  39.500      1.10260E-03
  40.500      1.42860E-03
  41.400      1.46390E-03
  42.200      1.41830E-03
  43.000      1.37260E-03
  44.100      1.63760E-03
  45.100      1.73340E-03
  46.000      1.60320E-03
  47.000      1.71070E-03
  48.000      1.88550E-03
  49.000      1.70210E-03
  50.000      2.04660E-03
  50.600      1.81950E-03
  51.200      2.25330E-03
  52.000      2.19010E-03
  53.000      2.12320E-03
  54.000      1.91290E-03
  55.000      1.77430E-03
  56.000      2.23950E-03
  57.000      2.39510E-03
  58.000      2.40000E-03
  59.000      2.46120E-03
  60.000      2.32090E-03
  61.000      2.18100E-03
  62.000      2.55670E-03
  63.000      2.46220E-03
  64.000      2.66100E-03
  65.000      2.58840E-03
  65.800      2.44990E-03
  66.500      2.68580E-03
  67.500      2.75770E-03
  68.500      2.60090E-03
  69.500      2.79160E-03
  70.500      2.62530E-03
  71.600      2.84730E-03
  72.600      2.90680E-03
  73.500      2.92240E-03
  74.500      2.87720E-03
  75.500      2.86520E-03
  76.500      2.75200E-03
  77.500      2.89010E-03
  78.500      2.79100E-03
  79.500      2.90820E-03
  80.500      2.95040E-03
  81.500      2.97610E-03
  82.500      3.00380E-03
  83.500      2.83170E-03
  84.500      3.00340E-03
  85.500      2.95110E-03
  86.500      3.03880E-03
  87.500      3.05920E-03
  88.500      3.03800E-03
  89.500      3.04850E-03
  90.500      3.01450E-03
  91.500      2.29550E-03
  92.500      3.58490E-03
  93.500      4.60920E-03
  94.500      5.49210E-03
  95.500      6.17640E-03
  96.500      6.89120E-03
  97.500      5.38160E-03
  98.500      6.58480E-03
  99.500      6.03720E-03
  100.50      6.35000E-03
  101.50      6.43230E-03
  102.50      5.50420E-03
  103.50      6.62630E-03
  104.50      6.77520E-03
  105.50      6.72990E-03
  106.50      6.46160E-03
  107.50      6.60110E-03
  108.50      6.17080E-03
  109.50      6.51210E-03
  110.50      6.40980E-03
  111.50      6.37980E-03
  112.50      6.22470E-03
  113.50      6.35680E-03
  114.50      6.34640E-03
  115.50      6.18210E-03
  116.50      5.98130E-03
  117.50      5.59960E-03
  118.50      5.91230E-03
  119.50      5.79090E-03
  120.50      5.75570E-03
  121.50      4.76570E-03
  122.50      5.63580E-03
  123.50      5.53810E-03
  124.50      5.47420E-03
  125.50      5.59010E-03
  126.50      5.58650E-03
  127.50      5.56720E-03
  128.50      5.54290E-03
  129.50      5.51960E-03
  130.50      5.41040E-03
  131.50      5.39460E-03
  132.50      5.33720E-03
  133.50      5.32240E-03
  134.50      5.28510E-03
  135.50      5.15790E-03
  136.50      5.02480E-03
  137.50      4.91780E-03
  138.50      4.96620E-03
  139.50      4.88220E-03
  140.50      4.74270E-03
  141.50      4.96920E-03
  142.50      4.80440E-03
  143.50      4.89350E-03
  144.20      4.76290E-03
  144.70      4.76480E-03
  145.50      4.70080E-03
  146.50      4.69580E-03
  147.50      4.68540E-03
  148.50      4.72590E-03
  149.50      4.66030E-03
  150.50      4.64790E-03
  151.20      4.64960E-03
  151.70      4.57320E-03
  152.50      4.58260E-03
  153.50      4.41560E-03
  154.50      4.05360E-03
  155.50      4.09260E-03
  156.50      4.28380E-03
  157.50      4.32570E-03
  158.50      4.27920E-03
  159.50      4.27360E-03
  160.50      4.16570E-03
  161.50      4.11420E-03
  162.50      4.10690E-03
  163.50      4.06470E-03
  164.50      3.90730E-03
  165.50      4.10210E-03
  166.50      4.08760E-03
  167.20      3.97220E-03
  167.70      4.10170E-03
  168.50      4.07420E-03
  169.50      4.05730E-03
  170.50      3.99670E-03
  171.50      3.88890E-03
  172.50      3.88620E-03
  173.50      3.94820E-03
  174.50      3.91300E-03
  175.50      3.87000E-03
  176.50      3.85310E-03
  177.50      3.82460E-03
  178.50      3.81720E-03
  179.50      3.76680E-03
  180.50      3.74370E-03
  181.50      3.71620E-03
  182.50      3.68740E-03
  183.50      3.67020E-03
  184.50      3.64680E-03
  185.50      3.61710E-03
  186.50      3.59500E-03
  187.50      3.56020E-03
  188.50      3.53090E-03
  189.50      3.53380E-03
  190.50      3.50950E-03
  191.50      3.48350E-03
  192.50      3.40620E-03
  193.50      3.43850E-03
  194.50      3.41660E-03
  195.50      3.37750E-03
  196.70      3.36050E-03
  197.60      3.33510E-03
  198.40      3.32510E-03
  199.50      3.29630E-03
  200.50      3.27810E-03
  201.50      3.25490E-03
  202.50      3.23280E-03
  203.50      3.20700E-03
  204.50      3.17300E-03
  205.50      2.42360E-03
  206.50      2.33730E-03
  207.40      2.37840E-03
  207.80      2.42790E-03
  208.50      2.56430E-03
  209.50      2.85140E-03
  210.50      3.02310E-03
  211.50      3.04240E-03
  212.50      3.01530E-03
  213.50      2.99770E-03
  214.50      2.98000E-03
  215.50      3.00530E-03
  216.50      2.88000E-03
  217.50      2.99120E-03
  218.50      2.86410E-03
  219.50      2.95620E-03
  220.50      2.94240E-03
  221.50      2.80070E-03
  222.50      2.90430E-03
  223.50      2.88970E-03
  224.50      2.86410E-03
  225.50      2.73520E-03
  226.50      2.83050E-03
  227.50      2.81750E-03
  228.50      2.78910E-03
  229.50      2.74750E-03
  230.50      2.65050E-03
  231.50      2.72940E-03
  232.50      2.72490E-03
  233.50      2.70820E-03
  234.50      2.68690E-03
  235.50      2.66700E-03
  236.50      2.64920E-03
  237.50      2.62580E-03
  238.50      2.50230E-03
  239.50      2.58050E-03
  240.50      2.56860E-03
  241.50      2.55670E-03
  242.50      2.55300E-03
  243.50      2.53330E-03
  244.50      2.51860E-03
  245.50      2.49340E-03
  246.50      2.48650E-03
  247.50      2.47610E-03
  248.50      2.45500E-03
  249.50      2.35130E-03
  250.50      2.41260E-03
  251.30      2.23370E-03
  251.80      2.37420E-03
  252.50      2.37970E-03
  253.50      2.38440E-03
  254.50      2.37170E-03
  255.50      2.35610E-03
  256.50      2.34340E-03
  257.50      2.32810E-03
  258.50      2.31420E-03
  259.50      2.28250E-03
  260.50      2.28760E-03
  261.50      2.26510E-03
  262.50      2.26140E-03
  263.50      2.24850E-03
  264.50      2.23250E-03
  265.50      2.22190E-03
  266.50      2.20780E-03
  267.50      2.18460E-03
  268.50      2.18010E-03
  269.50      2.16510E-03
  270.50      2.15880E-03
  271.50      2.14460E-03
  272.50      2.13050E-03
  273.50      2.04650E-03
  274.50      2.10890E-03
  275.50      2.09590E-03
  276.50      2.08390E-03
  277.50      2.07160E-03
  278.50      2.05670E-03
  279.50      2.04300E-03
  280.50      2.03600E-03
  281.50      2.02510E-03
  282.50      2.01120E-03
  283.50      2.00270E-03
  284.50      1.99280E-03
  285.50      1.98160E-03
  286.50      1.96870E-03
  287.50      1.95760E-03
  288.50      1.94830E-03
  289.50      1.93680E-03
  291.00      1.92090E-03
  293.00      1.90120E-03
  295.00      1.87990E-03
  297.00      1.85780E-03
  299.00      1.83420E-03
  301.00      1.81630E-03
  303.00      1.79210E-03
  305.00      1.77600E-03
  307.00      1.75570E-03
  309.00      1.74250E-03
  311.00      1.72440E-03
  313.00      1.70530E-03
  315.00      1.69050E-03
  317.00      1.67190E-03
  319.00      1.65500E-03
  321.00      1.60920E-03
  323.00      1.62370E-03
  325.00      1.60760E-03
  327.00      1.58330E-03
  329.00      1.57420E-03
  331.00      1.55810E-03
  333.00      1.54290E-03
  335.00      1.52380E-03
  337.00      1.51250E-03
  339.00      1.49720E-03
  341.00      1.48180E-03
  343.00      1.47040E-03
  345.00      1.45290E-03
  347.00      1.44200E-03
  349.00      1.42860E-03
  351.00      1.41620E-03
  353.00      1.40180E-03
  355.00      1.38870E-03
  357.00      1.37630E-03
  359.00      1.36310E-03
  361.00      1.35020E-03
  363.00      1.33710E-03
  364.00      1.30440E-03
  365.00      1.18590E-03
  367.00      1.17670E-03
  369.00      1.16900E-03
  371.00      1.16620E-03
  373.00      1.17380E-03
  375.00      1.18710E-03
  377.00      1.20020E-03
  379.00      1.22180E-03
  381.00      1.24230E-03
  383.00      1.19120E-03
  385.00      1.23830E-03
  387.00      1.24390E-03
  389.00      1.14470E-03
  391.00      1.22810E-03
  393.00      1.21300E-03
  395.00      1.20850E-03
  397.00      1.10070E-03
  399.00      1.18720E-03
  401.00      1.18330E-03
  403.00      1.15230E-03
  405.00      1.16710E-03
  407.00      1.15500E-03
  409.00      1.11310E-03
  411.00      1.05470E-03
  413.00      1.12420E-03
  415.00      1.11810E-03
  417.00      1.10990E-03
  419.00      1.09380E-03
  421.00      1.07290E-03
  423.00      1.08320E-03
  425.00      1.07420E-03
  427.00      1.06550E-03
  429.00      1.05680E-03
  431.00      1.04560E-03
  433.00      1.00230E-03
  435.00      9.65520E-04
  437.00      1.01920E-03
  439.00      1.01120E-03
  441.00      1.00510E-03
  443.00      9.98110E-04
  445.00      9.89690E-04
  447.00      9.76520E-04
  449.00      9.74660E-04
  451.00      9.66040E-04
  453.00      9.56280E-04
  455.00      9.31530E-04
  457.00      9.44520E-04
  459.00      9.37330E-04
  461.00      9.30380E-04
  463.00      9.21130E-04
  465.00      9.07810E-04
  467.00      9.07410E-04
  469.00      8.69660E-04
  471.00      8.94690E-04
  473.00      8.89490E-04
  475.00      8.82840E-04
  477.00      8.76200E-04
  479.00      8.69510E-04
  481.00      8.63230E-04
  483.00      8.55090E-04
  485.00      8.27820E-04
  487.00      7.86460E-04
  489.00      8.35190E-04
  491.00      8.31780E-04
  493.00      8.23760E-04
  495.00      8.20130E-04
  497.00      8.14250E-04
  499.00      8.08510E-04
  501.00      8.01340E-04
  503.00      7.96850E-04
  505.00      7.91010E-04
  507.00      7.85700E-04
  509.00      7.80250E-04
  511.00      7.74800E-04
  513.00      7.69310E-04
  515.00      7.63960E-04
  517.00      7.58730E-04
  519.00      7.53460E-04
  521.00      7.48220E-04
  523.00      7.43150E-04
  525.00      7.37810E-04
  527.00      7.32620E-04
  529.00      7.28040E-04
  531.00      7.23110E-04
  533.00      7.18180E-04
  535.00      7.13390E-04
  537.00      7.08600E-04
  539.00      7.03820E-04
  541.00      6.83500E-04
  543.00      6.94190E-04
  545.00      6.89940E-04
  547.00      6.85340E-04
  549.00      6.80880E-04
  551.00      6.76200E-04
  553.00      6.72000E-04
  555.00      6.67630E-04
  557.00      6.63160E-04
  559.00      6.58070E-04
  561.00      6.54750E-04
  563.00      6.50540E-04
  565.00      6.46370E-04
  567.00      6.42240E-04
  569.00      6.29450E-04
  571.00      5.90780E-04
  573.00      5.87330E-04
  575.00      5.83880E-04
  577.00      5.80580E-04
  579.00      5.77430E-04
  581.00      5.72990E-04
  583.00      5.72300E-04
  585.00      5.70720E-04
  587.00      5.66860E-04
  589.00      5.68690E-04
  591.00      5.68370E-04
  593.00      5.68400E-04
  595.00      5.68890E-04
  597.00      5.69660E-04
  599.00      5.71190E-04
  601.00      5.70840E-04
  603.00      5.70670E-04
  605.00      5.70020E-04
  607.00      5.66620E-04
  609.00      5.63840E-04
  611.00      5.60720E-04
  613.00      5.57650E-04
  615.00      5.55160E-04
  617.00      5.50120E-04
  619.00      5.48490E-04
  621.00      5.45590E-04
  623.00      5.40110E-04
  625.00      5.38500E-04
  627.00      5.36030E-04
  629.00      5.32890E-04
  631.00      5.26750E-04
  633.00      5.26280E-04
  635.00      5.23730E-04
  637.00      5.20720E-04
  639.00      5.17180E-04
  641.00      5.10760E-04
  643.00      5.11720E-04
  645.00      5.08850E-04
  647.00      5.05950E-04
  649.00      5.03150E-04
  651.00      4.99580E-04
  653.00      4.91610E-04
  655.00      4.86670E-04
  657.00      4.57770E-04
  659.00      4.87480E-04
  661.00      4.86460E-04
  663.00      4.83770E-04
  665.00      4.81100E-04
  667.00      4.76260E-04
  669.00      4.68800E-04
  671.00      4.72910E-04
  673.00      4.70550E-04
  675.00      4.67950E-04
  677.00      4.65470E-04
  679.00      4.62960E-04
  681.00      4.60460E-04
  683.00      4.57970E-04
  685.00      4.55500E-04
  687.00      4.52960E-04
  689.00      4.43520E-04
  691.00      4.47690E-04
  693.00      4.45830E-04
  695.00      4.43460E-04
  697.00      4.41110E-04
  699.00      4.38770E-04
  701.00      4.36410E-04
  703.00      4.34000E-04
  705.00      4.31810E-04
  707.00      4.28440E-04
  709.00      4.27380E-04
  711.00      4.25120E-04
  713.00      4.22900E-04
  715.00      4.20760E-04
  717.00      4.13690E-04
  719.00      4.13300E-04
  721.00      4.14290E-04
  723.00      4.12170E-04
  725.00      4.10060E-04
  727.00      4.07970E-04
  729.00      4.05570E-04
  731.00      4.03760E-04
  733.00      4.01790E-04
  735.00      3.99760E-04
  737.00      3.97710E-04
  739.00      3.95720E-04
  741.00      3.93720E-04
  743.00      3.91790E-04
  745.00      3.89730E-04
  747.00      3.87900E-04
  749.00      3.85800E-04
  751.00      3.84020E-04
  753.00      3.82160E-04
  755.00      3.80280E-04
  757.00      3.78380E-04
  759.00      3.69380E-04
  761.00      3.74000E-04
  763.00      3.72880E-04
  765.00      3.71050E-04
  767.00      3.69260E-04
  769.00      3.67350E-04
  771.00      3.65640E-04
  773.00      3.63770E-04
  775.00      3.62190E-04
  777.00      3.60450E-04
  779.00      3.58730E-04
  781.00      3.57010E-04
  783.00      3.55310E-04
  785.00      3.53540E-04
  787.00      3.51920E-04
  789.00      3.50270E-04
  791.00      3.48640E-04
  793.00      3.47000E-04
  795.00      3.45370E-04
  797.00      3.43670E-04
  799.00      3.42150E-04
  801.00      3.40550E-04
  803.00      3.38920E-04
  805.00      3.37390E-04
  807.00      3.35830E-04
  809.00      3.34280E-04
  811.00      3.32740E-04
  813.00      3.31210E-04
  815.00      3.29690E-04
  817.00      3.28090E-04
  819.00      3.25180E-04
  821.00      3.11150E-04
  823.00      3.07650E-04
  825.00      3.07910E-04
  827.00      3.07120E-04
  829.00      3.05850E-04
  831.00      3.04550E-04
  833.00      3.03160E-04
  835.00      3.01910E-04
  837.00      3.00700E-04
  839.00      2.99480E-04
  841.00      2.98330E-04
  843.00      2.97180E-04
  845.00      2.96010E-04
  847.00      2.95010E-04
  849.00      2.94100E-04
  851.00      2.93080E-04
  853.00      2.92270E-04
  855.00      2.91220E-04
  857.00      2.90610E-04
  859.00      2.89480E-04
  861.00      2.88740E-04
  863.00      2.88480E-04
  865.00      2.87410E-04
  867.00      2.85630E-04
  869.00      2.86390E-04
  871.00      2.86080E-04
  873.00      2.84930E-04
  875.00      2.81420E-04
  877.00      2.83090E-04
  879.00      2.83860E-04
  881.00      2.83580E-04
  883.00      2.82770E-04
  885.00      2.78790E-04
  887.00      2.74200E-04
  889.00      2.79020E-04
  891.00      2.79510E-04
  893.00      2.78850E-04
  895.00      2.78030E-04
  897.00      2.76620E-04
  899.00      2.73780E-04
  901.00      2.64850E-04
  903.00      2.67210E-04
  905.00      2.71220E-04
  907.00      2.70980E-04
  909.00      2.70310E-04
  911.00      2.68960E-04
  913.00      2.68410E-04
  915.00      2.67460E-04
  917.00      2.65960E-04
  919.00      2.64090E-04
  921.00      2.60000E-04
  923.00      2.48840E-04
  925.00      2.57160E-04
  927.00      2.59650E-04
  929.00      2.59460E-04
  931.00      2.58710E-04
  933.00      2.57150E-04
  935.00      2.50120E-04
  937.00      2.54450E-04
  939.00      2.54440E-04
  941.00      2.53580E-04
  943.00      2.52590E-04
  945.00      2.51600E-04
  947.00      2.50480E-04
  949.00      2.49240E-04
  951.00      2.47150E-04
  953.00      2.42430E-04
  955.00      2.31220E-04
  957.00      2.41800E-04
  959.00      2.43660E-04
  961.00      2.43490E-04
  963.00      2.42640E-04
  965.00      2.41790E-04
  967.00      2.40840E-04
  969.00      2.39900E-04
  971.00      2.38580E-04
  973.00      2.37980E-04
  975.00      2.36650E-04
  977.00      2.34720E-04
  979.00      2.35260E-04
  981.00      2.34350E-04
  983.00      2.33420E-04
  985.00      2.32550E-04
  987.00      2.31650E-04
  989.00      2.30760E-04
  991.00      2.29870E-04
  993.00      2.28990E-04
  995.00      2.28120E-04
  997.00      2.27240E-04
  999.00      2.26240E-04
  1002.5      2.20590E-04
  1007.5      2.16730E-04
  1012.5      2.16660E-04
  1017.5      2.18600E-04
  1022.5      2.16570E-04
  1027.5      2.14550E-04
  1032.5      2.12460E-04
  1037.5      2.10640E-04
  1042.5      2.07500E-04
  1047.5      2.06820E-04
  1052.5      2.04950E-04
  1057.5      2.03100E-04
  1062.5      2.01280E-04
  1067.5      1.99480E-04
  1072.5      1.97710E-04
  1077.5      1.95960E-04
  1082.5      1.93860E-04
  1087.5      1.92260E-04
  1092.5      1.83560E-04
  1097.5      1.87120E-04
  1102.5      1.87470E-04
  1107.5      1.85930E-04
  1112.5      1.84340E-04
  1117.5      1.82870E-04
  1122.5      1.81310E-04
  1127.5      1.79770E-04
  1132.5      1.78250E-04
  1137.5      1.76760E-04
  1142.5      1.75280E-04
  1147.5      1.73820E-04
  1152.5      1.72370E-04
  1157.5      1.70940E-04
  1162.5      1.67390E-04
  1167.5      1.66580E-04
  1172.5      1.66770E-04
  1177.5      1.65410E-04
  1182.5      1.64070E-04
  1187.5      1.62750E-04
  1192.5      1.61440E-04
  1197.5      1.59990E-04
  1202.5      1.58870E-04
  1207.5      1.57600E-04
  1212.5      1.56340E-04
  1217.5      1.55120E-04
  1222.5      1.53900E-04
  1227.5      1.52700E-04
  1232.5      1.51500E-04
  1237.5      1.50330E-04
  1242.5      1.49160E-04
  1247.5      1.48010E-04
  1252.5      1.46860E-04
  1257.5      1.45750E-04
  1262.5      1.44640E-04
  1267.5      1.43540E-04
  1272.5      1.42450E-04
  1277.5      1.40520E-04
  1282.5      1.34290E-04
  1287.5      1.38870E-04
  1292.5      1.38230E-04
  1297.5      1.37170E-04
  1302.5      1.36190E-04
  1307.5      1.35190E-04
  1312.5      1.34190E-04
  1317.5      1.33210E-04
  1322.5      1.32240E-04
  1327.5      1.31280E-04
  1332.5      1.30330E-04
  1337.5      1.29390E-04
  1342.5      1.28460E-04
  1347.5      1.27540E-04
  1352.5      1.26630E-04
  1357.5      1.25730E-04
  1362.5      1.24840E-04
  1367.5      1.23960E-04
  1372.5      1.23080E-04
  1377.5      1.22220E-04
  1382.5      1.21370E-04
  1387.5      1.20520E-04
  1392.5      1.19680E-04
  1397.5      1.18860E-04
