 Castelli and Kurucz 2004-2012 Atmosphere
 T     44000.     G    4.50000 [-0.5] N(He)/Ntot=0.0784 VTURB=2.0  L/H=1.25 NOV
 Wavelength  Eddington Hnu
   (nm)    (ergs/s/cm2/Hz/sr)
  9.0900      1.38920E-21
  9.3500      4.22510E-21
  9.6100      1.20000E-20
  9.7700      2.25510E-20
  9.9600      4.59960E-20
  10.200      1.09130E-19
  10.380      2.03670E-19
  10.560      3.72440E-19
  10.770      7.35030E-19
  11.040      1.69880E-18
  11.400      4.89610E-18
  11.780      1.40250E-17
  12.130      3.50600E-17
  12.480      8.34380E-17
  12.710      1.44040E-16
  12.840      1.94740E-16
  13.050      3.12410E-16
  13.240      4.73840E-16
  13.390      6.54330E-16
  13.660      1.14570E-15
  13.980      2.18780E-15
  14.330      4.27950E-15
  14.720      8.60210E-15
  15.100      1.70570E-14
  15.520      3.44240E-14
  15.880      6.12920E-14
  16.200      1.01640E-13
  16.600      1.85030E-13
  17.030      3.38050E-13
  17.340      5.14440E-13
  17.680      8.13030E-13
  18.020      1.25710E-12
  18.170      1.49190E-12
  18.610      2.58570E-12
  19.100      4.56110E-12
  19.390      6.35090E-12
  19.840      1.03120E-11
  20.180      1.46280E-11
  20.500      2.03630E-11
  21.050      3.48420E-11
  21.620      5.89640E-11
  21.980      8.17580E-11
  22.300      1.07520E-10
  22.680      1.47010E-10
  23.000      4.31920E-08
  23.400      2.28100E-07
  24.000      6.31290E-07
  24.650      2.62360E-06
  25.240      9.70640E-06
  25.680      1.44740E-05
  26.000      2.08480E-05
  26.400      6.58410E-05
  26.850      8.57140E-05
  27.350      1.03370E-04
  27.850      7.85410E-05
  28.400      1.47990E-04
  29.000      2.01590E-04
  29.600      1.61090E-04
  30.100      6.98820E-05
  30.800      1.32890E-04
  31.800      8.42470E-05
  32.800      1.14280E-04
  33.800      8.69940E-05
  34.800      9.45550E-05
  35.700      2.21230E-04
  36.600      3.80800E-04
  37.500      4.73740E-04
  38.500      4.32440E-04
  39.500      6.53280E-04
  40.500      8.80880E-04
  41.400      9.13230E-04
  42.200      8.92340E-04
  43.000      8.63830E-04
  44.100      1.05600E-03
  45.100      1.12540E-03
  46.000      1.04170E-03
  47.000      1.11770E-03
  48.000      1.25730E-03
  49.000      1.10310E-03
  50.000      1.39730E-03
  50.600      1.20480E-03
  51.200      1.58040E-03
  52.000      1.52840E-03
  53.000      1.46960E-03
  54.000      1.31950E-03
  55.000      1.20940E-03
  56.000      1.57590E-03
  57.000      1.73320E-03
  58.000      1.73860E-03
  59.000      1.79380E-03
  60.000      1.66150E-03
  61.000      1.55800E-03
  62.000      1.89650E-03
  63.000      1.81880E-03
  64.000      1.99820E-03
  65.000      1.94340E-03
  65.800      1.82350E-03
  66.500      2.03250E-03
  67.500      2.10540E-03
  68.500      1.97080E-03
  69.500      2.13880E-03
  70.500      1.98710E-03
  71.600      2.20410E-03
  72.600      2.25700E-03
  73.500      2.27610E-03
  74.500      2.23690E-03
  75.500      2.23450E-03
  76.500      2.12820E-03
  77.500      2.26540E-03
  78.500      2.15850E-03
  79.500      2.28860E-03
  80.500      2.32660E-03
  81.500      2.35460E-03
  82.500      2.38260E-03
  83.500      2.22580E-03
  84.500      2.38890E-03
  85.500      2.34760E-03
  86.500      2.43150E-03
  87.500      2.45310E-03
  88.500      2.44020E-03
  89.500      2.45260E-03
  90.500      2.42690E-03
  91.500      1.91230E-03
  92.500      3.15210E-03
  93.500      4.06470E-03
  94.500      4.63880E-03
  95.500      5.14680E-03
  96.500      5.54030E-03
  97.500      4.48640E-03
  98.500      5.26160E-03
  99.500      4.88250E-03
  100.50      5.05990E-03
  101.50      5.16600E-03
  102.50      4.66200E-03
  103.50      5.34790E-03
  104.50      5.45120E-03
  105.50      5.42040E-03
  106.50      5.24650E-03
  107.50      5.33440E-03
  108.50      5.09420E-03
  109.50      5.28260E-03
  110.50      5.21980E-03
  111.50      5.18940E-03
  112.50      5.07100E-03
  113.50      5.19380E-03
  114.50      5.19340E-03
  115.50      5.06210E-03
  116.50      4.93860E-03
  117.50      4.57680E-03
  118.50      4.85990E-03
  119.50      4.77130E-03
  120.50      4.75950E-03
  121.50      4.10930E-03
  122.50      4.67610E-03
  123.50      4.60450E-03
  124.50      4.55040E-03
  125.50      4.64030E-03
  126.50      4.64900E-03
  127.50      4.64390E-03
  128.50      4.62880E-03
  129.50      4.61900E-03
  130.50      4.52820E-03
  131.50      4.52510E-03
  132.50      4.48400E-03
  133.50      4.47270E-03
  134.50      4.45560E-03
  135.50      4.34560E-03
  136.50      4.23940E-03
  137.50      4.15630E-03
  138.50      4.20210E-03
  139.50      4.12860E-03
  140.50      4.00760E-03
  141.50      4.21770E-03
  142.50      4.07010E-03
  143.50      4.15670E-03
  144.20      4.05030E-03
  144.70      4.05580E-03
  145.50      3.99940E-03
  146.50      4.00440E-03
  147.50      3.99960E-03
  148.50      4.03590E-03
  149.50      3.98100E-03
  150.50      3.97980E-03
  151.20      3.98660E-03
  151.70      3.91900E-03
  152.50      3.92950E-03
  153.50      3.77850E-03
  154.50      3.44430E-03
  155.50      3.48550E-03
  156.50      3.67000E-03
  157.50      3.72330E-03
  158.50      3.68880E-03
  159.50      3.68560E-03
  160.50      3.58610E-03
  161.50      3.54420E-03
  162.50      3.54310E-03
  163.50      3.52650E-03
  164.50      3.39710E-03
  165.50      3.55430E-03
  166.50      3.54070E-03
  167.20      3.43340E-03
  167.70      3.56790E-03
  168.50      3.54250E-03
  169.50      3.53110E-03
  170.50      3.47780E-03
  171.50      3.38370E-03
  172.50      3.38830E-03
  173.50      3.44980E-03
  174.50      3.42110E-03
  175.50      3.38320E-03
  176.50      3.37300E-03
  177.50      3.35190E-03
  178.50      3.34730E-03
  179.50      3.30240E-03
  180.50      3.28650E-03
  181.50      3.26320E-03
  182.50      3.23970E-03
  183.50      3.22860E-03
  184.50      3.21070E-03
  185.50      3.18570E-03
  186.50      3.16760E-03
  187.50      3.13740E-03
  188.50      3.11490E-03
  189.50      3.12160E-03
  190.50      3.10270E-03
  191.50      3.08160E-03
  192.50      3.01350E-03
  193.50      3.04480E-03
  194.50      3.02640E-03
  195.50      2.99110E-03
  196.70      2.97950E-03
  197.60      2.95880E-03
  198.40      2.95130E-03
  199.50      2.92710E-03
  200.50      2.91270E-03
  201.50      2.89330E-03
  202.50      2.87490E-03
  203.50      2.85310E-03
  204.50      2.82290E-03
  205.50      2.17240E-03
  206.50      2.10940E-03
  207.40      2.17140E-03
  207.80      2.23200E-03
  208.50      2.40590E-03
  209.50      2.66610E-03
  210.50      2.71580E-03
  211.50      2.71780E-03
  212.50      2.69430E-03
  213.50      2.68190E-03
  214.50      2.66690E-03
  215.50      2.69260E-03
  216.50      2.58740E-03
  217.50      2.67510E-03
  218.50      2.58030E-03
  219.50      2.64610E-03
  220.50      2.63090E-03
  221.50      2.53050E-03
  222.50      2.59820E-03
  223.50      2.58380E-03
  224.50      2.56530E-03
  225.50      2.47550E-03
  226.50      2.53430E-03
  227.50      2.52270E-03
  228.50      2.49850E-03
  229.50      2.45960E-03
  230.50      2.40160E-03
  231.50      2.45000E-03
  232.50      2.44400E-03
  233.50      2.42980E-03
  234.50      2.41100E-03
  235.50      2.39430E-03
  236.50      2.37910E-03
  237.50      2.36000E-03
  238.50      2.26990E-03
  239.50      2.32080E-03
  240.50      2.31010E-03
  241.50      2.29920E-03
  242.50      2.29640E-03
  243.50      2.27920E-03
  244.50      2.26680E-03
  245.50      2.24520E-03
  246.50      2.23870E-03
  247.50      2.23050E-03
  248.50      2.21120E-03
  249.50      2.10180E-03
  250.50      2.18120E-03
  251.30      2.04530E-03
  251.80      2.14470E-03
  252.50      2.14850E-03
  253.50      2.15170E-03
  254.50      2.14110E-03
  255.50      2.12750E-03
  256.50      2.11650E-03
  257.50      2.10310E-03
  258.50      2.09120E-03
  259.50      2.06280E-03
  260.50      2.06820E-03
  261.50      2.04820E-03
  262.50      2.04560E-03
  263.50      2.03450E-03
  264.50      2.02040E-03
  265.50      2.01110E-03
  266.50      1.99900E-03
  267.50      1.97840E-03
  268.50      1.97500E-03
  269.50      1.96190E-03
  270.50      1.95660E-03
  271.50      1.94410E-03
  272.50      1.93310E-03
  273.50      1.87030E-03
  274.50      1.91350E-03
  275.50      1.90170E-03
  276.50      1.89130E-03
  277.50      1.88040E-03
  278.50      1.86700E-03
  279.50      1.85510E-03
  280.50      1.84930E-03
  281.50      1.83970E-03
  282.50      1.82750E-03
  283.50      1.82020E-03
  284.50      1.81160E-03
  285.50      1.80150E-03
  286.50      1.78990E-03
  287.50      1.78030E-03
  288.50      1.77230E-03
  289.50      1.76250E-03
  291.00      1.74840E-03
  293.00      1.73120E-03
  295.00      1.71240E-03
  297.00      1.69280E-03
  299.00      1.67140E-03
  301.00      1.65590E-03
  303.00      1.63410E-03
  305.00      1.62000E-03
  307.00      1.60240E-03
  309.00      1.59080E-03
  311.00      1.57460E-03
  313.00      1.55780E-03
  315.00      1.54500E-03
  317.00      1.52840E-03
  319.00      1.51390E-03
  321.00      1.47630E-03
  323.00      1.48570E-03
  325.00      1.47140E-03
  327.00      1.44930E-03
  329.00      1.44150E-03
  331.00      1.42700E-03
  333.00      1.41370E-03
  335.00      1.39630E-03
  337.00      1.38650E-03
  339.00      1.37290E-03
  341.00      1.35910E-03
  343.00      1.34900E-03
  345.00      1.33320E-03
  347.00      1.32360E-03
  349.00      1.31160E-03
  351.00      1.30050E-03
  353.00      1.28750E-03
  355.00      1.27580E-03
  357.00      1.26470E-03
  359.00      1.25290E-03
  361.00      1.24130E-03
  363.00      1.22940E-03
  364.00      1.20030E-03
  365.00      1.09410E-03
  367.00      1.08590E-03
  369.00      1.08070E-03
  371.00      1.08200E-03
  373.00      1.09200E-03
  375.00      1.10940E-03
  377.00      1.12210E-03
  379.00      1.13890E-03
  381.00      1.15260E-03
  383.00      1.10720E-03
  385.00      1.14790E-03
  387.00      1.14940E-03
  389.00      1.07060E-03
  391.00      1.13500E-03
  393.00      1.11680E-03
  395.00      1.11610E-03
  397.00      1.03130E-03
  399.00      1.09790E-03
  401.00      1.09170E-03
  403.00      1.06460E-03
  405.00      1.07510E-03
  407.00      1.06540E-03
  409.00      1.03540E-03
  411.00      9.85230E-04
  413.00      1.03800E-03
  415.00      1.03060E-03
  417.00      1.02320E-03
  419.00      1.01120E-03
  421.00      9.92780E-04
  423.00      9.99120E-04
  425.00      9.90970E-04
  427.00      9.83070E-04
  429.00      9.75280E-04
  431.00      9.66330E-04
  433.00      9.35070E-04
  435.00      9.02500E-04
  437.00      9.42940E-04
  439.00      9.34280E-04
  441.00      9.28180E-04
  443.00      9.22120E-04
  445.00      9.14700E-04
  447.00      9.03380E-04
  449.00      9.01010E-04
  451.00      8.93100E-04
  453.00      8.85550E-04
  455.00      8.65700E-04
  457.00      8.73730E-04
  459.00      8.67160E-04
  461.00      8.60890E-04
  463.00      8.52500E-04
  465.00      8.39950E-04
  467.00      8.40430E-04
  469.00      8.08110E-04
  471.00      8.28680E-04
  473.00      8.23780E-04
  475.00      8.17750E-04
  477.00      8.11700E-04
  479.00      8.05620E-04
  481.00      7.99910E-04
  483.00      7.93580E-04
  485.00      7.74330E-04
  487.00      7.37170E-04
  489.00      7.76000E-04
  491.00      7.71410E-04
  493.00      7.64160E-04
  495.00      7.60650E-04
  497.00      7.55280E-04
  499.00      7.50060E-04
  501.00      7.43510E-04
  503.00      7.39420E-04
  505.00      7.34040E-04
  507.00      7.29230E-04
  509.00      7.24270E-04
  511.00      7.19300E-04
  513.00      7.14270E-04
  515.00      7.09390E-04
  517.00      7.04620E-04
  519.00      6.99800E-04
  521.00      6.95020E-04
  523.00      6.90390E-04
  525.00      6.85470E-04
  527.00      6.80720E-04
  529.00      6.76570E-04
  531.00      6.72060E-04
  533.00      6.67540E-04
  535.00      6.63180E-04
  537.00      6.58780E-04
  539.00      6.54420E-04
  541.00      6.38670E-04
  543.00      6.45860E-04
  545.00      6.41700E-04
  547.00      6.37470E-04
  549.00      6.33390E-04
  551.00      6.29090E-04
  553.00      6.25260E-04
  555.00      6.21250E-04
  557.00      6.17110E-04
  559.00      6.12370E-04
  561.00      6.09440E-04
  563.00      6.05580E-04
  565.00      6.01750E-04
  567.00      5.97960E-04
  569.00      5.86210E-04
  571.00      5.51260E-04
  573.00      5.48070E-04
  575.00      5.44890E-04
  577.00      5.41930E-04
  579.00      5.39260E-04
  581.00      5.35550E-04
  583.00      5.35620E-04
  585.00      5.34860E-04
  587.00      5.31560E-04
  589.00      5.34000E-04
  591.00      5.34150E-04
  593.00      5.34710E-04
  595.00      5.35820E-04
  597.00      5.36820E-04
  599.00      5.38230E-04
  601.00      5.36680E-04
  603.00      5.34570E-04
  605.00      5.32910E-04
  607.00      5.29130E-04
  609.00      5.26940E-04
  611.00      5.23150E-04
  613.00      5.20110E-04
  615.00      5.18010E-04
  617.00      5.12860E-04
  619.00      5.11820E-04
  621.00      5.09030E-04
  623.00      5.03740E-04
  625.00      5.02640E-04
  627.00      5.00230E-04
  629.00      4.97370E-04
  631.00      4.91200E-04
  633.00      4.91470E-04
  635.00      4.88880E-04
  637.00      4.86100E-04
  639.00      4.83100E-04
  641.00      4.76500E-04
  643.00      4.77890E-04
  645.00      4.75150E-04
  647.00      4.72460E-04
  649.00      4.69880E-04
  651.00      4.66940E-04
  653.00      4.59370E-04
  655.00      4.57070E-04
  657.00      4.30870E-04
  659.00      4.56330E-04
  661.00      4.54480E-04
  663.00      4.51990E-04
  665.00      4.49520E-04
  667.00      4.45430E-04
  669.00      4.38270E-04
  671.00      4.41980E-04
  673.00      4.39750E-04
  675.00      4.37350E-04
  677.00      4.35060E-04
  679.00      4.32750E-04
  681.00      4.30430E-04
  683.00      4.28130E-04
  685.00      4.25850E-04
  687.00      4.23570E-04
  689.00      4.15370E-04
  691.00      4.18920E-04
  693.00      4.16900E-04
  695.00      4.14710E-04
  697.00      4.12530E-04
  699.00      4.10370E-04
  701.00      4.08180E-04
  703.00      4.05940E-04
  705.00      4.03920E-04
  707.00      4.00700E-04
  709.00      3.99820E-04
  711.00      3.97730E-04
  713.00      3.95670E-04
  715.00      3.93690E-04
  717.00      3.87770E-04
  719.00      3.87500E-04
  721.00      3.87690E-04
  723.00      3.85720E-04
  725.00      3.83770E-04
  727.00      3.81830E-04
  729.00      3.79580E-04
  731.00      3.77930E-04
  733.00      3.76100E-04
  735.00      3.74220E-04
  737.00      3.72330E-04
  739.00      3.70470E-04
  741.00      3.68630E-04
  743.00      3.66840E-04
  745.00      3.64920E-04
  747.00      3.63220E-04
  749.00      3.61270E-04
  751.00      3.59620E-04
  753.00      3.57900E-04
  755.00      3.56160E-04
  757.00      3.54410E-04
  759.00      3.47220E-04
  761.00      3.50660E-04
  763.00      3.49290E-04
  765.00      3.47590E-04
  767.00      3.45930E-04
  769.00      3.44140E-04
  771.00      3.42560E-04
  773.00      3.40820E-04
  775.00      3.39360E-04
  777.00      3.37750E-04
  779.00      3.36140E-04
  781.00      3.34550E-04
  783.00      3.32970E-04
  785.00      3.31310E-04
  787.00      3.29810E-04
  789.00      3.28280E-04
  791.00      3.26770E-04
  793.00      3.25250E-04
  795.00      3.23730E-04
  797.00      3.22140E-04
  799.00      3.20730E-04
  801.00      3.19250E-04
  803.00      3.17730E-04
  805.00      3.16310E-04
  807.00      3.14860E-04
  809.00      3.13420E-04
  811.00      3.11980E-04
  813.00      3.10560E-04
  815.00      3.09150E-04
  817.00      3.07650E-04
  819.00      3.04980E-04
  821.00      2.91980E-04
  823.00      2.88920E-04
  825.00      2.89150E-04
  827.00      2.88230E-04
  829.00      2.87040E-04
  831.00      2.85830E-04
  833.00      2.84530E-04
  835.00      2.83380E-04
  837.00      2.82300E-04
  839.00      2.81210E-04
  841.00      2.80240E-04
  843.00      2.79270E-04
  845.00      2.78280E-04
  847.00      2.77420E-04
  849.00      2.76680E-04
  851.00      2.75710E-04
  853.00      2.75170E-04
  855.00      2.74060E-04
  857.00      2.73840E-04
  859.00      2.72560E-04
  861.00      2.71870E-04
  863.00      2.72100E-04
  865.00      2.71030E-04
  867.00      2.68500E-04
  869.00      2.70370E-04
  871.00      2.70250E-04
  873.00      2.69140E-04
  875.00      2.64000E-04
  877.00      2.67240E-04
  879.00      2.68250E-04
  881.00      2.67850E-04
  883.00      2.67050E-04
  885.00      2.62700E-04
  887.00      2.56510E-04
  889.00      2.63120E-04
  891.00      2.63240E-04
  893.00      2.62160E-04
  895.00      2.61650E-04
  897.00      2.60340E-04
  899.00      2.57910E-04
  901.00      2.48100E-04
  903.00      2.51480E-04
  905.00      2.55390E-04
  907.00      2.54980E-04
  909.00      2.54190E-04
  911.00      2.52550E-04
  913.00      2.52210E-04
  915.00      2.51220E-04
  917.00      2.50120E-04
  919.00      2.48630E-04
  921.00      2.45260E-04
  923.00      2.33570E-04
  925.00      2.42720E-04
  927.00      2.44490E-04
  929.00      2.44140E-04
  931.00      2.43100E-04
  933.00      2.41930E-04
  935.00      2.36050E-04
  937.00      2.38970E-04
  939.00      2.39180E-04
  941.00      2.38280E-04
  943.00      2.37350E-04
  945.00      2.36420E-04
  947.00      2.35410E-04
  949.00      2.34530E-04
  951.00      2.32780E-04
  953.00      2.29070E-04
  955.00      2.17860E-04
  957.00      2.28420E-04
  959.00      2.29530E-04
  961.00      2.29030E-04
  963.00      2.28060E-04
  965.00      2.27270E-04
  967.00      2.26380E-04
  969.00      2.25500E-04
  971.00      2.24190E-04
  973.00      2.23700E-04
  975.00      2.22550E-04
  977.00      2.20400E-04
  979.00      2.21170E-04
  981.00      2.20320E-04
  983.00      2.19450E-04
  985.00      2.18630E-04
  987.00      2.17800E-04
  989.00      2.16960E-04
  991.00      2.16130E-04
  993.00      2.15310E-04
  995.00      2.14500E-04
  997.00      2.13680E-04
  999.00      2.12870E-04
  1002.5      2.08290E-04
  1007.5      2.04650E-04
  1012.5      2.04150E-04
  1017.5      2.05610E-04
  1022.5      2.03710E-04
  1027.5      2.01810E-04
  1032.5      1.99850E-04
  1037.5      1.98160E-04
  1042.5      1.95290E-04
  1047.5      1.94590E-04
  1052.5      1.92840E-04
  1057.5      1.91110E-04
  1062.5      1.89410E-04
  1067.5      1.87710E-04
  1072.5      1.86070E-04
  1077.5      1.84430E-04
  1082.5      1.82410E-04
  1087.5      1.81140E-04
  1092.5      1.73640E-04
  1097.5      1.76800E-04
  1102.5      1.76510E-04
  1107.5      1.75040E-04
  1112.5      1.73540E-04
  1117.5      1.72170E-04
  1122.5      1.70710E-04
  1127.5      1.69270E-04
  1132.5      1.67840E-04
  1137.5      1.66450E-04
  1142.5      1.65060E-04
  1147.5      1.63690E-04
  1152.5      1.62340E-04
  1157.5      1.61000E-04
  1162.5      1.58020E-04
  1167.5      1.57210E-04
  1172.5      1.57090E-04
  1177.5      1.55820E-04
  1182.5      1.54550E-04
  1187.5      1.53320E-04
  1192.5      1.52090E-04
  1197.5      1.50700E-04
  1202.5      1.49680E-04
  1207.5      1.48500E-04
  1212.5      1.47320E-04
  1217.5      1.46170E-04
  1222.5      1.45030E-04
  1227.5      1.43900E-04
  1232.5      1.42780E-04
  1237.5      1.41680E-04
  1242.5      1.40590E-04
  1247.5      1.39510E-04
  1252.5      1.38420E-04
  1257.5      1.37390E-04
  1262.5      1.36350E-04
  1267.5      1.35310E-04
  1272.5      1.34290E-04
  1277.5      1.32720E-04
  1282.5      1.27370E-04
  1287.5      1.31110E-04
  1292.5      1.30330E-04
  1297.5      1.29320E-04
  1302.5      1.28410E-04
  1307.5      1.27470E-04
  1312.5      1.26540E-04
  1317.5      1.25620E-04
  1322.5      1.24710E-04
  1327.5      1.23800E-04
  1332.5      1.22910E-04
  1337.5      1.22030E-04
  1342.5      1.21150E-04
  1347.5      1.20290E-04
  1352.5      1.19430E-04
  1357.5      1.18590E-04
  1362.5      1.17750E-04
  1367.5      1.16920E-04
  1372.5      1.16100E-04
  1377.5      1.15290E-04
  1382.5      1.14490E-04
  1387.5      1.13690E-04
  1392.5      1.12910E-04
  1397.5      1.12130E-04
