 Castelli and Kurucz 2004-2012 Atmosphere
 T     41000.     G    4.50000 [-0.5] N(He)/Ntot=0.0784 VTURB=2.0  L/H=1.25 NOV
 Wavelength  Eddington Hnu
   (nm)    (ergs/s/cm2/Hz/sr)
  9.0900      5.64860E-24
  9.3500      1.92500E-23
  9.6100      6.13830E-23
  9.7700      1.22860E-22
  9.9600      2.71220E-22
  10.200      7.10230E-22
  10.380      1.42650E-21
  10.560      2.80560E-21
  10.770      6.02410E-21
  11.040      1.55020E-20
  11.400      5.14700E-20
  11.780      1.70870E-19
  12.130      4.87800E-19
  12.480      1.32290E-18
  12.710      2.48260E-18
  12.840      3.51170E-18
  13.050      6.07010E-18
  13.240      9.83050E-18
  13.390      1.42720E-17
  13.660      2.73810E-17
  13.980      5.78200E-17
  14.330      1.26230E-16
  14.720      2.87520E-16
  15.100      6.28840E-16
  15.520      1.42070E-15
  15.880      2.77070E-15
  16.200      4.91080E-15
  16.600      9.78490E-15
  17.030      1.97640E-14
  17.340      3.21900E-14
  17.680      5.41740E-14
  18.020      8.93340E-14
  18.170      1.10090E-13
  18.610      2.04610E-13
  19.100      3.92900E-13
  19.390      5.70560E-13
  19.840      9.95160E-13
  20.180      1.48970E-12
  20.500      2.16060E-12
  21.050      3.98420E-12
  21.620      7.26540E-12
  21.980      1.04990E-11
  22.300      1.43780E-11
  22.680      2.06040E-11
  23.000      9.68670E-09
  23.400      4.38640E-08
  24.000      8.29720E-08
  24.650      1.86090E-07
  25.240      5.71930E-07
  25.680      8.39470E-07
  26.000      1.72330E-06
  26.400      1.01500E-05
  26.850      1.47290E-05
  27.350      1.83910E-05
  27.850      1.26700E-05
  28.400      2.90800E-05
  29.000      4.05800E-05
  29.600      2.82100E-05
  30.100      1.14680E-05
  30.800      3.77460E-05
  31.800      3.13730E-05
  32.800      4.68430E-05
  33.800      3.95440E-05
  34.800      4.49090E-05
  35.700      1.04410E-04
  36.600      1.80450E-04
  37.500      2.24460E-04
  38.500      2.14300E-04
  39.500      3.17410E-04
  40.500      4.21230E-04
  41.400      4.32730E-04
  42.200      4.30520E-04
  43.000      4.13150E-04
  44.100      4.95850E-04
  45.100      5.32160E-04
  46.000      4.91410E-04
  47.000      5.19240E-04
  48.000      5.87170E-04
  49.000      5.08780E-04
  50.000      6.42680E-04
  50.600      5.84780E-04
  51.200      9.53650E-04
  52.000      9.11570E-04
  53.000      8.69410E-04
  54.000      7.93890E-04
  55.000      7.58930E-04
  56.000      9.99130E-04
  57.000      1.09100E-03
  58.000      1.07960E-03
  59.000      1.12520E-03
  60.000      1.02250E-03
  61.000      1.02040E-03
  62.000      1.24090E-03
  63.000      1.21030E-03
  64.000      1.31270E-03
  65.000      1.28470E-03
  65.800      1.19920E-03
  66.500      1.34040E-03
  67.500      1.41770E-03
  68.500      1.30980E-03
  69.500      1.44170E-03
  70.500      1.32220E-03
  71.600      1.51540E-03
  72.600      1.54960E-03
  73.500      1.57660E-03
  74.500      1.54460E-03
  75.500      1.55190E-03
  76.500      1.50010E-03
  77.500      1.58620E-03
  78.500      1.53750E-03
  79.500      1.62300E-03
  80.500      1.64120E-03
  81.500      1.67010E-03
  82.500      1.69990E-03
  83.500      1.56730E-03
  84.500      1.71200E-03
  85.500      1.69680E-03
  86.500      1.75680E-03
  87.500      1.77550E-03
  88.500      1.77680E-03
  89.500      1.79020E-03
  90.500      1.77630E-03
  91.500      1.44640E-03
  92.500      2.51480E-03
  93.500      3.37370E-03
  94.500      3.98570E-03
  95.500      4.41360E-03
  96.500      4.87240E-03
  97.500      3.74800E-03
  98.500      4.60350E-03
  99.500      4.27000E-03
  100.50      4.41080E-03
  101.50      4.54550E-03
  102.50      3.97370E-03
  103.50      4.66800E-03
  104.50      4.80540E-03
  105.50      4.77190E-03
  106.50      4.60700E-03
  107.50      4.66400E-03
  108.50      4.44180E-03
  109.50      4.63510E-03
  110.50      4.56100E-03
  111.50      4.53540E-03
  112.50      4.39190E-03
  113.50      4.53680E-03
  114.50      4.53150E-03
  115.50      4.39050E-03
  116.50      4.30010E-03
  117.50      3.86450E-03
  118.50      4.18030E-03
  119.50      4.12700E-03
  120.50      4.10060E-03
  121.50      3.47260E-03
  122.50      4.01630E-03
  123.50      4.04210E-03
  124.50      4.00260E-03
  125.50      4.05330E-03
  126.50      4.08070E-03
  127.50      4.09300E-03
  128.50      4.08850E-03
  129.50      4.05560E-03
  130.50      3.99490E-03
  131.50      4.01610E-03
  132.50      3.97750E-03
  133.50      3.96290E-03
  134.50      3.95900E-03
  135.50      3.86410E-03
  136.50      3.78620E-03
  137.50      3.72380E-03
  138.50      3.73870E-03
  139.50      3.64630E-03
  140.50      3.54790E-03
  141.50      3.73140E-03
  142.50      3.56320E-03
  143.50      3.66390E-03
  144.20      3.59290E-03
  144.70      3.59350E-03
  145.50      3.53250E-03
  146.50      3.54490E-03
  147.50      3.53260E-03
  148.50      3.56870E-03
  149.50      3.51520E-03
  150.50      3.52940E-03
  151.20      3.53250E-03
  151.70      3.48290E-03
  152.50      3.47050E-03
  153.50      3.30600E-03
  154.50      2.98370E-03
  155.50      3.02970E-03
  156.50      3.19930E-03
  157.50      3.26590E-03
  158.50      3.25270E-03
  159.50      3.24900E-03
  160.50      3.14050E-03
  161.50      3.09340E-03
  162.50      3.10430E-03
  163.50      3.09020E-03
  164.50      2.99240E-03
  165.50      3.13760E-03
  166.50      3.11840E-03
  167.20      3.00640E-03
  167.70      3.17160E-03
  168.50      3.13670E-03
  169.50      3.12330E-03
  170.50      3.07820E-03
  171.50      3.00040E-03
  172.50      2.99350E-03
  173.50      3.05880E-03
  174.50      3.03760E-03
  175.50      2.99870E-03
  176.50      2.99500E-03
  177.50      2.97530E-03
  178.50      2.97650E-03
  179.50      2.93310E-03
  180.50      2.92300E-03
  181.50      2.90390E-03
  182.50      2.87960E-03
  183.50      2.87920E-03
  184.50      2.86010E-03
  185.50      2.84130E-03
  186.50      2.82480E-03
  187.50      2.79420E-03
  188.50      2.77500E-03
  189.50      2.78780E-03
  190.50      2.77500E-03
  191.50      2.75620E-03
  192.50      2.68650E-03
  193.50      2.72610E-03
  194.50      2.71130E-03
  195.50      2.66950E-03
  196.70      2.66900E-03
  197.60      2.65370E-03
  198.40      2.64620E-03
  199.50      2.62460E-03
  200.50      2.61490E-03
  201.50      2.59780E-03
  202.50      2.58100E-03
  203.50      2.56220E-03
  204.50      2.53750E-03
  205.50      1.93930E-03
  206.50      1.87970E-03
  207.40      1.93660E-03
  207.80      1.98990E-03
  208.50      2.14790E-03
  209.50      2.38960E-03
  210.50      2.44320E-03
  211.50      2.44760E-03
  212.50      2.42410E-03
  213.50      2.41540E-03
  214.50      2.40350E-03
  215.50      2.42790E-03
  216.50      2.33030E-03
  217.50      2.41440E-03
  218.50      2.32520E-03
  219.50      2.38930E-03
  220.50      2.37610E-03
  221.50      2.28200E-03
  222.50      2.34620E-03
  223.50      2.33390E-03
  224.50      2.31570E-03
  225.50      2.23280E-03
  226.50      2.29000E-03
  227.50      2.27950E-03
  228.50      2.25650E-03
  229.50      2.21110E-03
  230.50      2.16740E-03
  231.50      2.21400E-03
  232.50      2.20910E-03
  233.50      2.19630E-03
  234.50      2.17960E-03
  235.50      2.16440E-03
  236.50      2.15050E-03
  237.50      2.13270E-03
  238.50      2.04770E-03
  239.50      2.09590E-03
  240.50      2.09170E-03
  241.50      2.08120E-03
  242.50      2.07780E-03
  243.50      2.06270E-03
  244.50      2.05150E-03
  245.50      2.03330E-03
  246.50      2.02700E-03
  247.50      2.01910E-03
  248.50      2.00130E-03
  249.50      1.86630E-03
  250.50      1.97180E-03
  251.30      1.84840E-03
  251.80      1.93800E-03
  252.50      1.94860E-03
  253.50      1.94890E-03
  254.50      1.93900E-03
  255.50      1.92640E-03
  256.50      1.91670E-03
  257.50      1.90510E-03
  258.50      1.89480E-03
  259.50      1.87100E-03
  260.50      1.87400E-03
  261.50      1.85740E-03
  262.50      1.85360E-03
  263.50      1.84410E-03
  264.50      1.83150E-03
  265.50      1.82320E-03
  266.50      1.81180E-03
  267.50      1.79270E-03
  268.50      1.79050E-03
  269.50      1.77900E-03
  270.50      1.77450E-03
  271.50      1.76270E-03
  272.50      1.75240E-03
  273.50      1.69550E-03
  274.50      1.73610E-03
  275.50      1.72570E-03
  276.50      1.71520E-03
  277.50      1.70700E-03
  278.50      1.69510E-03
  279.50      1.68170E-03
  280.50      1.67830E-03
  281.50      1.67020E-03
  282.50      1.65900E-03
  283.50      1.65210E-03
  284.50      1.64540E-03
  285.50      1.63630E-03
  286.50      1.62610E-03
  287.50      1.61810E-03
  288.50      1.61010E-03
  289.50      1.60130E-03
  291.00      1.58820E-03
  293.00      1.57290E-03
  295.00      1.55540E-03
  297.00      1.53830E-03
  299.00      1.51860E-03
  301.00      1.50480E-03
  303.00      1.48460E-03
  305.00      1.47250E-03
  307.00      1.45850E-03
  309.00      1.44640E-03
  311.00      1.43220E-03
  313.00      1.41730E-03
  315.00      1.40580E-03
  317.00      1.39100E-03
  319.00      1.37700E-03
  321.00      1.34420E-03
  323.00      1.35250E-03
  325.00      1.34000E-03
  327.00      1.31960E-03
  329.00      1.31280E-03
  331.00      1.29980E-03
  333.00      1.28780E-03
  335.00      1.27190E-03
  337.00      1.26330E-03
  339.00      1.25210E-03
  341.00      1.23990E-03
  343.00      1.23030E-03
  345.00      1.21560E-03
  347.00      1.20770E-03
  349.00      1.19680E-03
  351.00      1.18640E-03
  353.00      1.17460E-03
  355.00      1.16390E-03
  357.00      1.15450E-03
  359.00      1.14310E-03
  361.00      1.13260E-03
  363.00      1.12180E-03
  364.00      1.09720E-03
  365.00      1.00370E-03
  367.00      9.96450E-04
  369.00      9.91230E-04
  371.00      9.90640E-04
  373.00      9.98940E-04
  375.00      1.01380E-03
  377.00      1.02350E-03
  379.00      1.04180E-03
  381.00      1.05750E-03
  383.00      1.00960E-03
  385.00      1.05600E-03
  387.00      1.05750E-03
  389.00      9.77100E-04
  391.00      1.04650E-03
  393.00      1.02990E-03
  395.00      1.02840E-03
  397.00      9.40990E-04
  399.00      1.01220E-03
  401.00      1.00640E-03
  403.00      9.79900E-04
  405.00      9.92450E-04
  407.00      9.82310E-04
  409.00      9.51640E-04
  411.00      9.01790E-04
  413.00      9.56970E-04
  415.00      9.50400E-04
  417.00      9.44690E-04
  419.00      9.33540E-04
  421.00      9.16540E-04
  423.00      9.22910E-04
  425.00      9.15160E-04
  427.00      9.07840E-04
  429.00      9.00760E-04
  431.00      8.92100E-04
  433.00      8.60360E-04
  435.00      8.27670E-04
  437.00      8.70770E-04
  439.00      8.61340E-04
  441.00      8.57410E-04
  443.00      8.51940E-04
  445.00      8.45330E-04
  447.00      8.31980E-04
  449.00      8.32610E-04
  451.00      8.24780E-04
  453.00      8.18080E-04
  455.00      7.99860E-04
  457.00      8.07630E-04
  459.00      8.01300E-04
  461.00      7.95740E-04
  463.00      7.87590E-04
  465.00      7.73890E-04
  467.00      7.76680E-04
  469.00      7.47050E-04
  471.00      7.65010E-04
  473.00      7.61930E-04
  475.00      7.56370E-04
  477.00      7.50810E-04
  479.00      7.45320E-04
  481.00      7.39960E-04
  483.00      7.33930E-04
  485.00      7.14030E-04
  487.00      6.77140E-04
  489.00      7.17460E-04
  491.00      7.13590E-04
  493.00      7.05370E-04
  495.00      7.03720E-04
  497.00      6.98930E-04
  499.00      6.94120E-04
  501.00      6.87170E-04
  503.00      6.84240E-04
  505.00      6.79060E-04
  507.00      6.74970E-04
  509.00      6.70380E-04
  511.00      6.65810E-04
  513.00      6.61190E-04
  515.00      6.56690E-04
  517.00      6.52260E-04
  519.00      6.47840E-04
  521.00      6.43470E-04
  523.00      6.39190E-04
  525.00      6.34590E-04
  527.00      6.30200E-04
  529.00      6.26460E-04
  531.00      6.22310E-04
  533.00      6.18150E-04
  535.00      6.14120E-04
  537.00      6.10080E-04
  539.00      6.06050E-04
  541.00      5.91550E-04
  543.00      5.98160E-04
  545.00      5.94340E-04
  547.00      5.90450E-04
  549.00      5.86680E-04
  551.00      5.82680E-04
  553.00      5.79180E-04
  555.00      5.75490E-04
  557.00      5.71710E-04
  559.00      5.67220E-04
  561.00      5.64610E-04
  563.00      5.61050E-04
  565.00      5.57520E-04
  567.00      5.54020E-04
  569.00      5.43300E-04
  571.00      5.12690E-04
  573.00      5.09750E-04
  575.00      5.06810E-04
  577.00      5.04050E-04
  579.00      5.01490E-04
  581.00      4.98230E-04
  583.00      4.97710E-04
  585.00      4.97010E-04
  587.00      4.92570E-04
  589.00      4.95980E-04
  591.00      4.95960E-04
  593.00      4.96280E-04
  595.00      4.97050E-04
  597.00      4.97800E-04
  599.00      4.98830E-04
  601.00      4.97580E-04
  603.00      4.95490E-04
  605.00      4.93980E-04
  607.00      4.90700E-04
  609.00      4.88480E-04
  611.00      4.85040E-04
  613.00      4.82320E-04
  615.00      4.80150E-04
  617.00      4.75740E-04
  619.00      4.74580E-04
  621.00      4.71920E-04
  623.00      4.67310E-04
  625.00      4.66120E-04
  627.00      4.63800E-04
  629.00      4.61150E-04
  631.00      4.55820E-04
  633.00      4.55720E-04
  635.00      4.53310E-04
  637.00      4.50750E-04
  639.00      4.48010E-04
  641.00      4.42310E-04
  643.00      4.43170E-04
  645.00      4.40610E-04
  647.00      4.38120E-04
  649.00      4.35760E-04
  651.00      4.33060E-04
  653.00      4.26410E-04
  655.00      4.23200E-04
  657.00      3.97500E-04
  659.00      4.23040E-04
  661.00      4.21550E-04
  663.00      4.19250E-04
  665.00      4.16980E-04
  667.00      4.12720E-04
  669.00      4.06600E-04
  671.00      4.09930E-04
  673.00      4.07900E-04
  675.00      4.05690E-04
  677.00      4.03620E-04
  679.00      4.01490E-04
  681.00      3.99350E-04
  683.00      3.97230E-04
  685.00      3.95110E-04
  687.00      3.92990E-04
  689.00      3.85890E-04
  691.00      3.88710E-04
  693.00      3.86850E-04
  695.00      3.84820E-04
  697.00      3.82810E-04
  699.00      3.80810E-04
  701.00      3.78780E-04
  703.00      3.76660E-04
  705.00      3.74830E-04
  707.00      3.71110E-04
  709.00      3.71070E-04
  711.00      3.69150E-04
  713.00      3.67250E-04
  715.00      3.65390E-04
  717.00      3.60160E-04
  719.00      3.59850E-04
  721.00      3.59850E-04
  723.00      3.58030E-04
  725.00      3.56220E-04
  727.00      3.54430E-04
  729.00      3.51990E-04
  731.00      3.50820E-04
  733.00      3.49140E-04
  735.00      3.47400E-04
  737.00      3.45640E-04
  739.00      3.43950E-04
  741.00      3.42220E-04
  743.00      3.40570E-04
  745.00      3.38790E-04
  747.00      3.37220E-04
  749.00      3.35350E-04
  751.00      3.33890E-04
  753.00      3.32300E-04
  755.00      3.30690E-04
  757.00      3.29060E-04
  759.00      3.22700E-04
  761.00      3.25610E-04
  763.00      3.24320E-04
  765.00      3.22760E-04
  767.00      3.21230E-04
  769.00      3.19540E-04
  771.00      3.18100E-04
  773.00      3.16460E-04
  775.00      3.15150E-04
  777.00      3.13660E-04
  779.00      3.12170E-04
  781.00      3.10700E-04
  783.00      3.09240E-04
  785.00      3.07720E-04
  787.00      3.06320E-04
  789.00      3.04910E-04
  791.00      3.03520E-04
  793.00      3.02110E-04
  795.00      3.00710E-04
  797.00      2.99240E-04
  799.00      2.97930E-04
  801.00      2.96560E-04
  803.00      2.95140E-04
  805.00      2.93850E-04
  807.00      2.92500E-04
  809.00      2.91160E-04
  811.00      2.89840E-04
  813.00      2.88520E-04
  815.00      2.87210E-04
  817.00      2.85830E-04
  819.00      2.83440E-04
  821.00      2.72400E-04
  823.00      2.69570E-04
  825.00      2.69780E-04
  827.00      2.68880E-04
  829.00      2.67830E-04
  831.00      2.66720E-04
  833.00      2.65470E-04
  835.00      2.64330E-04
  837.00      2.63370E-04
  839.00      2.62370E-04
  841.00      2.61420E-04
  843.00      2.60480E-04
  845.00      2.59430E-04
  847.00      2.58670E-04
  849.00      2.57910E-04
  851.00      2.56930E-04
  853.00      2.56410E-04
  855.00      2.55330E-04
  857.00      2.55190E-04
  859.00      2.53660E-04
  861.00      2.53120E-04
  863.00      2.53500E-04
  865.00      2.52210E-04
  867.00      2.49510E-04
  869.00      2.51710E-04
  871.00      2.51670E-04
  873.00      2.50270E-04
  875.00      2.44760E-04
  877.00      2.48270E-04
  879.00      2.49670E-04
  881.00      2.49300E-04
  883.00      2.48430E-04
  885.00      2.43670E-04
  887.00      2.37420E-04
  889.00      2.44670E-04
  891.00      2.45010E-04
  893.00      2.44050E-04
  895.00      2.43510E-04
  897.00      2.42210E-04
  899.00      2.39730E-04
  901.00      2.29550E-04
  903.00      2.33200E-04
  905.00      2.37630E-04
  907.00      2.37130E-04
  909.00      2.36660E-04
  911.00      2.35300E-04
  913.00      2.34900E-04
  915.00      2.33960E-04
  917.00      2.32850E-04
  919.00      2.31400E-04
  921.00      2.27680E-04
  923.00      2.15910E-04
  925.00      2.25440E-04
  927.00      2.27530E-04
  929.00      2.27340E-04
  931.00      2.26320E-04
  933.00      2.25330E-04
  935.00      2.20070E-04
  937.00      2.22720E-04
  939.00      2.22820E-04
  941.00      2.21910E-04
  943.00      2.21060E-04
  945.00      2.20210E-04
  947.00      2.19150E-04
  949.00      2.18450E-04
  951.00      2.16440E-04
  953.00      2.12560E-04
  955.00      2.01440E-04
  957.00      2.12310E-04
  959.00      2.13640E-04
  961.00      2.13260E-04
  963.00      2.12360E-04
  965.00      2.11700E-04
  967.00      2.10880E-04
  969.00      2.10060E-04
  971.00      2.08530E-04
  973.00      2.08360E-04
  975.00      2.07390E-04
  977.00      2.05600E-04
  979.00      2.06040E-04
  981.00      2.05250E-04
  983.00      2.04440E-04
  985.00      2.03680E-04
  987.00      2.02900E-04
  989.00      2.02130E-04
  991.00      2.01340E-04
  993.00      2.00600E-04
  995.00      1.99840E-04
  997.00      1.99080E-04
  999.00      1.98330E-04
  1002.5      1.93510E-04
  1007.5      1.90110E-04
  1012.5      1.90310E-04
  1017.5      1.91570E-04
  1022.5      1.89800E-04
  1027.5      1.88040E-04
  1032.5      1.86130E-04
  1037.5      1.84650E-04
  1042.5      1.82120E-04
  1047.5      1.81330E-04
  1052.5      1.79700E-04
  1057.5      1.78100E-04
  1062.5      1.76510E-04
  1067.5      1.74910E-04
  1072.5      1.73410E-04
  1077.5      1.71880E-04
  1082.5      1.69770E-04
  1087.5      1.68780E-04
  1092.5      1.61140E-04
  1097.5      1.64550E-04
  1102.5      1.64450E-04
  1107.5      1.63150E-04
  1112.5      1.61760E-04
  1117.5      1.60470E-04
  1122.5      1.59100E-04
  1127.5      1.57770E-04
  1132.5      1.56450E-04
  1137.5      1.55150E-04
  1142.5      1.53860E-04
  1147.5      1.52590E-04
  1152.5      1.51330E-04
  1157.5      1.50080E-04
  1162.5      1.47440E-04
  1167.5      1.46670E-04
  1172.5      1.46450E-04
  1177.5      1.45270E-04
  1182.5      1.44090E-04
  1187.5      1.42940E-04
  1192.5      1.41800E-04
  1197.5      1.40320E-04
  1202.5      1.39560E-04
  1207.5      1.38450E-04
  1212.5      1.37360E-04
  1217.5      1.36290E-04
  1222.5      1.35230E-04
  1227.5      1.34180E-04
  1232.5      1.33140E-04
  1237.5      1.32110E-04
  1242.5      1.31100E-04
  1247.5      1.30100E-04
  1252.5      1.29060E-04
  1257.5      1.28120E-04
  1262.5      1.27150E-04
  1267.5      1.26190E-04
  1272.5      1.25240E-04
  1277.5      1.23540E-04
  1282.5      1.18370E-04
  1287.5      1.22220E-04
  1292.5      1.21560E-04
  1297.5      1.20540E-04
  1302.5      1.19770E-04
  1307.5      1.18900E-04
  1312.5      1.18030E-04
  1317.5      1.17170E-04
  1322.5      1.16320E-04
  1327.5      1.15480E-04
  1332.5      1.14650E-04
  1337.5      1.13830E-04
  1342.5      1.13000E-04
  1347.5      1.12210E-04
  1352.5      1.11420E-04
  1357.5      1.10630E-04
  1362.5      1.09850E-04
  1367.5      1.09080E-04
  1372.5      1.08310E-04
  1377.5      1.07560E-04
  1382.5      1.06810E-04
  1387.5      1.06070E-04
  1392.5      1.05340E-04
  1397.5      1.04620E-04
