 Castelli and Kurucz 2004-2012 Atmosphere
 T     50000.     G    5.00000 [-0.5a] N(He)/Ntot=0.0784 VTURB=2.0  L/H=1.25 OD
 Wavelength  Eddington Hnu
   (nm)    (ergs/s/cm2/Hz/sr)
  9.0900      3.90360E-18
  9.3500      1.02990E-17
  9.6100      2.52510E-17
  9.7700      4.40980E-17
  9.9600      8.18470E-17
  10.200      1.73100E-16
  10.380      2.97080E-16
  10.560      5.00730E-16
  10.770      9.00980E-16
  11.040      1.85650E-15
  11.400      4.62220E-15
  11.780      1.13380E-14
  12.130      2.50050E-14
  12.480      5.22150E-14
  12.710      8.34040E-14
  12.840      1.12520E-13
  13.050      1.68010E-13
  13.240      2.38870E-13
  13.390      3.14420E-13
  13.660      5.03440E-13
  13.980      8.67990E-13
  14.330      1.51120E-12
  14.720      2.60700E-12
  15.100      4.70750E-12
  15.520      8.39900E-12
  15.880      1.36860E-11
  16.200      2.41260E-11
  16.600      3.95040E-11
  17.030      6.24620E-11
  17.340      8.68970E-11
  17.680      1.26790E-10
  18.020      1.80820E-10
  18.170      2.03840E-10
  18.610      3.21630E-10
  19.100      4.89630E-10
  19.390      6.56050E-10
  19.840      9.58120E-10
  20.180      1.23240E-09
  20.500      1.61170E-09
  21.050      2.41240E-09
  21.620      3.56870E-09
  21.980      4.62290E-09
  22.300      5.59190E-09
  22.680      7.00210E-09
  23.000      3.94210E-07
  23.400      3.78660E-06
  24.000      1.03670E-05
  24.650      3.72140E-05
  25.240      1.34620E-04
  25.680      2.21040E-04
  26.000      2.09750E-04
  26.400      4.53680E-04
  26.850      5.20100E-04
  27.350      6.17680E-04
  27.850      5.00880E-04
  28.400      7.79160E-04
  29.000      9.96710E-04
  29.600      8.88130E-04
  30.100      5.37180E-04
  30.800      6.17700E-04
  31.800      2.25510E-04
  32.800      2.83610E-04
  33.800      1.80720E-04
  34.800      1.91840E-04
  35.700      4.84720E-04
  36.600      8.96780E-04
  37.500      1.15050E-03
  38.500      1.11220E-03
  39.500      1.61330E-03
  40.500      2.24600E-03
  41.400      2.25530E-03
  42.200      2.14700E-03
  43.000      2.08480E-03
  44.100      2.47230E-03
  45.100      2.61150E-03
  46.000      2.32350E-03
  47.000      2.57640E-03
  48.000      2.84930E-03
  49.000      2.53280E-03
  50.000      3.22990E-03
  50.600      2.83230E-03
  51.200      3.32330E-03
  52.000      3.24490E-03
  53.000      3.16920E-03
  54.000      2.79850E-03
  55.000      2.42320E-03
  56.000      3.05660E-03
  57.000      3.44620E-03
  58.000      3.50720E-03
  59.000      3.57350E-03
  60.000      3.30780E-03
  61.000      2.87280E-03
  62.000      3.48350E-03
  63.000      3.24250E-03
  64.000      3.68620E-03
  65.000      3.52510E-03
  65.800      3.26510E-03
  66.500      3.69540E-03
  67.500      3.75390E-03
  68.500      3.52470E-03
  69.500      3.80910E-03
  70.500      3.49300E-03
  71.600      3.80510E-03
  72.600      3.91170E-03
  73.500      3.90870E-03
  74.500      3.83090E-03
  75.500      3.76480E-03
  76.500      3.59250E-03
  77.500      3.81550E-03
  78.500      3.52130E-03
  79.500      3.77220E-03
  80.500      3.86270E-03
  81.500      3.87640E-03
  82.500      3.91500E-03
  83.500      3.66480E-03
  84.500      3.88630E-03
  85.500      3.75860E-03
  86.500      3.91230E-03
  87.500      3.94420E-03
  88.500      3.88380E-03
  89.500      3.89510E-03
  90.500      3.83040E-03
  91.500      2.88320E-03
  92.500      4.39420E-03
  93.500      5.37060E-03
  94.500      6.23350E-03
  95.500      7.21880E-03
  96.500      7.82900E-03
  97.500      6.32360E-03
  98.500      7.40740E-03
  99.500      6.83580E-03
  100.50      7.15540E-03
  101.50      7.21690E-03
  102.50      6.39410E-03
  103.50      7.43200E-03
  104.50      7.64030E-03
  105.50      7.58740E-03
  106.50      7.18120E-03
  107.50      7.49890E-03
  108.50      6.90740E-03
  109.50      7.37980E-03
  110.50      7.27710E-03
  111.50      7.24000E-03
  112.50      7.08930E-03
  113.50      7.23490E-03
  114.50      7.22340E-03
  115.50      7.03710E-03
  116.50      6.76240E-03
  117.50      6.49800E-03
  118.50      6.79650E-03
  119.50      6.58690E-03
  120.50      6.56850E-03
  121.50      5.51030E-03
  122.50      6.46860E-03
  123.50      6.25540E-03
  124.50      6.16280E-03
  125.50      6.35150E-03
  126.50      6.31280E-03
  127.50      6.28260E-03
  128.50      6.24910E-03
  129.50      6.23970E-03
  130.50      6.10110E-03
  131.50      6.06440E-03
  132.50      5.99150E-03
  133.50      5.96920E-03
  134.50      5.89340E-03
  135.50      5.77090E-03
  136.50      5.59070E-03
  137.50      5.41350E-03
  138.50      5.54490E-03
  139.50      5.42880E-03
  140.50      5.26090E-03
  141.50      5.56830E-03
  142.50      5.42600E-03
  143.50      5.50130E-03
  144.20      5.33010E-03
  144.70      5.33580E-03
  145.50      5.27040E-03
  146.50      5.24820E-03
  147.50      5.25580E-03
  148.50      5.29530E-03
  149.50      5.22360E-03
  150.50      5.18630E-03
  151.20      5.18480E-03
  151.70      5.09720E-03
  152.50      5.13100E-03
  153.50      4.96950E-03
  154.50      4.61330E-03
  155.50      4.63130E-03
  156.50      4.83660E-03
  157.50      4.87070E-03
  158.50      4.77470E-03
  159.50      4.78680E-03
  160.50      4.69160E-03
  161.50      4.65240E-03
  162.50      4.62560E-03
  163.50      4.57980E-03
  164.50      4.39210E-03
  165.50      4.60150E-03
  166.50      4.57220E-03
  167.20      4.47650E-03
  167.70      4.57430E-03
  168.50      4.55600E-03
  169.50      4.54000E-03
  170.50      4.46950E-03
  171.50      4.34940E-03
  172.50      4.33160E-03
  173.50      4.40300E-03
  174.50      4.36190E-03
  175.50      4.32710E-03
  176.50      4.28610E-03
  177.50      4.26170E-03
  178.50      4.25050E-03
  179.50      4.19840E-03
  180.50      4.16810E-03
  181.50      4.13390E-03
  182.50      4.10850E-03
  183.50      4.07950E-03
  184.50      4.05470E-03
  185.50      4.01840E-03
  186.50      3.99960E-03
  187.50      3.95620E-03
  188.50      3.92410E-03
  189.50      3.91860E-03
  190.50      3.88980E-03
  191.50      3.85820E-03
  192.50      3.77710E-03
  193.50      3.80730E-03
  194.50      3.78510E-03
  195.50      3.74740E-03
  196.70      3.72090E-03
  197.60      3.67900E-03
  198.40      3.67910E-03
  199.50      3.64300E-03
  200.50      3.62590E-03
  201.50      3.60110E-03
  202.50      3.57720E-03
  203.50      3.54590E-03
  204.50      3.50610E-03
  205.50      2.69980E-03
  206.50      2.60680E-03
  207.40      2.65160E-03
  207.80      2.70500E-03
  208.50      2.85000E-03
  209.50      3.15340E-03
  210.50      3.33420E-03
  211.50      3.35500E-03
  212.50      3.32030E-03
  213.50      3.30670E-03
  214.50      3.28500E-03
  215.50      3.30320E-03
  216.50      3.16010E-03
  217.50      3.28440E-03
  218.50      3.15180E-03
  219.50      3.24980E-03
  220.50      3.22970E-03
  221.50      3.07810E-03
  222.50      3.19110E-03
  223.50      3.17410E-03
  224.50      3.14890E-03
  225.50      3.00950E-03
  226.50      3.10530E-03
  227.50      3.09500E-03
  228.50      3.05690E-03
  229.50      3.02340E-03
  230.50      2.91450E-03
  231.50      2.99060E-03
  232.50      2.98960E-03
  233.50      2.97240E-03
  234.50      2.94800E-03
  235.50      2.92460E-03
  236.50      2.90450E-03
  237.50      2.87850E-03
  238.50      2.74100E-03
  239.50      2.82590E-03
  240.50      2.81370E-03
  241.50      2.79150E-03
  242.50      2.79750E-03
  243.50      2.77280E-03
  244.50      2.75750E-03
  245.50      2.71990E-03
  246.50      2.72070E-03
  247.50      2.71210E-03
  248.50      2.68820E-03
  249.50      2.56740E-03
  250.50      2.64300E-03
  251.30      2.44830E-03
  251.80      2.59180E-03
  252.50      2.60220E-03
  253.50      2.60880E-03
  254.50      2.59430E-03
  255.50      2.57750E-03
  256.50      2.56420E-03
  257.50      2.54660E-03
  258.50      2.52980E-03
  259.50      2.48600E-03
  260.50      2.50190E-03
  261.50      2.46720E-03
  262.50      2.47280E-03
  263.50      2.45850E-03
  264.50      2.43800E-03
  265.50      2.42910E-03
  266.50      2.41260E-03
  267.50      2.38210E-03
  268.50      2.37990E-03
  269.50      2.36470E-03
  270.50      2.35930E-03
  271.50      2.34430E-03
  272.50      2.32740E-03
  273.50      2.23780E-03
  274.50      2.30370E-03
  275.50      2.28720E-03
  276.50      2.27660E-03
  277.50      2.26010E-03
  278.50      2.23910E-03
  279.50      2.22760E-03
  280.50      2.22120E-03
  281.50      2.20910E-03
  282.50      2.19150E-03
  283.50      2.18500E-03
  284.50      2.17420E-03
  285.50      2.16160E-03
  286.50      2.14610E-03
  287.50      2.13260E-03
  288.50      2.12450E-03
  289.50      2.10970E-03
  291.00      2.09380E-03
  293.00      2.07270E-03
  295.00      2.04980E-03
  297.00      2.02380E-03
  299.00      1.99710E-03
  301.00      1.97710E-03
  303.00      1.94850E-03
  305.00      1.93290E-03
  307.00      1.90530E-03
  309.00      1.89560E-03
  311.00      1.87590E-03
  313.00      1.85420E-03
  315.00      1.83880E-03
  317.00      1.81810E-03
  319.00      1.80050E-03
  321.00      1.74910E-03
  323.00      1.76560E-03
  325.00      1.74790E-03
  327.00      1.71850E-03
  329.00      1.71000E-03
  331.00      1.69240E-03
  333.00      1.67520E-03
  335.00      1.65170E-03
  337.00      1.64140E-03
  339.00      1.62140E-03
  341.00      1.60410E-03
  343.00      1.59580E-03
  345.00      1.57440E-03
  347.00      1.56430E-03
  349.00      1.54980E-03
  351.00      1.53690E-03
  353.00      1.52040E-03
  355.00      1.50630E-03
  357.00      1.49180E-03
  359.00      1.47870E-03
  361.00      1.46480E-03
  363.00      1.44980E-03
  364.00      1.41420E-03
  365.00      1.28560E-03
  367.00      1.27550E-03
  369.00      1.26680E-03
  371.00      1.26290E-03
  373.00      1.27140E-03
  375.00      1.28550E-03
  377.00      1.29980E-03
  379.00      1.32260E-03
  381.00      1.34340E-03
  383.00      1.29210E-03
  385.00      1.33730E-03
  387.00      1.34110E-03
  389.00      1.24110E-03
  391.00      1.32390E-03
  393.00      1.30710E-03
  395.00      1.30140E-03
  397.00      1.19200E-03
  399.00      1.27920E-03
  401.00      1.27430E-03
  403.00      1.24280E-03
  405.00      1.25630E-03
  407.00      1.24300E-03
  409.00      1.19990E-03
  411.00      1.13980E-03
  413.00      1.21040E-03
  415.00      1.20370E-03
  417.00      1.19430E-03
  419.00      1.17700E-03
  421.00      1.15420E-03
  423.00      1.16510E-03
  425.00      1.15530E-03
  427.00      1.14580E-03
  429.00      1.13640E-03
  431.00      1.12440E-03
  433.00      1.08060E-03
  435.00      1.04200E-03
  437.00      1.09610E-03
  439.00      1.08790E-03
  441.00      1.08000E-03
  443.00      1.07270E-03
  445.00      1.06310E-03
  447.00      1.05160E-03
  449.00      1.04700E-03
  451.00      1.03850E-03
  453.00      1.02790E-03
  455.00      1.00150E-03
  457.00      1.01460E-03
  459.00      1.00700E-03
  461.00      9.99160E-04
  463.00      9.88100E-04
  465.00      9.75820E-04
  467.00      9.74640E-04
  469.00      9.34860E-04
  471.00      9.61270E-04
  473.00      9.55100E-04
  475.00      9.47900E-04
  477.00      9.40650E-04
  479.00      9.32840E-04
  481.00      9.26480E-04
  483.00      9.18210E-04
  485.00      8.90640E-04
  487.00      8.47130E-04
  489.00      8.96850E-04
  491.00      8.92610E-04
  493.00      8.85320E-04
  495.00      8.79980E-04
  497.00      8.73650E-04
  499.00      8.67450E-04
  501.00      8.60250E-04
  503.00      8.54810E-04
  505.00      8.48650E-04
  507.00      8.42820E-04
  509.00      8.36940E-04
  511.00      8.31020E-04
  513.00      8.25100E-04
  515.00      8.19340E-04
  517.00      8.13700E-04
  519.00      8.08010E-04
  521.00      8.02280E-04
  523.00      7.96870E-04
  525.00      7.91130E-04
  527.00      7.85260E-04
  529.00      7.80550E-04
  531.00      7.75190E-04
  533.00      7.69900E-04
  535.00      7.64740E-04
  537.00      7.59510E-04
  539.00      7.54400E-04
  541.00      7.32830E-04
  543.00      7.44030E-04
  545.00      7.39420E-04
  547.00      7.34440E-04
  549.00      7.29630E-04
  551.00      7.24410E-04
  553.00      7.20050E-04
  555.00      7.15340E-04
  557.00      7.10490E-04
  559.00      7.04670E-04
  561.00      7.01460E-04
  563.00      6.96910E-04
  565.00      6.92410E-04
  567.00      6.87960E-04
  569.00      6.74330E-04
  571.00      6.32870E-04
  573.00      6.29130E-04
  575.00      6.25390E-04
  577.00      6.21840E-04
  579.00      6.18450E-04
  581.00      6.13360E-04
  583.00      6.13010E-04
  585.00      6.11250E-04
  587.00      6.08050E-04
  589.00      6.09120E-04
  591.00      6.08740E-04
  593.00      6.08750E-04
  595.00      6.09290E-04
  597.00      6.10060E-04
  599.00      6.11580E-04
  601.00      6.11080E-04
  603.00      6.11160E-04
  605.00      6.10020E-04
  607.00      6.06350E-04
  609.00      6.03420E-04
  611.00      6.00210E-04
  613.00      5.96840E-04
  615.00      5.94060E-04
  617.00      5.88620E-04
  619.00      5.86870E-04
  621.00      5.83710E-04
  623.00      5.77830E-04
  625.00      5.76110E-04
  627.00      5.73450E-04
  629.00      5.70090E-04
  631.00      5.63450E-04
  633.00      5.62970E-04
  635.00      5.60220E-04
  637.00      5.56980E-04
  639.00      5.53150E-04
  641.00      5.46240E-04
  643.00      5.47310E-04
  645.00      5.44230E-04
  647.00      5.41110E-04
  649.00      5.38080E-04
  651.00      5.34200E-04
  653.00      5.25760E-04
  655.00      5.21060E-04
  657.00      4.90420E-04
  659.00      5.21510E-04
  661.00      5.20130E-04
  663.00      5.17230E-04
  665.00      5.14350E-04
  667.00      5.09440E-04
  669.00      5.01510E-04
  671.00      5.05390E-04
  673.00      5.03030E-04
  675.00      5.00260E-04
  677.00      4.97540E-04
  679.00      4.94860E-04
  681.00      4.92160E-04
  683.00      4.89490E-04
  685.00      4.86830E-04
  687.00      4.84160E-04
  689.00      4.73940E-04
  691.00      4.78450E-04
  693.00      4.76440E-04
  695.00      4.73890E-04
  697.00      4.71360E-04
  699.00      4.68850E-04
  701.00      4.66270E-04
  703.00      4.63700E-04
  705.00      4.61250E-04
  707.00      4.58270E-04
  709.00      4.56620E-04
  711.00      4.54140E-04
  713.00      4.51750E-04
  715.00      4.49500E-04
  717.00      4.41880E-04
  719.00      4.41480E-04
  721.00      4.42550E-04
  723.00      4.40270E-04
  725.00      4.38010E-04
  727.00      4.35760E-04
  729.00      4.33380E-04
  731.00      4.31160E-04
  733.00      4.29130E-04
  735.00      4.26950E-04
  737.00      4.24710E-04
  739.00      4.22570E-04
  741.00      4.20430E-04
  743.00      4.18400E-04
  745.00      4.16080E-04
  747.00      4.14210E-04
  749.00      4.12030E-04
  751.00      4.10010E-04
  753.00      4.08060E-04
  755.00      4.06030E-04
  757.00      4.04020E-04
  759.00      3.94310E-04
  761.00      3.99290E-04
  763.00      3.98080E-04
  765.00      3.96120E-04
  767.00      3.94150E-04
  769.00      3.92050E-04
  771.00      3.90230E-04
  773.00      3.88130E-04
  775.00      3.86620E-04
  777.00      3.84760E-04
  779.00      3.82910E-04
  781.00      3.81070E-04
  783.00      3.79240E-04
  785.00      3.77230E-04
  787.00      3.75530E-04
  789.00      3.73800E-04
  791.00      3.72070E-04
  793.00      3.70320E-04
  795.00      3.68570E-04
  797.00      3.66650E-04
  799.00      3.65110E-04
  801.00      3.63400E-04
  803.00      3.61660E-04
  805.00      3.60010E-04
  807.00      3.58340E-04
  809.00      3.56670E-04
  811.00      3.55020E-04
  813.00      3.53380E-04
  815.00      3.51750E-04
  817.00      3.49940E-04
  819.00      3.46910E-04
  821.00      3.31570E-04
  823.00      3.27790E-04
  825.00      3.28100E-04
  827.00      3.27260E-04
  829.00      3.25870E-04
  831.00      3.24480E-04
  833.00      3.22940E-04
  835.00      3.21690E-04
  837.00      3.20360E-04
  839.00      3.19060E-04
  841.00      3.17830E-04
  843.00      3.16610E-04
  845.00      3.15390E-04
  847.00      3.14320E-04
  849.00      3.13360E-04
  851.00      3.12290E-04
  853.00      3.11440E-04
  855.00      3.10300E-04
  857.00      3.09650E-04
  859.00      3.08550E-04
  861.00      3.07710E-04
  863.00      3.07430E-04
  865.00      3.06360E-04
  867.00      3.04440E-04
  869.00      3.05240E-04
  871.00      3.04880E-04
  873.00      3.03790E-04
  875.00      3.00180E-04
  877.00      3.01900E-04
  879.00      3.02550E-04
  881.00      3.02250E-04
  883.00      3.01370E-04
  885.00      2.97450E-04
  887.00      2.92700E-04
  889.00      2.97470E-04
  891.00      2.97860E-04
  893.00      2.97100E-04
  895.00      2.96130E-04
  897.00      2.94710E-04
  899.00      2.91900E-04
  901.00      2.82810E-04
  903.00      2.85150E-04
  905.00      2.89040E-04
  907.00      2.88780E-04
  909.00      2.88030E-04
  911.00      2.86450E-04
  913.00      2.85900E-04
  915.00      2.84820E-04
  917.00      2.83350E-04
  919.00      2.81350E-04
  921.00      2.77340E-04
  923.00      2.65710E-04
  925.00      2.74260E-04
  927.00      2.76600E-04
  929.00      2.76410E-04
  931.00      2.75530E-04
  933.00      2.73810E-04
  935.00      2.66250E-04
  937.00      2.70900E-04
  939.00      2.70900E-04
  941.00      2.69990E-04
  943.00      2.68930E-04
  945.00      2.67840E-04
  947.00      2.66740E-04
  949.00      2.65400E-04
  951.00      2.63350E-04
  953.00      2.58600E-04
  955.00      2.46750E-04
  957.00      2.57760E-04
  959.00      2.59490E-04
  961.00      2.59330E-04
  963.00      2.58340E-04
  965.00      2.57380E-04
  967.00      2.56370E-04
  969.00      2.55360E-04
  971.00      2.54140E-04
  973.00      2.53310E-04
  975.00      2.51880E-04
  977.00      2.49770E-04
  979.00      2.50400E-04
  981.00      2.49430E-04
  983.00      2.48410E-04
  985.00      2.47500E-04
  987.00      2.46550E-04
  989.00      2.45590E-04
  991.00      2.44630E-04
  993.00      2.43710E-04
  995.00      2.42770E-04
  997.00      2.41840E-04
  999.00      2.40820E-04
  1002.5      2.35040E-04
  1007.5      2.30880E-04
  1012.5      2.30510E-04
  1017.5      2.32600E-04
  1022.5      2.30430E-04
  1027.5      2.28250E-04
  1032.5      2.26080E-04
  1037.5      2.24080E-04
  1042.5      2.20710E-04
  1047.5      2.20020E-04
  1052.5      2.18020E-04
  1057.5      2.16050E-04
  1062.5      2.14100E-04
  1067.5      2.12180E-04
  1072.5      2.10290E-04
  1077.5      2.08420E-04
  1082.5      2.06330E-04
  1087.5      2.04530E-04
  1092.5      1.95480E-04
  1097.5      1.99170E-04
  1102.5      1.99420E-04
  1107.5      1.97710E-04
  1112.5      1.96010E-04
  1117.5      1.94440E-04
  1122.5      1.92770E-04
  1127.5      1.91120E-04
  1132.5      1.89500E-04
  1137.5      1.87910E-04
  1142.5      1.86340E-04
  1147.5      1.84780E-04
  1152.5      1.83230E-04
  1157.5      1.81710E-04
  1162.5      1.77860E-04
  1167.5      1.77010E-04
  1172.5      1.77250E-04
  1177.5      1.75810E-04
  1182.5      1.74360E-04
  1187.5      1.72960E-04
  1192.5      1.71560E-04
  1197.5      1.70110E-04
  1202.5      1.68820E-04
  1207.5      1.67470E-04
  1212.5      1.66130E-04
  1217.5      1.64830E-04
  1222.5      1.63530E-04
  1227.5      1.62240E-04
  1232.5      1.60970E-04
  1237.5      1.59720E-04
  1242.5      1.58480E-04
  1247.5      1.57250E-04
  1252.5      1.56030E-04
  1257.5      1.54840E-04
  1262.5      1.53650E-04
  1267.5      1.52480E-04
  1272.5      1.51320E-04
  1277.5      1.49440E-04
  1282.5      1.42740E-04
  1287.5      1.47540E-04
  1292.5      1.46820E-04
  1297.5      1.45720E-04
  1302.5      1.44650E-04
  1307.5      1.43580E-04
  1312.5      1.42520E-04
  1317.5      1.41470E-04
  1322.5      1.40440E-04
  1327.5      1.39410E-04
  1332.5      1.38400E-04
  1337.5      1.37400E-04
  1342.5      1.36400E-04
  1347.5      1.35420E-04
  1352.5      1.34450E-04
  1357.5      1.33490E-04
  1362.5      1.32550E-04
  1367.5      1.31610E-04
  1372.5      1.30680E-04
  1377.5      1.29760E-04
  1382.5      1.28850E-04
  1387.5      1.27950E-04
  1392.5      1.27050E-04
  1397.5      1.26170E-04
