 Castelli and Kurucz 2004-2012 Atmosphere
 T     33000.     G    4.50000 [-0.5a] N(He)/Ntot=0.0784 VTURB=2.0  L/H=1.25 OD
 Wavelength  Eddington Hnu
   (nm)    (ergs/s/cm2/Hz/sr)
  9.0900      3.63550E-32
  9.3500      2.05840E-31
  9.6100      1.07010E-30
  9.7700      2.83860E-30
  9.9600      8.71170E-30
  10.200      3.40070E-29
  10.380      9.10920E-29
  10.560      2.36560E-28
  10.770      6.94310E-28
  11.040      2.62290E-27
  11.400      1.40990E-26
  11.780      7.52320E-26
  12.130      3.22760E-25
  12.480      1.28310E-24
  12.710      3.05810E-24
  12.840      4.93260E-24
  13.050      1.04770E-23
  13.240      2.03280E-23
  13.390      3.38780E-23
  13.660      8.28480E-23
  13.980      2.29460E-22
  14.330      6.66070E-22
  14.720      2.06530E-21
  15.100      5.91140E-21
  15.520      1.78700E-20
  15.880      4.41740E-20
  16.200      9.57210E-20
  16.600      2.42180E-19
  17.030      6.26770E-19
  17.340      1.21290E-18
  17.680      2.44140E-18
  18.020      4.78550E-18
  18.170      6.40550E-18
  18.610      1.46090E-17
  19.100      3.50950E-17
  19.390      5.77780E-17
  19.840      1.22000E-16
  20.180      2.09910E-16
  20.500      3.44360E-16
  21.050      7.80200E-16
  21.620      1.74100E-15
  21.980      2.84250E-15
  22.300      4.33070E-15
  22.680      7.04610E-15
  23.000      4.37860E-12
  23.400      1.12080E-11
  24.000      1.89800E-11
  24.650      3.39500E-11
  25.240      5.82030E-11
  25.680      7.62720E-11
  26.000      1.23210E-10
  26.400      1.73270E-10
  26.850      2.61990E-10
  27.350      3.75420E-10
  27.850      4.96750E-10
  28.400      1.00930E-09
  29.000      1.49260E-09
  29.600      2.04940E-09
  30.100      2.70190E-09
  30.800      5.55470E-09
  31.800      1.23640E-08
  32.800      1.88410E-08
  33.800      3.29100E-08
  34.800      5.15460E-08
  35.700      9.77290E-08
  36.600      1.75380E-07
  37.500      2.22670E-07
  38.500      3.27420E-07
  39.500      5.08330E-07
  40.500      6.53570E-07
  41.400      8.69100E-07
  42.200      1.00190E-06
  43.000      1.19640E-06
  44.100      1.54220E-06
  45.100      1.89640E-06
  46.000      2.16740E-06
  47.000      2.65430E-06
  48.000      3.19340E-06
  49.000      3.70170E-06
  50.000      4.58540E-06
  50.600      1.03310E-05
  51.200      6.17680E-05
  52.000      5.94120E-05
  53.000      5.71140E-05
  54.000      5.51060E-05
  55.000      6.51820E-05
  56.000      7.97170E-05
  57.000      8.56860E-05
  58.000      8.14880E-05
  59.000      9.03330E-05
  60.000      8.02830E-05
  61.000      9.54010E-05
  62.000      1.10770E-04
  63.000      1.12620E-04
  64.000      1.14300E-04
  65.000      1.19340E-04
  65.800      1.08840E-04
  66.500      1.23040E-04
  67.500      1.34150E-04
  68.500      1.22100E-04
  69.500      1.47460E-04
  70.500      1.30500E-04
  71.600      1.63700E-04
  72.600      1.64950E-04
  73.500      1.70980E-04
  74.500      1.72110E-04
  75.500      1.76140E-04
  76.500      1.85610E-04
  77.500      1.93600E-04
  78.500      2.03320E-04
  79.500      2.07780E-04
  80.500      2.08240E-04
  81.500      2.13850E-04
  82.500      2.27200E-04
  83.500      2.02410E-04
  84.500      2.33600E-04
  85.500      2.38550E-04
  86.500      2.49430E-04
  87.500      2.56130E-04
  88.500      2.64690E-04
  89.500      2.72690E-04
  90.500      2.73000E-04
  91.500      2.92360E-04
  92.500      8.81890E-04
  93.500      1.44240E-03
  94.500      2.15270E-03
  95.500      2.44830E-03
  96.500      2.93090E-03
  97.500      1.48060E-03
  98.500      2.71630E-03
  99.500      2.49540E-03
  100.50      2.62110E-03
  101.50      2.71700E-03
  102.50      1.95010E-03
  103.50      2.68750E-03
  104.50      3.04200E-03
  105.50      2.98700E-03
  106.50      2.68340E-03
  107.50      2.80990E-03
  108.50      2.63790E-03
  109.50      2.87040E-03
  110.50      2.78130E-03
  111.50      2.76810E-03
  112.50      2.37320E-03
  113.50      2.75510E-03
  114.50      2.63410E-03
  115.50      2.59940E-03
  116.50      2.60640E-03
  117.50      1.99550E-03
  118.50      2.47800E-03
  119.50      2.43280E-03
  120.50      2.32570E-03
  121.50      1.71320E-03
  122.50      2.35550E-03
  123.50      2.51440E-03
  124.50      2.47150E-03
  125.50      2.49440E-03
  126.50      2.53890E-03
  127.50      2.57730E-03
  128.50      2.58600E-03
  129.50      2.42180E-03
  130.50      2.46520E-03
  131.50      2.57260E-03
  132.50      2.51140E-03
  133.50      2.47800E-03
  134.50      2.47820E-03
  135.50      2.48280E-03
  136.50      2.41240E-03
  137.50      2.40140E-03
  138.50      2.37080E-03
  139.50      1.95400E-03
  140.50      2.02780E-03
  141.50      2.31840E-03
  142.50      2.17050E-03
  143.50      2.27440E-03
  144.20      2.29430E-03
  144.70      2.28200E-03
  145.50      2.22210E-03
  146.50      2.20780E-03
  147.50      2.20830E-03
  148.50      2.22400E-03
  149.50      2.18450E-03
  150.50      2.14640E-03
  151.20      2.14020E-03
  151.70      2.14240E-03
  152.50      2.11050E-03
  153.50      1.93180E-03
  154.50      1.79290E-03
  155.50      1.78990E-03
  156.50      1.89640E-03
  157.50      1.96920E-03
  158.50      1.98180E-03
  159.50      1.99200E-03
  160.50      1.90530E-03
  161.50      1.85650E-03
  162.50      1.89010E-03
  163.50      1.90780E-03
  164.50      1.88070E-03
  165.50      1.94490E-03
  166.50      1.91920E-03
  167.20      1.84300E-03
  167.70      2.01780E-03
  168.50      1.96980E-03
  169.50      1.93680E-03
  170.50      1.91480E-03
  171.50      1.87840E-03
  172.50      1.83430E-03
  173.50      1.89760E-03
  174.50      1.89020E-03
  175.50      1.87300E-03
  176.50      1.86030E-03
  177.50      1.83950E-03
  178.50      1.85270E-03
  179.50      1.83840E-03
  180.50      1.84780E-03
  181.50      1.81810E-03
  182.50      1.81010E-03
  183.50      1.81670E-03
  184.50      1.74770E-03
  185.50      1.75330E-03
  186.50      1.76440E-03
  187.50      1.75060E-03
  188.50      1.69860E-03
  189.50      1.67640E-03
  190.50      1.71950E-03
  191.50      1.68250E-03
  192.50      1.62460E-03
  193.50      1.68720E-03
  194.50      1.70730E-03
  195.50      1.61720E-03
  196.70      1.66680E-03
  197.60      1.69690E-03
  198.40      1.65350E-03
  199.50      1.62530E-03
  200.50      1.65480E-03
  201.50      1.65940E-03
  202.50      1.65840E-03
  203.50      1.62440E-03
  204.50      1.61580E-03
  205.50      1.37450E-03
  206.50      1.34110E-03
  207.40      1.37940E-03
  207.80      1.37350E-03
  208.50      1.42800E-03
  209.50      1.50390E-03
  210.50      1.56140E-03
  211.50      1.57660E-03
  212.50      1.55820E-03
  213.50      1.55820E-03
  214.50      1.54580E-03
  215.50      1.55240E-03
  216.50      1.51370E-03
  217.50      1.53910E-03
  218.50      1.50810E-03
  219.50      1.53040E-03
  220.50      1.52160E-03
  221.50      1.48300E-03
  222.50      1.50120E-03
  223.50      1.49170E-03
  224.50      1.48360E-03
  225.50      1.44840E-03
  226.50      1.46760E-03
  227.50      1.46060E-03
  228.50      1.44020E-03
  229.50      1.36990E-03
  230.50      1.40420E-03
  231.50      1.41580E-03
  232.50      1.41350E-03
  233.50      1.40460E-03
  234.50      1.39960E-03
  235.50      1.38990E-03
  236.50      1.38140E-03
  237.50      1.36930E-03
  238.50      1.33170E-03
  239.50      1.34390E-03
  240.50      1.34800E-03
  241.50      1.33630E-03
  242.50      1.33290E-03
  243.50      1.32020E-03
  244.50      1.31610E-03
  245.50      1.30750E-03
  246.50      1.30300E-03
  247.50      1.29390E-03
  248.50      1.27940E-03
  249.50      1.06780E-03
  250.50      1.25190E-03
  251.30      1.21000E-03
  251.80      1.23210E-03
  252.50      1.25840E-03
  253.50      1.25470E-03
  254.50      1.23620E-03
  255.50      1.23390E-03
  256.50      1.22920E-03
  257.50      1.22540E-03
  258.50      1.21980E-03
  259.50      1.20980E-03
  260.50      1.20980E-03
  261.50      1.20030E-03
  262.50      1.19600E-03
  263.50      1.18920E-03
  264.50      1.18170E-03
  265.50      1.17500E-03
  266.50      1.16270E-03
  267.50      1.15220E-03
  268.50      1.15610E-03
  269.50      1.14160E-03
  270.50      1.14080E-03
  271.50      1.13460E-03
  272.50      1.12370E-03
  273.50      1.10830E-03
  274.50      1.11930E-03
  275.50      1.11310E-03
  276.50      1.10110E-03
  277.50      1.10440E-03
  278.50      1.09550E-03
  279.50      1.07200E-03
  280.50      1.08030E-03
  281.50      1.08080E-03
  282.50      1.06920E-03
  283.50      1.06090E-03
  284.50      1.06520E-03
  285.50      1.05670E-03
  286.50      1.05070E-03
  287.50      1.04520E-03
  288.50      1.04100E-03
  289.50      1.03500E-03
  291.00      1.02330E-03
  293.00      1.01770E-03
  295.00      1.00130E-03
  297.00      9.95920E-04
  299.00      9.83080E-04
  301.00      9.69800E-04
  303.00      9.58910E-04
  305.00      9.54290E-04
  307.00      9.48930E-04
  309.00      9.31090E-04
  311.00      9.29630E-04
  313.00      9.17950E-04
  315.00      9.10410E-04
  317.00      9.01650E-04
  319.00      8.90580E-04
  321.00      8.81160E-04
  323.00      8.76180E-04
  325.00      8.70580E-04
  327.00      8.58770E-04
  329.00      8.52720E-04
  331.00      8.45300E-04
  333.00      8.35500E-04
  335.00      8.27070E-04
  337.00      8.20580E-04
  339.00      8.16270E-04
  341.00      8.08610E-04
  343.00      8.00950E-04
  345.00      7.90410E-04
  347.00      7.85190E-04
  349.00      7.78120E-04
  351.00      7.72350E-04
  353.00      7.67620E-04
  355.00      7.60100E-04
  357.00      7.55910E-04
  359.00      7.45190E-04
  361.00      7.41250E-04
  363.00      7.32810E-04
  364.00      7.31380E-04
  365.00      7.09670E-04
  367.00      7.06550E-04
  369.00      7.00740E-04
  371.00      6.85470E-04
  373.00      6.75460E-04
  375.00      6.79450E-04
  377.00      6.70770E-04
  379.00      6.96470E-04
  381.00      7.19410E-04
  383.00      6.56260E-04
  385.00      7.34740E-04
  387.00      7.32600E-04
  389.00      6.36960E-04
  391.00      7.38240E-04
  393.00      7.29270E-04
  395.00      7.19160E-04
  397.00      6.12580E-04
  399.00      7.12350E-04
  401.00      7.10150E-04
  403.00      6.86080E-04
  405.00      7.04820E-04
  407.00      6.85150E-04
  409.00      6.49550E-04
  411.00      5.97450E-04
  413.00      6.70280E-04
  415.00      6.69710E-04
  417.00      6.71100E-04
  419.00      6.63790E-04
  421.00      6.58690E-04
  423.00      6.56280E-04
  425.00      6.46500E-04
  427.00      6.38410E-04
  429.00      6.33650E-04
  431.00      6.24370E-04
  433.00      5.88340E-04
  435.00      5.50800E-04
  437.00      6.11970E-04
  439.00      6.02040E-04
  441.00      6.05190E-04
  443.00      6.04120E-04
  445.00      5.99000E-04
  447.00      5.78250E-04
  449.00      5.90140E-04
  451.00      5.86620E-04
  453.00      5.83440E-04
  455.00      5.75330E-04
  457.00      5.74020E-04
  459.00      5.68410E-04
  461.00      5.63400E-04
  463.00      5.57730E-04
  465.00      5.41650E-04
  467.00      5.50020E-04
  469.00      5.41560E-04
  471.00      5.36140E-04
  473.00      5.42560E-04
  475.00      5.37860E-04
  477.00      5.35540E-04
  479.00      5.31560E-04
  481.00      5.26720E-04
  483.00      5.19680E-04
  485.00      4.94570E-04
  487.00      4.55320E-04
  489.00      5.08530E-04
  491.00      5.06990E-04
  493.00      4.95500E-04
  495.00      4.99260E-04
  497.00      4.98570E-04
  499.00      4.95010E-04
  501.00      4.85070E-04
  503.00      4.87040E-04
  505.00      4.82410E-04
  507.00      4.81470E-04
  509.00      4.77830E-04
  511.00      4.74520E-04
  513.00      4.71150E-04
  515.00      4.67980E-04
  517.00      4.64540E-04
  519.00      4.61830E-04
  521.00      4.58820E-04
  523.00      4.55820E-04
  525.00      4.52500E-04
  527.00      4.49330E-04
  529.00      4.46770E-04
  531.00      4.43760E-04
  533.00      4.40860E-04
  535.00      4.37940E-04
  537.00      4.35100E-04
  539.00      4.32010E-04
  541.00      4.26890E-04
  543.00      4.26670E-04
  545.00      4.23790E-04
  547.00      4.21050E-04
  549.00      4.18380E-04
  551.00      4.15690E-04
  553.00      4.13040E-04
  555.00      4.10480E-04
  557.00      4.07850E-04
  559.00      4.04840E-04
  561.00      4.02730E-04
  563.00      4.00210E-04
  565.00      3.97610E-04
  567.00      3.94840E-04
  569.00      3.90200E-04
  571.00      3.86000E-04
  573.00      3.83880E-04
  575.00      3.81020E-04
  577.00      3.79380E-04
  579.00      3.77040E-04
  581.00      3.74700E-04
  583.00      3.72260E-04
  585.00      3.70530E-04
  587.00      3.60080E-04
  589.00      3.65780E-04
  591.00      3.64520E-04
  593.00      3.62730E-04
  595.00      3.60900E-04
  597.00      3.59410E-04
  599.00      3.57630E-04
  601.00      3.56110E-04
  603.00      3.53940E-04
  605.00      3.51940E-04
  607.00      3.49980E-04
  609.00      3.47920E-04
  611.00      3.45850E-04
  613.00      3.43870E-04
  615.00      3.41600E-04
  617.00      3.39660E-04
  619.00      3.37870E-04
  621.00      3.35970E-04
  623.00      3.34020E-04
  625.00      3.31990E-04
  627.00      3.30190E-04
  629.00      3.28320E-04
  631.00      3.26360E-04
  633.00      3.24600E-04
  635.00      3.22660E-04
  637.00      3.20950E-04
  639.00      3.19120E-04
  641.00      3.17310E-04
  643.00      3.15580E-04
  645.00      3.13790E-04
  647.00      3.11770E-04
  649.00      3.10080E-04
  651.00      3.08310E-04
  653.00      3.05420E-04
  655.00      2.97020E-04
  657.00      2.70730E-04
  659.00      2.99340E-04
  661.00      2.99900E-04
  663.00      2.98550E-04
  665.00      2.96850E-04
  667.00      2.92670E-04
  669.00      2.91050E-04
  671.00      2.91900E-04
  673.00      2.90240E-04
  675.00      2.89050E-04
  677.00      2.87600E-04
  679.00      2.85760E-04
  681.00      2.84520E-04
  683.00      2.82910E-04
  685.00      2.81510E-04
  687.00      2.80000E-04
  689.00      2.78090E-04
  691.00      2.76650E-04
  693.00      2.75680E-04
  695.00      2.74250E-04
  697.00      2.72820E-04
  699.00      2.71400E-04
  701.00      2.69920E-04
  703.00      2.68440E-04
  705.00      2.67110E-04
  707.00      2.62430E-04
  709.00      2.64470E-04
  711.00      2.63040E-04
  713.00      2.61740E-04
  715.00      2.60460E-04
  717.00      2.58930E-04
  719.00      2.57750E-04
  721.00      2.56520E-04
  723.00      2.54310E-04
  725.00      2.53690E-04
  727.00      2.52670E-04
  729.00      2.49790E-04
  731.00      2.50120E-04
  733.00      2.48900E-04
  735.00      2.47660E-04
  737.00      2.46450E-04
  739.00      2.45230E-04
  741.00      2.44020E-04
  743.00      2.42820E-04
  745.00      2.41620E-04
  747.00      2.40090E-04
  749.00      2.39120E-04
  751.00      2.38070E-04
  753.00      2.36920E-04
  755.00      2.35830E-04
  757.00      2.34680E-04
  759.00      2.33230E-04
  761.00      2.32230E-04
  763.00      2.31290E-04
  765.00      2.30160E-04
  767.00      2.29110E-04
  769.00      2.27880E-04
  771.00      2.26910E-04
  773.00      2.25620E-04
  775.00      2.24770E-04
  777.00      2.23710E-04
  779.00      2.22680E-04
  781.00      2.21560E-04
  783.00      2.20600E-04
  785.00      2.19690E-04
  787.00      2.18440E-04
  789.00      2.17390E-04
  791.00      2.16630E-04
  793.00      2.15600E-04
  795.00      2.14650E-04
  797.00      2.13500E-04
  799.00      2.12620E-04
  801.00      2.11660E-04
  803.00      2.10640E-04
  805.00      2.09690E-04
  807.00      2.08730E-04
  809.00      2.07580E-04
  811.00      2.06100E-04
  813.00      2.05890E-04
  815.00      2.04780E-04
  817.00      2.04040E-04
  819.00      2.02530E-04
  821.00      2.00890E-04
  823.00      1.99960E-04
  825.00      1.99480E-04
  827.00      1.97720E-04
  829.00      1.97680E-04
  831.00      1.96930E-04
  833.00      1.95940E-04
  835.00      1.94460E-04
  837.00      1.94030E-04
  839.00      1.93450E-04
  841.00      1.92570E-04
  843.00      1.91710E-04
  845.00      1.90030E-04
  847.00      1.90050E-04
  849.00      1.88950E-04
  851.00      1.88030E-04
  853.00      1.87260E-04
  855.00      1.85970E-04
  857.00      1.86570E-04
  859.00      1.82870E-04
  861.00      1.83190E-04
  863.00      1.84950E-04
  865.00      1.81970E-04
  867.00      1.77310E-04
  869.00      1.82590E-04
  871.00      1.83170E-04
  873.00      1.79720E-04
  875.00      1.70630E-04
  877.00      1.76680E-04
  879.00      1.80650E-04
  881.00      1.80550E-04
  883.00      1.78960E-04
  885.00      1.71310E-04
  887.00      1.63760E-04
  889.00      1.75330E-04
  891.00      1.76950E-04
  893.00      1.76560E-04
  895.00      1.76050E-04
  897.00      1.75030E-04
  899.00      1.71370E-04
  901.00      1.58110E-04
  903.00      1.63520E-04
  905.00      1.71030E-04
  907.00      1.70370E-04
  909.00      1.70880E-04
  911.00      1.70870E-04
  913.00      1.70270E-04
  915.00      1.69550E-04
  917.00      1.68150E-04
  919.00      1.67000E-04
  921.00      1.61270E-04
  923.00      1.47450E-04
  925.00      1.59930E-04
  927.00      1.64090E-04
  929.00      1.64280E-04
  931.00      1.63450E-04
  933.00      1.63220E-04
  935.00      1.62210E-04
  937.00      1.62110E-04
  939.00      1.61500E-04
  941.00      1.60800E-04
  943.00      1.60180E-04
  945.00      1.59510E-04
  947.00      1.58140E-04
  949.00      1.57790E-04
  951.00      1.55370E-04
  953.00      1.49940E-04
  955.00      1.37670E-04
  957.00      1.51310E-04
  959.00      1.54180E-04
  961.00      1.53900E-04
  963.00      1.53210E-04
  965.00      1.53460E-04
  967.00      1.52870E-04
  969.00      1.52180E-04
  971.00      1.50690E-04
  973.00      1.51000E-04
  975.00      1.50520E-04
  977.00      1.49920E-04
  979.00      1.49350E-04
  981.00      1.48710E-04
  983.00      1.48200E-04
  985.00      1.47600E-04
  987.00      1.47060E-04
  989.00      1.46400E-04
  991.00      1.45620E-04
  993.00      1.45390E-04
  995.00      1.44840E-04
  997.00      1.44240E-04
  999.00      1.43360E-04
  1002.5      1.37490E-04
  1007.5      1.34610E-04
  1012.5      1.39110E-04
  1017.5      1.38870E-04
  1022.5      1.37530E-04
  1027.5      1.36320E-04
  1032.5      1.34630E-04
  1037.5      1.33850E-04
  1042.5      1.32640E-04
  1047.5      1.31440E-04
  1052.5      1.30260E-04
  1057.5      1.29090E-04
  1062.5      1.27940E-04
  1067.5      1.26640E-04
  1072.5      1.25690E-04
  1077.5      1.24580E-04
  1082.5      1.22480E-04
  1087.5      1.22030E-04
  1092.5      1.13130E-04
  1097.5      1.17860E-04
  1102.5      1.18660E-04
  1107.5      1.18180E-04
  1112.5      1.17240E-04
  1117.5      1.16260E-04
  1122.5      1.15230E-04
  1127.5      1.14300E-04
  1132.5      1.13280E-04
  1137.5      1.12380E-04
  1142.5      1.11450E-04
  1147.5      1.10530E-04
  1152.5      1.09630E-04
  1157.5      1.08720E-04
  1162.5      1.07710E-04
  1167.5      1.06870E-04
  1172.5      1.06100E-04
  1177.5      1.05240E-04
  1182.5      1.04380E-04
  1187.5      1.03560E-04
  1192.5      1.02730E-04
  1197.5      1.01010E-04
  1202.5      1.01110E-04
  1207.5      1.00310E-04
  1212.5      9.95140E-05
  1217.5      9.87440E-05
  1222.5      9.79730E-05
  1227.5      9.72140E-05
  1232.5      9.64600E-05
  1237.5      9.57110E-05
  1242.5      9.49840E-05
  1247.5      9.42420E-05
  1252.5      9.33570E-05
  1257.5      9.28100E-05
  1262.5      9.21090E-05
  1267.5      9.14310E-05
  1272.5      9.06910E-05
  1277.5      8.86480E-05
  1282.5      8.32950E-05
  1287.5      8.81640E-05
  1292.5      8.80680E-05
  1297.5      8.69320E-05
  1302.5      8.67500E-05
  1307.5      8.61500E-05
  1312.5      8.55220E-05
  1317.5      8.49010E-05
  1322.5      8.42870E-05
  1327.5      8.36790E-05
  1332.5      8.30720E-05
  1337.5      8.24560E-05
  1342.5      8.18290E-05
  1347.5      8.13040E-05
  1352.5      8.07070E-05
  1357.5      8.01600E-05
  1362.5      7.95530E-05
  1367.5      7.90420E-05
  1372.5      7.84520E-05
  1377.5      7.79450E-05
  1382.5      7.74040E-05
  1387.5      7.68680E-05
  1392.5      7.63160E-05
  1397.5      7.58120E-05
