 Castelli and Kurucz 2004-2012 Atmosphere
 T     33000.     G    4.00000 [-0.5a] N(He)/Ntot=0.0784 VTURB=2.0  L/H=1.25 OD
 Wavelength  Eddington Hnu
   (nm)    (ergs/s/cm2/Hz/sr)
  9.0900      4.70860E-32
  9.3500      2.69790E-31
  9.6100      1.41520E-30
  9.7700      3.77410E-30
  9.9600      1.16260E-29
  10.200      4.55350E-29
  10.380      1.22040E-28
  10.560      3.16900E-28
  10.770      9.28500E-28
  11.040      3.49280E-27
  11.400      1.86210E-26
  11.780      9.82560E-26
  12.130      4.16500E-25
  12.480      1.63470E-24
  12.710      3.86250E-24
  12.840      6.19930E-24
  13.050      1.30620E-23
  13.240      2.51630E-23
  13.390      4.17070E-23
  13.660      1.00990E-22
  13.980      2.76730E-22
  14.330      7.94360E-22
  14.720      2.43390E-21
  15.100      6.89750E-21
  15.520      2.06560E-20
  15.880      5.07420E-20
  16.200      1.09340E-19
  16.600      2.75110E-19
  17.030      7.08290E-19
  17.340      1.36650E-18
  17.680      2.74480E-18
  18.020      5.36750E-18
  18.170      7.18500E-18
  18.610      1.63480E-17
  19.100      3.91970E-17
  19.390      6.44620E-17
  19.840      1.36020E-16
  20.180      2.33860E-16
  20.500      3.83410E-16
  21.050      8.67850E-16
  21.620      1.93320E-15
  21.980      3.15860E-15
  22.300      4.81090E-15
  22.680      7.80170E-15
  23.000      1.06240E-11
  23.400      2.85280E-11
  24.000      4.59310E-11
  24.650      7.96580E-11
  25.240      1.37450E-10
  25.680      1.74240E-10
  26.000      3.05490E-10
  26.400      4.77720E-10
  26.850      7.41730E-10
  27.350      1.02610E-09
  27.850      1.26930E-09
  28.400      2.62810E-09
  29.000      3.82000E-09
  29.600      4.98480E-09
  30.100      6.88370E-09
  30.800      1.46020E-08
  31.800      3.60750E-08
  32.800      5.31580E-08
  33.800      9.57830E-08
  34.800      1.48470E-07
  35.700      2.71640E-07
  36.600      5.14710E-07
  37.500      6.16810E-07
  38.500      8.77110E-07
  39.500      1.35810E-06
  40.500      1.71430E-06
  41.400      2.19610E-06
  42.200      2.46120E-06
  43.000      2.81010E-06
  44.100      3.55780E-06
  45.100      4.22740E-06
  46.000      4.64350E-06
  47.000      5.54530E-06
  48.000      6.58880E-06
  49.000      7.21370E-06
  50.000      9.08510E-06
  50.600      1.79810E-05
  51.200      9.67310E-05
  52.000      9.28600E-05
  53.000      8.63390E-05
  54.000      8.48320E-05
  55.000      9.45630E-05
  56.000      1.23040E-04
  57.000      1.35240E-04
  58.000      1.29350E-04
  59.000      1.40780E-04
  60.000      1.15880E-04
  61.000      1.42560E-04
  62.000      1.72860E-04
  63.000      1.73940E-04
  64.000      1.81100E-04
  65.000      1.81960E-04
  65.800      1.55330E-04
  66.500      1.85450E-04
  67.500      2.11420E-04
  68.500      1.82880E-04
  69.500      2.25380E-04
  70.500      1.86240E-04
  71.600      2.50750E-04
  72.600      2.53020E-04
  73.500      2.62010E-04
  74.500      2.51930E-04
  75.500      2.58450E-04
  76.500      2.71470E-04
  77.500      2.85110E-04
  78.500      2.93820E-04
  79.500      3.04200E-04
  80.500      3.00750E-04
  81.500      3.08550E-04
  82.500      3.28920E-04
  83.500      2.81920E-04
  84.500      3.35030E-04
  85.500      3.40020E-04
  86.500      3.55700E-04
  87.500      3.63450E-04
  88.500      3.73160E-04
  89.500      3.82600E-04
  90.500      3.81200E-04
  91.500      4.20850E-04
  92.500      1.15770E-03
  93.500      1.69970E-03
  94.500      2.13610E-03
  95.500      2.35200E-03
  96.500      2.62730E-03
  97.500      1.56610E-03
  98.500      2.38650E-03
  99.500      2.23390E-03
  100.50      2.30520E-03
  101.50      2.41550E-03
  102.50      2.04200E-03
  103.50      2.43760E-03
  104.50      2.67400E-03
  105.50      2.63850E-03
  106.50      2.43500E-03
  107.50      2.51300E-03
  108.50      2.40230E-03
  109.50      2.56310E-03
  110.50      2.49880E-03
  111.50      2.49000E-03
  112.50      2.17660E-03
  113.50      2.48910E-03
  114.50      2.42600E-03
  115.50      2.36530E-03
  116.50      2.37510E-03
  117.50      1.84690E-03
  118.50      2.25950E-03
  119.50      2.23120E-03
  120.50      2.18110E-03
  121.50      1.81440E-03
  122.50      2.19050E-03
  123.50      2.31060E-03
  124.50      2.27130E-03
  125.50      2.29580E-03
  126.50      2.34110E-03
  127.50      2.38100E-03
  128.50      2.39300E-03
  129.50      2.28810E-03
  130.50      2.30620E-03
  131.50      2.39040E-03
  132.50      2.35000E-03
  133.50      2.32100E-03
  134.50      2.33700E-03
  135.50      2.31870E-03
  136.50      2.27440E-03
  137.50      2.25780E-03
  138.50      2.23670E-03
  139.50      1.89250E-03
  140.50      1.94080E-03
  141.50      2.20540E-03
  142.50      2.06320E-03
  143.50      2.16380E-03
  144.20      2.17010E-03
  144.70      2.16450E-03
  145.50      2.10760E-03
  146.50      2.10570E-03
  147.50      2.11080E-03
  148.50      2.12990E-03
  149.50      2.09290E-03
  150.50      2.08480E-03
  151.20      2.08560E-03
  151.70      2.08480E-03
  152.50      2.05010E-03
  153.50      1.89250E-03
  154.50      1.71210E-03
  155.50      1.72780E-03
  156.50      1.84820E-03
  157.50      1.92350E-03
  158.50      1.93490E-03
  159.50      1.94190E-03
  160.50      1.85330E-03
  161.50      1.81270E-03
  162.50      1.84290E-03
  163.50      1.85960E-03
  164.50      1.83560E-03
  165.50      1.90030E-03
  166.50      1.87350E-03
  167.20      1.79230E-03
  167.70      1.97310E-03
  168.50      1.92720E-03
  169.50      1.90080E-03
  170.50      1.88520E-03
  171.50      1.84700E-03
  172.50      1.81220E-03
  173.50      1.87570E-03
  174.50      1.86850E-03
  175.50      1.84880E-03
  176.50      1.84480E-03
  177.50      1.82830E-03
  178.50      1.84210E-03
  179.50      1.82030E-03
  180.50      1.82940E-03
  181.50      1.80970E-03
  182.50      1.79800E-03
  183.50      1.81100E-03
  184.50      1.76500E-03
  185.50      1.76680E-03
  186.50      1.76990E-03
  187.50      1.75060E-03
  188.50      1.71830E-03
  189.50      1.71350E-03
  190.50      1.74070E-03
  191.50      1.71370E-03
  192.50      1.65660E-03
  193.50      1.71250E-03
  194.50      1.72480E-03
  195.50      1.64850E-03
  196.70      1.69040E-03
  197.60      1.70630E-03
  198.40      1.68020E-03
  199.50      1.65250E-03
  200.50      1.68050E-03
  201.50      1.67990E-03
  202.50      1.67400E-03
  203.50      1.65210E-03
  204.50      1.64110E-03
  205.50      1.35350E-03
  206.50      1.31950E-03
  207.40      1.37290E-03
  207.80      1.38470E-03
  208.50      1.48190E-03
  209.50      1.56790E-03
  210.50      1.58590E-03
  211.50      1.60170E-03
  212.50      1.58100E-03
  213.50      1.58490E-03
  214.50      1.57570E-03
  215.50      1.58530E-03
  216.50      1.53720E-03
  217.50      1.57180E-03
  218.50      1.53810E-03
  219.50      1.56370E-03
  220.50      1.55410E-03
  221.50      1.51450E-03
  222.50      1.53490E-03
  223.50      1.52720E-03
  224.50      1.51780E-03
  225.50      1.48380E-03
  226.50      1.50260E-03
  227.50      1.49660E-03
  228.50      1.47640E-03
  229.50      1.40730E-03
  230.50      1.44160E-03
  231.50      1.45290E-03
  232.50      1.45190E-03
  233.50      1.44430E-03
  234.50      1.43700E-03
  235.50      1.42710E-03
  236.50      1.41830E-03
  237.50      1.40650E-03
  238.50      1.36570E-03
  239.50      1.38050E-03
  240.50      1.38600E-03
  241.50      1.37500E-03
  242.50      1.37290E-03
  243.50      1.36150E-03
  244.50      1.35650E-03
  245.50      1.34670E-03
  246.50      1.34280E-03
  247.50      1.33410E-03
  248.50      1.31620E-03
  249.50      1.06890E-03
  250.50      1.28730E-03
  251.30      1.24920E-03
  251.80      1.27350E-03
  252.50      1.29920E-03
  253.50      1.29600E-03
  254.50      1.28190E-03
  255.50      1.27770E-03
  256.50      1.27270E-03
  257.50      1.26820E-03
  258.50      1.26230E-03
  259.50      1.24970E-03
  260.50      1.25110E-03
  261.50      1.24070E-03
  262.50      1.23730E-03
  263.50      1.23150E-03
  264.50      1.22350E-03
  265.50      1.21800E-03
  266.50      1.20740E-03
  267.50      1.19410E-03
  268.50      1.19790E-03
  269.50      1.18730E-03
  270.50      1.18620E-03
  271.50      1.17870E-03
  272.50      1.16950E-03
  273.50      1.14990E-03
  274.50      1.16400E-03
  275.50      1.15700E-03
  276.50      1.14700E-03
  277.50      1.14750E-03
  278.50      1.13840E-03
  279.50      1.11780E-03
  280.50      1.12510E-03
  281.50      1.12360E-03
  282.50      1.11420E-03
  283.50      1.10830E-03
  284.50      1.10870E-03
  285.50      1.10110E-03
  286.50      1.09450E-03
  287.50      1.08920E-03
  288.50      1.08490E-03
  289.50      1.07880E-03
  291.00      1.06780E-03
  293.00      1.06130E-03
  295.00      1.04700E-03
  297.00      1.03900E-03
  299.00      1.02540E-03
  301.00      1.01360E-03
  303.00      1.00070E-03
  305.00      9.96210E-04
  307.00      9.90280E-04
  309.00      9.75470E-04
  311.00      9.71460E-04
  313.00      9.60360E-04
  315.00      9.52640E-04
  317.00      9.43790E-04
  319.00      9.34010E-04
  321.00      9.20640E-04
  323.00      9.18500E-04
  325.00      9.12350E-04
  327.00      8.98560E-04
  329.00      8.93730E-04
  331.00      8.85660E-04
  333.00      8.76170E-04
  335.00      8.66410E-04
  337.00      8.60650E-04
  339.00      8.56000E-04
  341.00      8.48070E-04
  343.00      8.40800E-04
  345.00      8.29810E-04
  347.00      8.25190E-04
  349.00      8.18080E-04
  351.00      8.12280E-04
  353.00      8.06200E-04
  355.00      7.98660E-04
  357.00      7.93560E-04
  359.00      7.84110E-04
  361.00      7.78400E-04
  363.00      7.70620E-04
  364.00      7.65120E-04
  365.00      7.31520E-04
  367.00      7.27600E-04
  369.00      7.21680E-04
  371.00      7.10460E-04
  373.00      7.04210E-04
  375.00      7.18220E-04
  377.00      7.17040E-04
  379.00      7.38360E-04
  381.00      7.57040E-04
  383.00      7.04570E-04
  385.00      7.63960E-04
  387.00      7.55960E-04
  389.00      6.87930E-04
  391.00      7.58020E-04
  393.00      7.45550E-04
  395.00      7.39100E-04
  397.00      6.61080E-04
  399.00      7.33300E-04
  401.00      7.26990E-04
  403.00      7.08820E-04
  405.00      7.19800E-04
  407.00      7.03930E-04
  409.00      6.80110E-04
  411.00      6.37130E-04
  413.00      6.88960E-04
  415.00      6.86090E-04
  417.00      6.85830E-04
  419.00      6.78590E-04
  421.00      6.71360E-04
  423.00      6.70940E-04
  425.00      6.62480E-04
  427.00      6.55620E-04
  429.00      6.50910E-04
  431.00      6.43110E-04
  433.00      6.19830E-04
  435.00      5.86020E-04
  437.00      6.30890E-04
  439.00      6.21770E-04
  441.00      6.21210E-04
  443.00      6.19570E-04
  445.00      6.14740E-04
  447.00      6.00040E-04
  449.00      6.05860E-04
  451.00      6.00870E-04
  453.00      5.97850E-04
  455.00      5.88930E-04
  457.00      5.89310E-04
  459.00      5.83490E-04
  461.00      5.79090E-04
  463.00      5.73000E-04
  465.00      5.56410E-04
  467.00      5.65220E-04
  469.00      5.53810E-04
  471.00      5.53410E-04
  473.00      5.57680E-04
  475.00      5.53250E-04
  477.00      5.50150E-04
  479.00      5.46250E-04
  481.00      5.41850E-04
  483.00      5.36800E-04
  485.00      5.20750E-04
  487.00      4.85530E-04
  489.00      5.25580E-04
  491.00      5.22650E-04
  493.00      5.13290E-04
  495.00      5.14390E-04
  497.00      5.13050E-04
  499.00      5.09540E-04
  501.00      5.01090E-04
  503.00      5.01630E-04
  505.00      4.97360E-04
  507.00      4.95850E-04
  509.00      4.92360E-04
  511.00      4.89080E-04
  513.00      4.85710E-04
  515.00      4.82470E-04
  517.00      4.79000E-04
  519.00      4.76130E-04
  521.00      4.73110E-04
  523.00      4.70050E-04
  525.00      4.66560E-04
  527.00      4.63310E-04
  529.00      4.60870E-04
  531.00      4.57810E-04
  533.00      4.54890E-04
  535.00      4.51970E-04
  537.00      4.49060E-04
  539.00      4.46020E-04
  541.00      4.39750E-04
  543.00      4.40490E-04
  545.00      4.37640E-04
  547.00      4.34850E-04
  549.00      4.32110E-04
  551.00      4.29250E-04
  553.00      4.26700E-04
  555.00      4.24070E-04
  557.00      4.21350E-04
  559.00      4.18030E-04
  561.00      4.16190E-04
  563.00      4.13610E-04
  565.00      4.11020E-04
  567.00      4.08320E-04
  569.00      4.02560E-04
  571.00      3.94340E-04
  573.00      3.92150E-04
  575.00      3.89550E-04
  577.00      3.87690E-04
  579.00      3.85440E-04
  581.00      3.83120E-04
  583.00      3.81190E-04
  585.00      3.80000E-04
  587.00      3.71940E-04
  589.00      3.76670E-04
  591.00      3.75510E-04
  593.00      3.74190E-04
  595.00      3.72960E-04
  597.00      3.71880E-04
  599.00      3.70590E-04
  601.00      3.68920E-04
  603.00      3.66650E-04
  605.00      3.64610E-04
  607.00      3.62510E-04
  609.00      3.60450E-04
  611.00      3.58260E-04
  613.00      3.56250E-04
  615.00      3.54060E-04
  617.00      3.51900E-04
  619.00      3.50200E-04
  621.00      3.48230E-04
  623.00      3.46010E-04
  625.00      3.44190E-04
  627.00      3.42310E-04
  629.00      3.40390E-04
  631.00      3.37990E-04
  633.00      3.36570E-04
  635.00      3.34610E-04
  637.00      3.32840E-04
  639.00      3.30970E-04
  641.00      3.28680E-04
  643.00      3.27320E-04
  645.00      3.25460E-04
  647.00      3.23500E-04
  649.00      3.21780E-04
  651.00      3.20010E-04
  653.00      3.17100E-04
  655.00      3.12050E-04
  657.00      2.88270E-04
  659.00      3.12120E-04
  661.00      3.11470E-04
  663.00      3.09870E-04
  665.00      3.08150E-04
  667.00      3.04200E-04
  669.00      3.02090E-04
  671.00      3.02860E-04
  673.00      3.01310E-04
  675.00      2.99970E-04
  677.00      2.98530E-04
  679.00      2.96820E-04
  681.00      2.95400E-04
  683.00      2.93800E-04
  685.00      2.92290E-04
  687.00      2.90730E-04
  689.00      2.88200E-04
  691.00      2.87390E-04
  693.00      2.86290E-04
  695.00      2.84800E-04
  697.00      2.83330E-04
  699.00      2.81870E-04
  701.00      2.80290E-04
  703.00      2.78740E-04
  705.00      2.77380E-04
  707.00      2.73020E-04
  709.00      2.74730E-04
  711.00      2.73280E-04
  713.00      2.71930E-04
  715.00      2.70600E-04
  717.00      2.68610E-04
  719.00      2.67640E-04
  721.00      2.66540E-04
  723.00      2.64660E-04
  725.00      2.63710E-04
  727.00      2.62570E-04
  729.00      2.59850E-04
  731.00      2.59910E-04
  733.00      2.58690E-04
  735.00      2.57410E-04
  737.00      2.56140E-04
  739.00      2.54900E-04
  741.00      2.53640E-04
  743.00      2.52420E-04
  745.00      2.51150E-04
  747.00      2.49770E-04
  749.00      2.48530E-04
  751.00      2.47500E-04
  753.00      2.46350E-04
  755.00      2.45190E-04
  757.00      2.44000E-04
  759.00      2.41970E-04
  761.00      2.41510E-04
  763.00      2.40490E-04
  765.00      2.39320E-04
  767.00      2.38260E-04
  769.00      2.36900E-04
  771.00      2.35940E-04
  773.00      2.34560E-04
  775.00      2.33770E-04
  777.00      2.32700E-04
  779.00      2.31610E-04
  781.00      2.30460E-04
  783.00      2.29460E-04
  785.00      2.28450E-04
  787.00      2.27240E-04
  789.00      2.26170E-04
  791.00      2.25330E-04
  793.00      2.24270E-04
  795.00      2.23280E-04
  797.00      2.22120E-04
  799.00      2.21190E-04
  801.00      2.20190E-04
  803.00      2.19120E-04
  805.00      2.18150E-04
  807.00      2.17200E-04
  809.00      2.16020E-04
  811.00      2.14690E-04
  813.00      2.14270E-04
  815.00      2.13100E-04
  817.00      2.12330E-04
  819.00      2.10860E-04
  821.00      2.07990E-04
  823.00      2.06740E-04
  825.00      2.06430E-04
  827.00      2.04920E-04
  829.00      2.04630E-04
  831.00      2.03830E-04
  833.00      2.02770E-04
  835.00      2.01410E-04
  837.00      2.00930E-04
  839.00      2.00290E-04
  841.00      1.99410E-04
  843.00      1.98530E-04
  845.00      1.97080E-04
  847.00      1.96810E-04
  849.00      1.95950E-04
  851.00      1.94620E-04
  853.00      1.94480E-04
  855.00      1.92420E-04
  857.00      1.94000E-04
  859.00      1.90050E-04
  861.00      1.89910E-04
  863.00      1.92550E-04
  865.00      1.89820E-04
  867.00      1.83500E-04
  869.00      1.90430E-04
  871.00      1.90820E-04
  873.00      1.87940E-04
  875.00      1.77550E-04
  877.00      1.85180E-04
  879.00      1.88350E-04
  881.00      1.87890E-04
  883.00      1.86710E-04
  885.00      1.80300E-04
  887.00      1.71850E-04
  889.00      1.83530E-04
  891.00      1.84110E-04
  893.00      1.83530E-04
  895.00      1.82980E-04
  897.00      1.82100E-04
  899.00      1.79380E-04
  901.00      1.66880E-04
  903.00      1.72660E-04
  905.00      1.78500E-04
  907.00      1.77460E-04
  909.00      1.77570E-04
  911.00      1.77230E-04
  913.00      1.76570E-04
  915.00      1.75890E-04
  917.00      1.74850E-04
  919.00      1.73880E-04
  921.00      1.69640E-04
  923.00      1.56470E-04
  925.00      1.68550E-04
  927.00      1.70990E-04
  929.00      1.70850E-04
  931.00      1.69800E-04
  933.00      1.69410E-04
  935.00      1.67850E-04
  937.00      1.68130E-04
  939.00      1.67550E-04
  941.00      1.66800E-04
  943.00      1.66180E-04
  945.00      1.65520E-04
  947.00      1.64350E-04
  949.00      1.64150E-04
  951.00      1.62080E-04
  953.00      1.58250E-04
  955.00      1.46550E-04
  957.00      1.59160E-04
  959.00      1.60600E-04
  961.00      1.60090E-04
  963.00      1.59230E-04
  965.00      1.59230E-04
  967.00      1.58630E-04
  969.00      1.57940E-04
  971.00      1.56100E-04
  973.00      1.56650E-04
  975.00      1.56190E-04
  977.00      1.55520E-04
  979.00      1.54990E-04
  981.00      1.54360E-04
  983.00      1.53800E-04
  985.00      1.53200E-04
  987.00      1.52640E-04
  989.00      1.51980E-04
  991.00      1.51260E-04
  993.00      1.50910E-04
  995.00      1.50350E-04
  997.00      1.49760E-04
  999.00      1.49220E-04
  1002.5      1.44470E-04
  1007.5      1.41630E-04
  1012.5      1.44360E-04
  1017.5      1.44170E-04
  1022.5      1.42790E-04
  1027.5      1.41530E-04
  1032.5      1.39870E-04
  1037.5      1.38990E-04
  1042.5      1.37670E-04
  1047.5      1.36500E-04
  1052.5      1.35280E-04
  1057.5      1.34070E-04
  1062.5      1.32880E-04
  1067.5      1.31580E-04
  1072.5      1.30560E-04
  1077.5      1.29420E-04
  1082.5      1.27340E-04
  1087.5      1.27040E-04
  1092.5      1.19520E-04
  1097.5      1.23540E-04
  1102.5      1.23520E-04
  1107.5      1.22840E-04
  1112.5      1.21820E-04
  1117.5      1.20810E-04
  1122.5      1.19750E-04
  1127.5      1.18780E-04
  1132.5      1.17750E-04
  1137.5      1.16790E-04
  1142.5      1.15830E-04
  1147.5      1.14880E-04
  1152.5      1.13950E-04
  1157.5      1.13010E-04
  1162.5      1.11820E-04
  1167.5      1.11020E-04
  1172.5      1.10290E-04
  1177.5      1.09400E-04
  1182.5      1.08510E-04
  1187.5      1.07650E-04
  1192.5      1.06790E-04
  1197.5      1.05270E-04
  1202.5      1.05120E-04
  1207.5      1.04280E-04
  1212.5      1.03460E-04
  1217.5      1.02670E-04
  1222.5      1.01870E-04
  1227.5      1.01080E-04
  1232.5      1.00300E-04
  1237.5      9.95270E-05
  1242.5      9.87710E-05
  1247.5      9.80100E-05
  1252.5      9.71220E-05
  1257.5      9.65230E-05
  1262.5      9.57990E-05
  1267.5      9.50890E-05
  1272.5      9.43760E-05
  1277.5      9.26790E-05
  1282.5      8.81530E-05
  1287.5      9.20460E-05
  1292.5      9.16090E-05
  1297.5      9.05570E-05
  1302.5      9.02450E-05
  1307.5      8.96130E-05
  1312.5      8.89630E-05
  1317.5      8.83180E-05
  1322.5      8.76810E-05
  1327.5      8.70510E-05
  1332.5      8.64250E-05
  1337.5      8.57940E-05
  1342.5      8.51440E-05
  1347.5      8.45890E-05
  1352.5      8.39760E-05
  1357.5      8.34030E-05
  1362.5      8.27930E-05
  1367.5      8.22410E-05
  1372.5      8.16350E-05
  1377.5      8.11020E-05
  1382.5      8.05410E-05
  1387.5      7.99850E-05
  1392.5      7.94180E-05
  1397.5      7.88900E-05
