 Castelli and Kurucz 2004-2012 Atmosphere
 T     46000.     G    4.50000 [-0.5a] N(He)/Ntot=0.0784 VTURB=2.0  L/H=1.25 OD
 Wavelength  Eddington Hnu
   (nm)    (ergs/s/cm2/Hz/sr)
  9.0900      2.51890E-20
  9.3500      7.36720E-20
  9.6100      1.99820E-19
  9.7700      3.69760E-19
  9.9600      7.34750E-19
  10.200      1.68870E-18
  10.380      3.07840E-18
  10.560      5.50140E-18
  10.770      1.05750E-17
  11.040      2.36460E-17
  11.400      6.52560E-17
  11.780      1.77970E-16
  12.130      4.27990E-16
  12.480      9.75650E-16
  12.710      1.63990E-15
  12.840      2.21500E-15
  13.050      3.46180E-15
  13.240      5.12080E-15
  13.390      6.95240E-15
  13.660      1.17340E-14
  13.980      2.16470E-14
  14.330      4.03180E-14
  14.720      7.55660E-14
  15.100      1.45750E-13
  15.520      2.79320E-13
  15.880      4.78520E-13
  16.200      8.29730E-13
  16.600      1.44710E-12
  17.030      2.46690E-12
  17.340      3.60170E-12
  17.680      5.52990E-12
  18.020      8.24510E-12
  18.170      9.58280E-12
  18.610      1.59210E-11
  19.100      2.62040E-11
  19.390      3.59380E-11
  19.840      5.55260E-11
  20.180      7.51950E-11
  20.500      1.01650E-10
  21.050      1.63240E-10
  21.620      2.58100E-10
  21.980      3.47530E-10
  22.300      4.38950E-10
  22.680      5.74610E-10
  23.000      1.01370E-07
  23.400      6.62230E-07
  24.000      1.39840E-06
  24.650      6.16990E-06
  25.240      3.20330E-05
  25.680      5.34380E-05
  26.000      5.46760E-05
  26.400      1.38620E-04
  26.850      1.71990E-04
  27.350      2.08140E-04
  27.850      1.55300E-04
  28.400      2.81860E-04
  29.000      3.92590E-04
  29.600      3.32470E-04
  30.100      1.65390E-04
  30.800      2.34840E-04
  31.800      8.21960E-05
  32.800      1.11860E-04
  33.800      7.25610E-05
  34.800      8.02940E-05
  35.700      2.17790E-04
  36.600      4.37650E-04
  37.500      5.81520E-04
  38.500      5.70240E-04
  39.500      8.75120E-04
  40.500      1.27950E-03
  41.400      1.30170E-03
  42.200      1.24460E-03
  43.000      1.21240E-03
  44.100      1.47140E-03
  45.100      1.57150E-03
  46.000      1.39410E-03
  47.000      1.55530E-03
  48.000      1.76870E-03
  49.000      1.48940E-03
  50.000      2.06410E-03
  50.600      1.72030E-03
  51.200      2.16730E-03
  52.000      2.10580E-03
  53.000      2.03350E-03
  54.000      1.78710E-03
  55.000      1.50950E-03
  56.000      1.97410E-03
  57.000      2.33920E-03
  58.000      2.38160E-03
  59.000      2.44340E-03
  60.000      2.20120E-03
  61.000      1.89430E-03
  62.000      2.42250E-03
  63.000      2.25260E-03
  64.000      2.61030E-03
  65.000      2.49200E-03
  65.800      2.27000E-03
  66.500      2.63420E-03
  67.500      2.70780E-03
  68.500      2.52650E-03
  69.500      2.75890E-03
  70.500      2.48120E-03
  71.600      2.79350E-03
  72.600      2.88050E-03
  73.500      2.89000E-03
  74.500      2.82500E-03
  75.500      2.78740E-03
  76.500      2.64220E-03
  77.500      2.84200E-03
  78.500      2.55300E-03
  79.500      2.81560E-03
  80.500      2.89570E-03
  81.500      2.91820E-03
  82.500      2.95760E-03
  83.500      2.73230E-03
  84.500      2.94420E-03
  85.500      2.84110E-03
  86.500      2.98530E-03
  87.500      3.02010E-03
  88.500      2.97980E-03
  89.500      2.99500E-03
  90.500      2.94730E-03
  91.500      2.29540E-03
  92.500      3.68520E-03
  93.500      4.51040E-03
  94.500      5.05700E-03
  95.500      5.77840E-03
  96.500      6.09560E-03
  97.500      5.07240E-03
  98.500      5.77050E-03
  99.500      5.37250E-03
  100.50      5.54340E-03
  101.50      5.64810E-03
  102.50      5.21420E-03
  103.50      5.84360E-03
  104.50      5.97460E-03
  105.50      5.94370E-03
  106.50      5.69520E-03
  107.50      5.87950E-03
  108.50      5.56770E-03
  109.50      5.81420E-03
  110.50      5.75100E-03
  111.50      5.71860E-03
  112.50      5.59700E-03
  113.50      5.73300E-03
  114.50      5.73310E-03
  115.50      5.58510E-03
  116.50      5.43940E-03
  117.50      5.14020E-03
  118.50      5.41230E-03
  119.50      5.26480E-03
  120.50      5.27040E-03
  121.50      4.59560E-03
  122.50      5.20560E-03
  123.50      5.05810E-03
  124.50      4.98520E-03
  125.50      5.12010E-03
  126.50      5.10330E-03
  127.50      5.09420E-03
  128.50      5.07330E-03
  129.50      5.07160E-03
  130.50      4.96360E-03
  131.50      4.94750E-03
  132.50      4.89790E-03
  133.50      4.88260E-03
  134.50      4.84080E-03
  135.50      4.73580E-03
  136.50      4.59840E-03
  137.50      4.46880E-03
  138.50      4.57260E-03
  139.50      4.47150E-03
  140.50      4.32940E-03
  141.50      4.60350E-03
  142.50      4.47340E-03
  143.50      4.55010E-03
  144.20      4.41720E-03
  144.70      4.42590E-03
  145.50      4.36910E-03
  146.50      4.36260E-03
  147.50      4.36910E-03
  148.50      4.40630E-03
  149.50      4.34830E-03
  150.50      4.33140E-03
  151.20      4.33810E-03
  151.70      4.26060E-03
  152.50      4.28920E-03
  153.50      4.14430E-03
  154.50      3.81240E-03
  155.50      3.84210E-03
  156.50      4.03450E-03
  157.50      4.08130E-03
  158.50      4.01160E-03
  159.50      4.02190E-03
  160.50      3.93480E-03
  161.50      3.89970E-03
  162.50      3.88290E-03
  163.50      3.86850E-03
  164.50      3.71880E-03
  165.50      3.88440E-03
  166.50      3.85820E-03
  167.20      3.76780E-03
  167.70      3.87810E-03
  168.50      3.86130E-03
  169.50      3.85170E-03
  170.50      3.79140E-03
  171.50      3.68780E-03
  172.50      3.68350E-03
  173.50      3.75210E-03
  174.50      3.71890E-03
  175.50      3.68800E-03
  176.50      3.65910E-03
  177.50      3.64270E-03
  178.50      3.63700E-03
  179.50      3.59120E-03
  180.50      3.57050E-03
  181.50      3.54280E-03
  182.50      3.52220E-03
  183.50      3.50240E-03
  184.50      3.48420E-03
  185.50      3.45410E-03
  186.50      3.43870E-03
  187.50      3.40300E-03
  188.50      3.37870E-03
  189.50      3.37960E-03
  190.50      3.35720E-03
  191.50      3.33210E-03
  192.50      3.26210E-03
  193.50      3.29210E-03
  194.50      3.27380E-03
  195.50      3.24070E-03
  196.70      3.22170E-03
  197.60      3.18990E-03
  198.40      3.18910E-03
  199.50      3.16070E-03
  200.50      3.14670E-03
  201.50      3.12650E-03
  202.50      3.10720E-03
  203.50      3.08180E-03
  204.50      3.04720E-03
  205.50      2.35990E-03
  206.50      2.29380E-03
  207.40      2.36040E-03
  207.80      2.42580E-03
  208.50      2.60950E-03
  209.50      2.87860E-03
  210.50      2.92740E-03
  211.50      2.92850E-03
  212.50      2.89930E-03
  213.50      2.89090E-03
  214.50      2.87280E-03
  215.50      2.89240E-03
  216.50      2.77390E-03
  217.50      2.87170E-03
  218.50      2.77480E-03
  219.50      2.84400E-03
  220.50      2.82400E-03
  221.50      2.71810E-03
  222.50      2.79130E-03
  223.50      2.77520E-03
  224.50      2.75760E-03
  225.50      2.66280E-03
  226.50      2.71950E-03
  227.50      2.71030E-03
  228.50      2.67860E-03
  229.50      2.64730E-03
  230.50      2.58220E-03
  231.50      2.62560E-03
  232.50      2.62310E-03
  233.50      2.60900E-03
  234.50      2.58800E-03
  235.50      2.56910E-03
  236.50      2.55220E-03
  237.50      2.53070E-03
  238.50      2.43160E-03
  239.50      2.48650E-03
  240.50      2.47700E-03
  241.50      2.45720E-03
  242.50      2.46240E-03
  243.50      2.44140E-03
  244.50      2.42910E-03
  245.50      2.39870E-03
  246.50      2.39780E-03
  247.50      2.39160E-03
  248.50      2.37000E-03
  249.50      2.23730E-03
  250.50      2.33810E-03
  251.30      2.19290E-03
  251.80      2.29200E-03
  252.50      2.30040E-03
  253.50      2.30470E-03
  254.50      2.29300E-03
  255.50      2.27840E-03
  256.50      2.26720E-03
  257.50      2.25240E-03
  258.50      2.23880E-03
  259.50      2.20000E-03
  260.50      2.21440E-03
  261.50      2.18500E-03
  262.50      2.18980E-03
  263.50      2.17840E-03
  264.50      2.16050E-03
  265.50      2.15310E-03
  266.50      2.13930E-03
  267.50      2.11240E-03
  268.50      2.11130E-03
  269.50      2.09890E-03
  270.50      2.09440E-03
  271.50      2.08140E-03
  272.50      2.06840E-03
  273.50      2.00280E-03
  274.50      2.04760E-03
  275.50      2.03300E-03
  276.50      2.02390E-03
  277.50      2.00970E-03
  278.50      1.99110E-03
  279.50      1.98090E-03
  280.50      1.97640E-03
  281.50      1.96600E-03
  282.50      1.95110E-03
  283.50      1.94540E-03
  284.50      1.93630E-03
  285.50      1.92570E-03
  286.50      1.91240E-03
  287.50      1.90070E-03
  288.50      1.89380E-03
  289.50      1.88170E-03
  291.00      1.86750E-03
  293.00      1.84960E-03
  295.00      1.82990E-03
  297.00      1.80730E-03
  299.00      1.78370E-03
  301.00      1.76660E-03
  303.00      1.74110E-03
  305.00      1.72830E-03
  307.00      1.70520E-03
  309.00      1.69630E-03
  311.00      1.67920E-03
  313.00      1.66060E-03
  315.00      1.64780E-03
  317.00      1.62960E-03
  319.00      1.61480E-03
  321.00      1.57320E-03
  323.00      1.58420E-03
  325.00      1.56890E-03
  327.00      1.54240E-03
  329.00      1.53560E-03
  331.00      1.52010E-03
  333.00      1.50520E-03
  335.00      1.48460E-03
  337.00      1.47590E-03
  339.00      1.45900E-03
  341.00      1.44370E-03
  343.00      1.43610E-03
  345.00      1.41710E-03
  347.00      1.40880E-03
  349.00      1.39610E-03
  351.00      1.38480E-03
  353.00      1.37010E-03
  355.00      1.35780E-03
  357.00      1.34530E-03
  359.00      1.33370E-03
  361.00      1.32130E-03
  363.00      1.30800E-03
  364.00      1.27690E-03
  365.00      1.16320E-03
  367.00      1.15440E-03
  369.00      1.14870E-03
  371.00      1.14900E-03
  373.00      1.16050E-03
  375.00      1.17880E-03
  377.00      1.19220E-03
  379.00      1.20960E-03
  381.00      1.22280E-03
  383.00      1.17780E-03
  385.00      1.21680E-03
  387.00      1.21630E-03
  389.00      1.13840E-03
  391.00      1.20140E-03
  393.00      1.18190E-03
  395.00      1.18000E-03
  397.00      1.09520E-03
  399.00      1.16170E-03
  401.00      1.15470E-03
  403.00      1.12730E-03
  405.00      1.13690E-03
  407.00      1.12610E-03
  409.00      1.09560E-03
  411.00      1.04490E-03
  413.00      1.09800E-03
  415.00      1.09020E-03
  417.00      1.08190E-03
  419.00      1.06920E-03
  421.00      1.04930E-03
  423.00      1.05600E-03
  425.00      1.04730E-03
  427.00      1.03900E-03
  429.00      1.03070E-03
  431.00      1.02130E-03
  433.00      9.89760E-04
  435.00      9.56230E-04
  437.00      9.96440E-04
  439.00      9.87510E-04
  441.00      9.80250E-04
  443.00      9.74030E-04
  445.00      9.65720E-04
  447.00      9.55410E-04
  449.00      9.51390E-04
  451.00      9.43720E-04
  453.00      9.35500E-04
  455.00      9.14700E-04
  457.00      9.22590E-04
  459.00      9.15740E-04
  461.00      9.08800E-04
  463.00      8.99140E-04
  465.00      8.87500E-04
  467.00      8.87370E-04
  469.00      8.53700E-04
  471.00      8.75220E-04
  473.00      8.69630E-04
  475.00      8.63220E-04
  477.00      8.56740E-04
  479.00      8.49880E-04
  481.00      8.44110E-04
  483.00      8.37710E-04
  485.00      8.18440E-04
  487.00      7.80010E-04
  489.00      8.18980E-04
  491.00      8.13870E-04
  493.00      8.07180E-04
  495.00      8.02520E-04
  497.00      7.96860E-04
  499.00      7.91330E-04
  501.00      7.84770E-04
  503.00      7.79970E-04
  505.00      7.74420E-04
  507.00      7.69240E-04
  509.00      7.64000E-04
  511.00      7.58700E-04
  513.00      7.53360E-04
  515.00      7.48200E-04
  517.00      7.43160E-04
  519.00      7.38040E-04
  521.00      7.32910E-04
  523.00      7.28060E-04
  525.00      7.22860E-04
  527.00      7.17540E-04
  529.00      7.13400E-04
  531.00      7.08580E-04
  533.00      7.03820E-04
  535.00      6.99200E-04
  537.00      6.94500E-04
  539.00      6.89910E-04
  541.00      6.73380E-04
  543.00      6.80840E-04
  545.00      6.76440E-04
  547.00      6.71930E-04
  549.00      6.67620E-04
  551.00      6.62860E-04
  553.00      6.59000E-04
  555.00      6.54760E-04
  557.00      6.50340E-04
  559.00      6.44960E-04
  561.00      6.42250E-04
  563.00      6.38150E-04
  565.00      6.34100E-04
  567.00      6.30080E-04
  569.00      6.17710E-04
  571.00      5.80570E-04
  573.00      5.77190E-04
  575.00      5.73810E-04
  577.00      5.70690E-04
  579.00      5.67900E-04
  581.00      5.63720E-04
  583.00      5.64130E-04
  585.00      5.63310E-04
  587.00      5.60570E-04
  589.00      5.62450E-04
  591.00      5.62630E-04
  593.00      5.63260E-04
  595.00      5.64490E-04
  597.00      5.65530E-04
  599.00      5.67020E-04
  601.00      5.65190E-04
  603.00      5.63050E-04
  605.00      5.61170E-04
  607.00      5.57160E-04
  609.00      5.54860E-04
  611.00      5.50830E-04
  613.00      5.47620E-04
  615.00      5.45400E-04
  617.00      5.39920E-04
  619.00      5.38860E-04
  621.00      5.35910E-04
  623.00      5.30270E-04
  625.00      5.29130E-04
  627.00      5.26580E-04
  629.00      5.23570E-04
  631.00      5.17000E-04
  633.00      5.17330E-04
  635.00      5.14570E-04
  637.00      5.11650E-04
  639.00      5.08460E-04
  641.00      5.01450E-04
  643.00      5.02970E-04
  645.00      5.00080E-04
  647.00      4.97250E-04
  649.00      4.94510E-04
  651.00      4.91340E-04
  653.00      4.83380E-04
  655.00      4.81350E-04
  657.00      4.54040E-04
  659.00      4.80240E-04
  661.00      4.78220E-04
  663.00      4.75580E-04
  665.00      4.72970E-04
  667.00      4.68820E-04
  669.00      4.61370E-04
  671.00      4.64820E-04
  673.00      4.62670E-04
  675.00      4.60140E-04
  677.00      4.57680E-04
  679.00      4.55250E-04
  681.00      4.52790E-04
  683.00      4.50370E-04
  685.00      4.47950E-04
  687.00      4.45550E-04
  689.00      4.36900E-04
  691.00      4.40630E-04
  693.00      4.38500E-04
  695.00      4.36180E-04
  697.00      4.33880E-04
  699.00      4.31600E-04
  701.00      4.29230E-04
  703.00      4.26900E-04
  705.00      4.24670E-04
  707.00      4.21800E-04
  709.00      4.20460E-04
  711.00      4.18200E-04
  713.00      4.16030E-04
  715.00      4.13980E-04
  717.00      4.07690E-04
  719.00      4.07410E-04
  721.00      4.07640E-04
  723.00      4.05570E-04
  725.00      4.03500E-04
  727.00      4.01460E-04
  729.00      3.99240E-04
  731.00      3.97250E-04
  733.00      3.95410E-04
  735.00      3.93420E-04
  737.00      3.91380E-04
  739.00      3.89450E-04
  741.00      3.87470E-04
  743.00      3.85630E-04
  745.00      3.83490E-04
  747.00      3.81810E-04
  749.00      3.79790E-04
  751.00      3.77970E-04
  753.00      3.76200E-04
  755.00      3.74350E-04
  757.00      3.72520E-04
  759.00      3.64880E-04
  761.00      3.68540E-04
  763.00      3.67090E-04
  765.00      3.65300E-04
  767.00      3.63530E-04
  769.00      3.61570E-04
  771.00      3.59940E-04
  773.00      3.58020E-04
  775.00      3.56630E-04
  777.00      3.54930E-04
  779.00      3.53240E-04
  781.00      3.51560E-04
  783.00      3.49880E-04
  785.00      3.48030E-04
  787.00      3.46490E-04
  789.00      3.44910E-04
  791.00      3.43340E-04
  793.00      3.41730E-04
  795.00      3.40130E-04
  797.00      3.38360E-04
  799.00      3.36970E-04
  801.00      3.35400E-04
  803.00      3.33810E-04
  805.00      3.32310E-04
  807.00      3.30780E-04
  809.00      3.29250E-04
  811.00      3.27740E-04
  813.00      3.26240E-04
  815.00      3.24750E-04
  817.00      3.23080E-04
  819.00      3.20330E-04
  821.00      3.06300E-04
  823.00      3.03040E-04
  825.00      3.03310E-04
  827.00      3.02350E-04
  829.00      3.01080E-04
  831.00      2.99810E-04
  833.00      2.98380E-04
  835.00      2.97270E-04
  837.00      2.96100E-04
  839.00      2.94970E-04
  841.00      2.93950E-04
  843.00      2.92950E-04
  845.00      2.91940E-04
  847.00      2.91020E-04
  849.00      2.90260E-04
  851.00      2.89280E-04
  853.00      2.88710E-04
  855.00      2.87550E-04
  857.00      2.87280E-04
  859.00      2.86070E-04
  861.00      2.85300E-04
  863.00      2.85500E-04
  865.00      2.84470E-04
  867.00      2.81830E-04
  869.00      2.83740E-04
  871.00      2.83580E-04
  873.00      2.82560E-04
  875.00      2.77380E-04
  877.00      2.80630E-04
  879.00      2.81520E-04
  881.00      2.81110E-04
  883.00      2.80280E-04
  885.00      2.76000E-04
  887.00      2.69660E-04
  889.00      2.76200E-04
  891.00      2.76200E-04
  893.00      2.75000E-04
  895.00      2.74480E-04
  897.00      2.73180E-04
  899.00      2.70750E-04
  901.00      2.60810E-04
  903.00      2.64200E-04
  905.00      2.67980E-04
  907.00      2.67650E-04
  909.00      2.66680E-04
  911.00      2.64890E-04
  913.00      2.64530E-04
  915.00      2.63500E-04
  917.00      2.62330E-04
  919.00      2.60860E-04
  921.00      2.57560E-04
  923.00      2.45530E-04
  925.00      2.54830E-04
  927.00      2.56510E-04
  929.00      2.56030E-04
  931.00      2.54990E-04
  933.00      2.53720E-04
  935.00      2.47460E-04
  937.00      2.50560E-04
  939.00      2.50830E-04
  941.00      2.49870E-04
  943.00      2.48900E-04
  945.00      2.47900E-04
  947.00      2.46890E-04
  949.00      2.45900E-04
  951.00      2.44290E-04
  953.00      2.40560E-04
  955.00      2.28930E-04
  957.00      2.39720E-04
  959.00      2.40760E-04
  961.00      2.40170E-04
  963.00      2.39160E-04
  965.00      2.38290E-04
  967.00      2.37360E-04
  969.00      2.36440E-04
  971.00      2.35210E-04
  973.00      2.34550E-04
  975.00      2.33320E-04
  977.00      2.30990E-04
  979.00      2.31880E-04
  981.00      2.30990E-04
  983.00      2.30040E-04
  985.00      2.29210E-04
  987.00      2.28330E-04
  989.00      2.27460E-04
  991.00      2.26570E-04
  993.00      2.25720E-04
  995.00      2.24860E-04
  997.00      2.24010E-04
  999.00      2.23160E-04
  1002.5      2.18560E-04
  1007.5      2.14710E-04
  1012.5      2.13930E-04
  1017.5      2.15520E-04
  1022.5      2.13520E-04
  1027.5      2.11500E-04
  1032.5      2.09490E-04
  1037.5      2.07680E-04
  1042.5      2.04630E-04
  1047.5      2.03930E-04
  1052.5      2.02090E-04
  1057.5      2.00280E-04
  1062.5      1.98490E-04
  1067.5      1.96710E-04
  1072.5      1.94970E-04
  1077.5      1.93250E-04
  1082.5      1.91260E-04
  1087.5      1.89800E-04
  1092.5      1.82160E-04
  1097.5      1.85360E-04
  1102.5      1.84960E-04
  1107.5      1.83380E-04
  1112.5      1.81810E-04
  1117.5      1.80380E-04
  1122.5      1.78830E-04
  1127.5      1.77310E-04
  1132.5      1.75810E-04
  1137.5      1.74350E-04
  1142.5      1.72900E-04
  1147.5      1.71460E-04
  1152.5      1.70040E-04
  1157.5      1.68630E-04
  1162.5      1.65450E-04
  1167.5      1.64590E-04
  1172.5      1.64520E-04
  1177.5      1.63190E-04
  1182.5      1.61850E-04
  1187.5      1.60560E-04
  1192.5      1.59270E-04
  1197.5      1.57890E-04
  1202.5      1.56740E-04
  1207.5      1.55490E-04
  1212.5      1.54250E-04
  1217.5      1.53050E-04
  1222.5      1.51850E-04
  1227.5      1.50670E-04
  1232.5      1.49490E-04
  1237.5      1.48340E-04
  1242.5      1.47190E-04
  1247.5      1.46060E-04
  1252.5      1.44930E-04
  1257.5      1.43830E-04
  1262.5      1.42740E-04
  1267.5      1.41650E-04
  1272.5      1.40580E-04
  1277.5      1.39050E-04
  1282.5      1.33430E-04
  1287.5      1.37280E-04
  1292.5      1.36420E-04
  1297.5      1.35390E-04
  1302.5      1.34410E-04
  1307.5      1.33420E-04
  1312.5      1.32440E-04
  1317.5      1.31470E-04
  1322.5      1.30520E-04
  1327.5      1.29570E-04
  1332.5      1.28630E-04
  1337.5      1.27710E-04
  1342.5      1.26790E-04
  1347.5      1.25880E-04
  1352.5      1.24990E-04
  1357.5      1.24100E-04
  1362.5      1.23220E-04
  1367.5      1.22350E-04
  1372.5      1.21490E-04
  1377.5      1.20640E-04
  1382.5      1.19800E-04
  1387.5      1.18960E-04
  1392.5      1.18140E-04
  1397.5      1.17320E-04
