 Castelli and Kurucz 2004-2012 Atmosphere
 T     33000.     G    5.00000 [-0.5a] N(He)/Ntot=0.0784 VTURB=2.0  L/H=1.25 OD
 Wavelength  Eddington Hnu
   (nm)    (ergs/s/cm2/Hz/sr)
  9.0900      6.00260E-32
  9.3500      3.35660E-31
  9.6100      1.71750E-30
  9.7700      4.50540E-30
  9.9600      1.36320E-29
  10.200      5.22530E-29
  10.380      1.38000E-28
  10.560      3.53510E-28
  10.770      1.02130E-27
  11.040      3.78320E-27
  11.400      1.98560E-26
  11.780      1.03650E-25
  12.130      4.36840E-25
  12.480      1.71100E-24
  12.710      4.04350E-24
  12.840      6.49390E-24
  13.050      1.37050E-23
  13.240      2.64540E-23
  13.390      4.39250E-23
  13.660      1.06800E-22
  13.980      2.94070E-22
  14.330      8.49180E-22
  14.720      2.62180E-21
  15.100      7.47730E-21
  15.520      2.25280E-20
  15.880      5.55360E-20
  16.200      1.20140E-19
  16.600      3.03230E-19
  17.030      7.83090E-19
  17.340      1.51300E-18
  17.680      3.03800E-18
  18.020      5.94530E-18
  18.170      7.94350E-18
  18.610      1.80750E-17
  19.100      4.33050E-17
  19.390      7.11830E-17
  19.840      1.49850E-16
  20.180      2.57320E-16
  20.500      4.21330E-16
  21.050      9.51450E-16
  21.620      2.11770E-15
  21.980      3.44640E-15
  22.300      5.23980E-15
  22.680      8.52720E-15
  23.000      2.72510E-12
  23.400      6.91610E-12
  24.000      1.20680E-11
  24.650      2.19000E-11
  25.240      3.75310E-11
  25.680      5.02450E-11
  26.000      7.70470E-11
  26.400      1.04360E-10
  26.850      1.56180E-10
  27.350      2.27250E-10
  27.850      3.09870E-10
  28.400      5.93810E-10
  29.000      8.83020E-10
  29.600      1.24350E-09
  30.100      1.63390E-09
  30.800      3.04600E-09
  31.800      6.37950E-09
  32.800      9.98220E-09
  33.800      1.72120E-08
  34.800      2.71360E-08
  35.700      5.37750E-08
  36.600      9.42000E-08
  37.500      1.22920E-07
  38.500      1.82220E-07
  39.500      2.85200E-07
  40.500      3.71790E-07
  41.400      5.01060E-07
  42.200      5.86810E-07
  43.000      7.15300E-07
  44.100      9.30810E-07
  45.100      1.16700E-06
  46.000      1.36130E-06
  47.000      1.68930E-06
  48.000      2.04980E-06
  49.000      2.43810E-06
  50.000      3.00740E-06
  50.600      7.24090E-06
  51.200      4.41480E-05
  52.000      4.29430E-05
  53.000      4.32190E-05
  54.000      4.09520E-05
  55.000      4.99020E-05
  56.000      5.87220E-05
  57.000      6.30220E-05
  58.000      6.00120E-05
  59.000      6.74470E-05
  60.000      6.32500E-05
  61.000      7.26480E-05
  62.000      8.23540E-05
  63.000      8.46110E-05
  64.000      8.49700E-05
  65.000      9.09670E-05
  65.800      8.68080E-05
  66.500      9.46840E-05
  67.500      1.00060E-04
  68.500      9.40170E-05
  69.500      1.12340E-04
  70.500      1.04080E-04
  71.600      1.24360E-04
  72.600      1.25570E-04
  73.500      1.30330E-04
  74.500      1.34920E-04
  75.500      1.38250E-04
  76.500      1.45240E-04
  77.500      1.51460E-04
  78.500      1.59790E-04
  79.500      1.63110E-04
  80.500      1.65170E-04
  81.500      1.69740E-04
  82.500      1.79820E-04
  83.500      1.64260E-04
  84.500      1.86230E-04
  85.500      1.90730E-04
  86.500      1.99390E-04
  87.500      2.05520E-04
  88.500      2.13190E-04
  89.500      2.20170E-04
  90.500      2.21190E-04
  91.500      2.28510E-04
  92.500      6.41650E-04
  93.500      1.13420E-03
  94.500      1.97790E-03
  95.500      2.36050E-03
  96.500      3.02880E-03
  97.500      1.34010E-03
  98.500      2.95190E-03
  99.500      2.68200E-03
  100.50      2.86840E-03
  101.50      2.90930E-03
  102.50      1.71210E-03
  103.50      2.81400E-03
  104.50      3.30480E-03
  105.50      3.23940E-03
  106.50      2.85120E-03
  107.50      3.02510E-03
  108.50      2.79810E-03
  109.50      3.09860E-03
  110.50      2.98670E-03
  111.50      2.96800E-03
  112.50      2.52120E-03
  113.50      2.95130E-03
  114.50      2.77710E-03
  115.50      2.77510E-03
  116.50      2.77920E-03
  117.50      2.12460E-03
  118.50      2.64880E-03
  119.50      2.58240E-03
  120.50      2.39840E-03
  121.50      1.53020E-03
  122.50      2.44180E-03
  123.50      2.65880E-03
  124.50      2.61760E-03
  125.50      2.64090E-03
  126.50      2.67890E-03
  127.50      2.71110E-03
  128.50      2.71490E-03
  129.50      2.49600E-03
  130.50      2.56220E-03
  131.50      2.68800E-03
  132.50      2.61110E-03
  133.50      2.57550E-03
  134.50      2.56020E-03
  135.50      2.58650E-03
  136.50      2.49170E-03
  137.50      2.48540E-03
  138.50      2.45280E-03
  139.50      2.00220E-03
  140.50      2.09090E-03
  141.50      2.38450E-03
  142.50      2.24470E-03
  143.50      2.34020E-03
  144.20      2.37210E-03
  144.70      2.35410E-03
  145.50      2.29750E-03
  146.50      2.27260E-03
  147.50      2.26640E-03
  148.50      2.27740E-03
  149.50      2.23890E-03
  150.50      2.17420E-03
  151.20      2.16080E-03
  151.70      2.16500E-03
  152.50      2.14040E-03
  153.50      1.95390E-03
  154.50      1.84500E-03
  155.50      1.83130E-03
  156.50      1.92720E-03
  157.50      1.99350E-03
  158.50      2.00520E-03
  159.50      2.01770E-03
  160.50      1.93780E-03
  161.50      1.88510E-03
  162.50      1.91810E-03
  163.50      1.93450E-03
  164.50      1.90390E-03
  165.50      1.96680E-03
  166.50      1.94480E-03
  167.20      1.87890E-03
  167.70      2.03220E-03
  168.50      1.98680E-03
  169.50      1.95070E-03
  170.50      1.92210E-03
  171.50      1.88820E-03
  172.50      1.83990E-03
  173.50      1.90050E-03
  174.50      1.89250E-03
  175.50      1.87770E-03
  176.50      1.85790E-03
  177.50      1.83500E-03
  178.50      1.84570E-03
  179.50      1.83940E-03
  180.50      1.84740E-03
  181.50      1.81030E-03
  182.50      1.80610E-03
  183.50      1.80520E-03
  184.50      1.72300E-03
  185.50      1.72930E-03
  186.50      1.74520E-03
  187.50      1.73760E-03
  188.50      1.67230E-03
  189.50      1.63760E-03
  190.50      1.68990E-03
  191.50      1.64740E-03
  192.50      1.59190E-03
  193.50      1.65420E-03
  194.50      1.67830E-03
  195.50      1.58480E-03
  196.70      1.63580E-03
  197.60      1.67420E-03
  198.40      1.61950E-03
  199.50      1.59270E-03
  200.50      1.62060E-03
  201.50      1.62750E-03
  202.50      1.63020E-03
  203.50      1.58890E-03
  204.50      1.58200E-03
  205.50      1.38990E-03
  206.50      1.36380E-03
  207.40      1.39460E-03
  207.80      1.37370E-03
  208.50      1.40280E-03
  209.50      1.43560E-03
  210.50      1.51900E-03
  211.50      1.54180E-03
  212.50      1.52910E-03
  213.50      1.52590E-03
  214.50      1.51050E-03
  215.50      1.51420E-03
  216.50      1.48660E-03
  217.50      1.49930E-03
  218.50      1.47620E-03
  219.50      1.49040E-03
  220.50      1.48170E-03
  221.50      1.45030E-03
  222.50      1.46100E-03
  223.50      1.45100E-03
  224.50      1.44440E-03
  225.50      1.41230E-03
  226.50      1.42780E-03
  227.50      1.42030E-03
  228.50      1.40140E-03
  229.50      1.33690E-03
  230.50      1.36780E-03
  231.50      1.37700E-03
  232.50      1.37340E-03
  233.50      1.36350E-03
  234.50      1.36020E-03
  235.50      1.35090E-03
  236.50      1.34310E-03
  237.50      1.33110E-03
  238.50      1.29880E-03
  239.50      1.30750E-03
  240.50      1.30950E-03
  241.50      1.29820E-03
  242.50      1.29410E-03
  243.50      1.28050E-03
  244.50      1.27700E-03
  245.50      1.26930E-03
  246.50      1.26480E-03
  247.50      1.25590E-03
  248.50      1.24410E-03
  249.50      1.07270E-03
  250.50      1.21880E-03
  251.30      1.17670E-03
  251.80      1.19560E-03
  252.50      1.22040E-03
  253.50      1.21610E-03
  254.50      1.19600E-03
  255.50      1.19450E-03
  256.50      1.19000E-03
  257.50      1.18680E-03
  258.50      1.18150E-03
  259.50      1.17320E-03
  260.50      1.17230E-03
  261.50      1.16370E-03
  262.50      1.15890E-03
  263.50      1.15220E-03
  264.50      1.14480E-03
  265.50      1.13780E-03
  266.50      1.12490E-03
  267.50      1.11680E-03
  268.50      1.11970E-03
  269.50      1.10300E-03
  270.50      1.10240E-03
  271.50      1.09750E-03
  272.50      1.08570E-03
  273.50      1.07400E-03
  274.50      1.08170E-03
  275.50      1.07610E-03
  276.50      1.06300E-03
  277.50      1.06810E-03
  278.50      1.05950E-03
  279.50      1.03530E-03
  280.50      1.04370E-03
  281.50      1.04530E-03
  282.50      1.03210E-03
  283.50      1.02220E-03
  284.50      1.02960E-03
  285.50      1.02090E-03
  286.50      1.01540E-03
  287.50      1.01000E-03
  288.50      1.00600E-03
  289.50      1.00010E-03
  291.00      9.88560E-04
  293.00      9.82990E-04
  295.00      9.65240E-04
  297.00      9.62160E-04
  299.00      9.50200E-04
  301.00      9.36290E-04
  303.00      9.27280E-04
  305.00      9.22310E-04
  307.00      9.16950E-04
  309.00      8.98050E-04
  311.00      8.97780E-04
  313.00      8.86100E-04
  315.00      8.78790E-04
  317.00      8.70210E-04
  319.00      8.57830E-04
  321.00      8.51830E-04
  323.00      8.45300E-04
  325.00      8.39900E-04
  327.00      8.29580E-04
  329.00      8.22790E-04
  331.00      8.15910E-04
  333.00      8.06460E-04
  335.00      7.98780E-04
  337.00      7.92000E-04
  339.00      7.87560E-04
  341.00      7.80260E-04
  343.00      7.72370E-04
  345.00      7.62290E-04
  347.00      7.56850E-04
  349.00      7.50020E-04
  351.00      7.44510E-04
  353.00      7.39470E-04
  355.00      7.32670E-04
  357.00      7.29410E-04
  359.00      7.17430E-04
  361.00      7.15080E-04
  363.00      7.05860E-04
  364.00      7.07040E-04
  365.00      6.91730E-04
  367.00      6.89120E-04
  369.00      6.83950E-04
  371.00      6.67940E-04
  373.00      6.59880E-04
  375.00      6.54860E-04
  377.00      6.39430E-04
  379.00      6.58680E-04
  381.00      6.81970E-04
  383.00      6.16400E-04
  385.00      7.02070E-04
  387.00      7.07950E-04
  389.00      5.94230E-04
  391.00      7.14550E-04
  393.00      7.11740E-04
  395.00      6.97620E-04
  397.00      5.71910E-04
  399.00      6.88140E-04
  401.00      6.92850E-04
  403.00      6.62580E-04
  405.00      6.89180E-04
  407.00      6.67500E-04
  409.00      6.20000E-04
  411.00      5.63250E-04
  413.00      6.52060E-04
  415.00      6.53990E-04
  417.00      6.57220E-04
  419.00      6.50140E-04
  421.00      6.46860E-04
  423.00      6.42780E-04
  425.00      6.32160E-04
  427.00      6.23520E-04
  429.00      6.18870E-04
  431.00      6.07780E-04
  433.00      5.59530E-04
  435.00      5.20930E-04
  437.00      5.94610E-04
  439.00      5.84470E-04
  441.00      5.91470E-04
  443.00      5.90940E-04
  445.00      5.85630E-04
  447.00      5.58320E-04
  449.00      5.76390E-04
  451.00      5.74530E-04
  453.00      5.71090E-04
  455.00      5.63970E-04
  457.00      5.61340E-04
  459.00      5.55860E-04
  461.00      5.50680E-04
  463.00      5.45590E-04
  465.00      5.30750E-04
  467.00      5.37940E-04
  469.00      5.31300E-04
  471.00      5.22250E-04
  473.00      5.30150E-04
  475.00      5.25390E-04
  477.00      5.23570E-04
  479.00      5.19490E-04
  481.00      5.13420E-04
  483.00      5.05110E-04
  485.00      4.71030E-04
  487.00      4.30460E-04
  489.00      4.93580E-04
  491.00      4.93940E-04
  493.00      4.80530E-04
  495.00      4.87470E-04
  497.00      4.87120E-04
  499.00      4.83570E-04
  501.00      4.72630E-04
  503.00      4.75820E-04
  505.00      4.70780E-04
  507.00      4.70300E-04
  509.00      4.66570E-04
  511.00      4.63350E-04
  513.00      4.59990E-04
  515.00      4.56890E-04
  517.00      4.53570E-04
  519.00      4.50960E-04
  521.00      4.47960E-04
  523.00      4.45060E-04
  525.00      4.41900E-04
  527.00      4.38800E-04
  529.00      4.36150E-04
  531.00      4.33210E-04
  533.00      4.30360E-04
  535.00      4.27460E-04
  537.00      4.24710E-04
  539.00      4.21640E-04
  541.00      4.17460E-04
  543.00      4.16400E-04
  545.00      4.13540E-04
  547.00      4.10880E-04
  549.00      4.08290E-04
  551.00      4.05710E-04
  553.00      4.03050E-04
  555.00      4.00550E-04
  557.00      3.97970E-04
  559.00      3.95210E-04
  561.00      3.92940E-04
  563.00      3.90480E-04
  565.00      3.87890E-04
  567.00      3.85110E-04
  569.00      3.81200E-04
  571.00      3.78600E-04
  573.00      3.76530E-04
  575.00      3.73540E-04
  577.00      3.72050E-04
  579.00      3.69710E-04
  581.00      3.67450E-04
  583.00      3.64960E-04
  585.00      3.62970E-04
  587.00      3.50520E-04
  589.00      3.57410E-04
  591.00      3.56440E-04
  593.00      3.54490E-04
  595.00      3.52460E-04
  597.00      3.50970E-04
  599.00      3.48980E-04
  601.00      3.47210E-04
  603.00      3.45080E-04
  605.00      3.43130E-04
  607.00      3.41200E-04
  609.00      3.39190E-04
  611.00      3.37200E-04
  613.00      3.35260E-04
  615.00      3.33000E-04
  617.00      3.31130E-04
  619.00      3.29380E-04
  621.00      3.27520E-04
  623.00      3.25630E-04
  625.00      3.23640E-04
  627.00      3.21850E-04
  629.00      3.20050E-04
  631.00      3.18140E-04
  633.00      3.16410E-04
  635.00      3.14500E-04
  637.00      3.12840E-04
  639.00      3.11050E-04
  641.00      3.09280E-04
  643.00      3.07590E-04
  645.00      3.05850E-04
  647.00      3.03810E-04
  649.00      3.02180E-04
  651.00      3.00120E-04
  653.00      2.97010E-04
  655.00      2.85180E-04
  657.00      2.57590E-04
  659.00      2.90030E-04
  661.00      2.91600E-04
  663.00      2.90870E-04
  665.00      2.89260E-04
  667.00      2.84650E-04
  669.00      2.83250E-04
  671.00      2.84580E-04
  673.00      2.82840E-04
  675.00      2.81730E-04
  677.00      2.80270E-04
  679.00      2.78370E-04
  681.00      2.77230E-04
  683.00      2.75650E-04
  685.00      2.74320E-04
  687.00      2.72860E-04
  689.00      2.71160E-04
  691.00      2.69540E-04
  693.00      2.68620E-04
  695.00      2.67230E-04
  697.00      2.65840E-04
  699.00      2.64450E-04
  701.00      2.63040E-04
  703.00      2.61610E-04
  705.00      2.60300E-04
  707.00      2.55330E-04
  709.00      2.57680E-04
  711.00      2.56280E-04
  713.00      2.55010E-04
  715.00      2.53760E-04
  717.00      2.52420E-04
  719.00      2.51190E-04
  721.00      2.49920E-04
  723.00      2.47560E-04
  725.00      2.47130E-04
  727.00      2.46160E-04
  729.00      2.43160E-04
  731.00      2.43680E-04
  733.00      2.42480E-04
  735.00      2.41270E-04
  737.00      2.40090E-04
  739.00      2.38900E-04
  741.00      2.37720E-04
  743.00      2.36550E-04
  745.00      2.35390E-04
  747.00      2.33790E-04
  749.00      2.33000E-04
  751.00      2.31920E-04
  753.00      2.30790E-04
  755.00      2.29730E-04
  757.00      2.28620E-04
  759.00      2.27420E-04
  761.00      2.26210E-04
  763.00      2.25320E-04
  765.00      2.24220E-04
  767.00      2.23180E-04
  769.00      2.22050E-04
  771.00      2.21040E-04
  773.00      2.19860E-04
  775.00      2.18950E-04
  777.00      2.17880E-04
  779.00      2.16910E-04
  781.00      2.15810E-04
  783.00      2.14880E-04
  785.00      2.14000E-04
  787.00      2.12770E-04
  789.00      2.11730E-04
  791.00      2.11020E-04
  793.00      2.10010E-04
  795.00      2.09050E-04
  797.00      2.08010E-04
  799.00      2.07110E-04
  801.00      2.06170E-04
  803.00      2.05190E-04
  805.00      2.04250E-04
  807.00      2.03320E-04
  809.00      2.02160E-04
  811.00      2.00620E-04
  813.00      2.00510E-04
  815.00      1.99460E-04
  817.00      1.98710E-04
  819.00      1.97220E-04
  821.00      1.96020E-04
  823.00      1.95220E-04
  825.00      1.94650E-04
  827.00      1.92820E-04
  829.00      1.92880E-04
  831.00      1.92170E-04
  833.00      1.91210E-04
  835.00      1.89760E-04
  837.00      1.89320E-04
  839.00      1.88780E-04
  841.00      1.87900E-04
  843.00      1.87080E-04
  845.00      1.85370E-04
  847.00      1.85490E-04
  849.00      1.84400E-04
  851.00      1.83680E-04
  853.00      1.82660E-04
  855.00      1.81880E-04
  857.00      1.81640E-04
  859.00      1.78570E-04
  861.00      1.79160E-04
  863.00      1.79840E-04
  865.00      1.77170E-04
  867.00      1.74370E-04
  869.00      1.77430E-04
  871.00      1.77800E-04
  873.00      1.74370E-04
  875.00      1.67880E-04
  877.00      1.71530E-04
  879.00      1.75170E-04
  881.00      1.75300E-04
  883.00      1.73420E-04
  885.00      1.65780E-04
  887.00      1.59970E-04
  889.00      1.69600E-04
  891.00      1.71850E-04
  893.00      1.71790E-04
  895.00      1.71360E-04
  897.00      1.70020E-04
  899.00      1.65540E-04
  901.00      1.53180E-04
  903.00      1.57630E-04
  905.00      1.65540E-04
  907.00      1.65470E-04
  909.00      1.66430E-04
  911.00      1.66410E-04
  913.00      1.65810E-04
  915.00      1.65030E-04
  917.00      1.63660E-04
  919.00      1.62000E-04
  921.00      1.55210E-04
  923.00      1.42180E-04
  925.00      1.53690E-04
  927.00      1.59050E-04
  929.00      1.59890E-04
  931.00      1.59160E-04
  933.00      1.59150E-04
  935.00      1.58490E-04
  937.00      1.58230E-04
  939.00      1.57620E-04
  941.00      1.56920E-04
  943.00      1.56310E-04
  945.00      1.55550E-04
  947.00      1.53890E-04
  949.00      1.53550E-04
  951.00      1.50520E-04
  953.00      1.43880E-04
  955.00      1.32100E-04
  957.00      1.45420E-04
  959.00      1.49560E-04
  961.00      1.49800E-04
  963.00      1.49150E-04
  965.00      1.49720E-04
  967.00      1.49200E-04
  969.00      1.48500E-04
  971.00      1.47260E-04
  973.00      1.47410E-04
  975.00      1.46890E-04
  977.00      1.46320E-04
  979.00      1.45750E-04
  981.00      1.45110E-04
  983.00      1.44630E-04
  985.00      1.44040E-04
  987.00      1.43500E-04
  989.00      1.42850E-04
  991.00      1.42030E-04
  993.00      1.41870E-04
  995.00      1.41270E-04
  997.00      1.40410E-04
  999.00      1.39530E-04
  1002.5      1.32510E-04
  1007.5      1.29620E-04
  1012.5      1.35590E-04
  1017.5      1.35500E-04
  1022.5      1.34190E-04
  1027.5      1.33020E-04
  1032.5      1.31270E-04
  1037.5      1.30600E-04
  1042.5      1.29420E-04
  1047.5      1.28250E-04
  1052.5      1.27090E-04
  1057.5      1.25950E-04
  1062.5      1.24830E-04
  1067.5      1.23530E-04
  1072.5      1.22630E-04
  1077.5      1.21550E-04
  1082.5      1.19350E-04
  1087.5      1.18660E-04
  1092.5      1.08670E-04
  1097.5      1.13770E-04
  1102.5      1.15490E-04
  1107.5      1.15210E-04
  1112.5      1.14370E-04
  1117.5      1.13420E-04
  1122.5      1.12410E-04
  1127.5      1.11500E-04
  1132.5      1.10500E-04
  1137.5      1.09620E-04
  1142.5      1.08720E-04
  1147.5      1.07820E-04
  1152.5      1.06950E-04
  1157.5      1.06050E-04
  1162.5      1.05130E-04
  1167.5      1.04250E-04
  1172.5      1.03500E-04
  1177.5      1.02660E-04
  1182.5      1.01820E-04
  1187.5      1.01010E-04
  1192.5      1.00200E-04
  1197.5      9.82740E-05
  1202.5      9.86190E-05
  1207.5      9.78400E-05
  1212.5      9.70660E-05
  1217.5      9.63100E-05
  1222.5      9.55570E-05
  1227.5      9.48160E-05
  1232.5      9.40800E-05
  1237.5      9.33480E-05
  1242.5      9.26380E-05
  1247.5      9.19070E-05
  1252.5      9.10250E-05
  1257.5      9.05120E-05
  1262.5      8.98250E-05
  1267.5      8.91690E-05
  1272.5      8.82970E-05
  1277.5      8.59120E-05
  1282.5      7.99110E-05
  1287.5      8.55700E-05
  1292.5      8.57580E-05
  1297.5      8.46310E-05
  1302.5      8.45970E-05
  1307.5      8.40150E-05
  1312.5      8.34030E-05
  1317.5      8.27960E-05
  1322.5      8.21970E-05
  1327.5      8.16040E-05
  1332.5      8.10110E-05
  1337.5      8.04060E-05
  1342.5      7.97920E-05
  1347.5      7.92850E-05
  1352.5      7.87010E-05
  1357.5      7.81680E-05
  1362.5      7.75670E-05
  1367.5      7.70760E-05
  1372.5      7.65020E-05
  1377.5      7.60080E-05
  1382.5      7.54810E-05
  1387.5      7.49570E-05
  1392.5      7.44160E-05
  1397.5      7.39260E-05
