 Castelli and Kurucz 2004-2012 Atmosphere
 T     48000.     G    4.50000 [-0.5a] N(He)/Ntot=0.0784 VTURB=2.0  L/H=1.25 OD
 Wavelength  Eddington Hnu
   (nm)    (ergs/s/cm2/Hz/sr)
  9.0900      3.97670E-19
  9.3500      1.10380E-18
  9.6100      2.83900E-18
  9.7700      5.10990E-18
  9.9600      9.81360E-18
  10.200      2.16480E-17
  10.380      3.83140E-17
  10.560      6.65550E-17
  10.770      1.23940E-16
  11.040      2.66560E-16
  11.400      7.00760E-16
  11.780      1.81540E-15
  12.130      4.20160E-15
  12.480      9.18640E-15
  12.710      1.50990E-14
  12.840      2.09500E-14
  13.050      3.21180E-14
  13.240      4.66540E-14
  13.390      6.25010E-14
  13.660      1.03140E-13
  13.980      1.84090E-13
  14.330      3.31540E-13
  14.720      5.92300E-13
  15.100      1.11010E-12
  15.520      2.05510E-12
  15.880      3.45220E-12
  16.200      6.54380E-12
  16.600      1.10670E-11
  17.030      1.80060E-11
  17.340      2.55560E-11
  17.680      3.83450E-11
  18.020      5.59860E-11
  18.170      6.36770E-11
  18.610      1.03820E-10
  19.100      1.62730E-10
  19.390      2.22490E-10
  19.840      3.34270E-10
  20.180      4.33790E-10
  20.500      5.80570E-10
  21.050      8.91360E-10
  21.620      1.35210E-09
  21.980      1.78170E-09
  22.300      2.17660E-09
  22.680      2.76470E-09
  23.000      2.38290E-07
  23.400      2.28840E-06
  24.000      5.48860E-06
  24.650      2.10730E-05
  25.240      7.94990E-05
  25.680      1.31300E-04
  26.000      1.26970E-04
  26.400      2.72420E-04
  26.850      3.08720E-04
  27.350      3.67760E-04
  27.850      2.89240E-04
  28.400      4.73950E-04
  29.000      6.36780E-04
  29.600      5.66000E-04
  30.100      3.34370E-04
  30.800      3.87830E-04
  31.800      1.39270E-04
  32.800      1.72970E-04
  33.800      1.13540E-04
  34.800      1.24550E-04
  35.700      3.15910E-04
  36.600      6.21380E-04
  37.500      8.09910E-04
  38.500      7.65420E-04
  39.500      1.17270E-03
  40.500      1.69780E-03
  41.400      1.72870E-03
  42.200      1.63820E-03
  43.000      1.61110E-03
  44.100      1.97100E-03
  45.100      2.07910E-03
  46.000      1.85570E-03
  47.000      2.06960E-03
  48.000      2.33730E-03
  49.000      2.06810E-03
  50.000      2.75780E-03
  50.600      2.37470E-03
  51.200      2.80160E-03
  52.000      2.74900E-03
  53.000      2.68420E-03
  54.000      2.32990E-03
  55.000      1.94830E-03
  56.000      2.51220E-03
  57.000      2.97400E-03
  58.000      3.06010E-03
  59.000      3.12480E-03
  60.000      2.85670E-03
  61.000      2.37990E-03
  62.000      3.01760E-03
  63.000      2.74090E-03
  64.000      3.25000E-03
  65.000      3.10480E-03
  65.800      2.85590E-03
  66.500      3.28850E-03
  67.500      3.34090E-03
  68.500      3.12680E-03
  69.500      3.40670E-03
  70.500      3.09520E-03
  71.600      3.40140E-03
  72.600      3.51670E-03
  73.500      3.51220E-03
  74.500      3.43740E-03
  75.500      3.36920E-03
  76.500      3.16950E-03
  77.500      3.43430E-03
  78.500      3.08170E-03
  79.500      3.38800E-03
  80.500      3.49820E-03
  81.500      3.51030E-03
  82.500      3.54940E-03
  83.500      3.30960E-03
  84.500      3.52400E-03
  85.500      3.38740E-03
  86.500      3.55710E-03
  87.500      3.59510E-03
  88.500      3.53580E-03
  89.500      3.54510E-03
  90.500      3.48520E-03
  91.500      2.70220E-03
  92.500      4.20040E-03
  93.500      4.98220E-03
  94.500      5.51030E-03
  95.500      6.31250E-03
  96.500      6.55440E-03
  97.500      5.58370E-03
  98.500      6.22260E-03
  99.500      5.79220E-03
  100.50      5.98850E-03
  101.50      6.06120E-03
  102.50      5.68960E-03
  103.50      6.28280E-03
  104.50      6.41930E-03
  105.50      6.38670E-03
  106.50      6.12940E-03
  107.50      6.34410E-03
  108.50      6.00710E-03
  109.50      6.25470E-03
  110.50      6.20240E-03
  111.50      6.16970E-03
  112.50      6.06870E-03
  113.50      6.19110E-03
  114.50      6.18860E-03
  115.50      6.05730E-03
  116.50      5.88150E-03
  117.50      5.63360E-03
  118.50      5.89170E-03
  119.50      5.71340E-03
  120.50      5.72630E-03
  121.50      5.03790E-03
  122.50      5.65810E-03
  123.50      5.44560E-03
  124.50      5.36380E-03
  125.50      5.53120E-03
  126.50      5.50360E-03
  127.50      5.48070E-03
  128.50      5.45150E-03
  129.50      5.45960E-03
  130.50      5.33730E-03
  131.50      5.30870E-03
  132.50      5.24920E-03
  133.50      5.22990E-03
  134.50      5.18080E-03
  135.50      5.06620E-03
  136.50      4.90470E-03
  137.50      4.74680E-03
  138.50      4.88790E-03
  139.50      4.79600E-03
  140.50      4.64160E-03
  141.50      4.93480E-03
  142.50      4.81950E-03
  143.50      4.88610E-03
  144.20      4.73060E-03
  144.70      4.74230E-03
  145.50      4.68550E-03
  146.50      4.67000E-03
  147.50      4.68750E-03
  148.50      4.72400E-03
  149.50      4.66090E-03
  150.50      4.62710E-03
  151.20      4.63060E-03
  151.70      4.54880E-03
  152.50      4.59250E-03
  153.50      4.45920E-03
  154.50      4.14720E-03
  155.50      4.16110E-03
  156.50      4.35580E-03
  157.50      4.39540E-03
  158.50      4.31140E-03
  159.50      4.32300E-03
  160.50      4.24240E-03
  161.50      4.21490E-03
  162.50      4.19150E-03
  163.50      4.17500E-03
  164.50      4.00510E-03
  165.50      4.17390E-03
  166.50      4.15120E-03
  167.20      4.06470E-03
  167.70      4.15470E-03
  168.50      4.14170E-03
  169.50      4.13340E-03
  170.50      4.06790E-03
  171.50      3.95760E-03
  172.50      3.95030E-03
  173.50      4.02060E-03
  174.50      3.98340E-03
  175.50      3.95490E-03
  176.50      3.92150E-03
  177.50      3.90120E-03
  178.50      3.88960E-03
  179.50      3.84420E-03
  180.50      3.81980E-03
  181.50      3.78460E-03
  182.50      3.76780E-03
  183.50      3.74300E-03
  184.50      3.72400E-03
  185.50      3.69160E-03
  186.50      3.67640E-03
  187.50      3.64080E-03
  188.50      3.61350E-03
  189.50      3.60810E-03
  190.50      3.58400E-03
  191.50      3.55770E-03
  192.50      3.48900E-03
  193.50      3.51230E-03
  194.50      3.49240E-03
  195.50      3.46130E-03
  196.70      3.43710E-03
  197.60      3.39900E-03
  198.40      3.40160E-03
  199.50      3.36870E-03
  200.50      3.35460E-03
  201.50      3.33330E-03
  202.50      3.31270E-03
  203.50      3.28410E-03
  204.50      3.24710E-03
  205.50      2.54690E-03
  206.50      2.47960E-03
  207.40      2.54830E-03
  207.80      2.61590E-03
  208.50      2.80270E-03
  209.50      3.07270E-03
  210.50      3.11790E-03
  211.50      3.11670E-03
  212.50      3.08730E-03
  213.50      3.07640E-03
  214.50      3.05530E-03
  215.50      3.07320E-03
  216.50      2.95590E-03
  217.50      3.04840E-03
  218.50      2.95290E-03
  219.50      3.01790E-03
  220.50      2.99620E-03
  221.50      2.89080E-03
  222.50      2.96240E-03
  223.50      2.94460E-03
  224.50      2.92630E-03
  225.50      2.83040E-03
  226.50      2.88490E-03
  227.50      2.87520E-03
  228.50      2.84240E-03
  229.50      2.81240E-03
  230.50      2.74340E-03
  231.50      2.78630E-03
  232.50      2.78240E-03
  233.50      2.76660E-03
  234.50      2.74430E-03
  235.50      2.72340E-03
  236.50      2.70540E-03
  237.50      2.68500E-03
  238.50      2.58430E-03
  239.50      2.63880E-03
  240.50      2.62490E-03
  241.50      2.60440E-03
  242.50      2.60970E-03
  243.50      2.58770E-03
  244.50      2.57440E-03
  245.50      2.54030E-03
  246.50      2.54020E-03
  247.50      2.53380E-03
  248.50      2.51060E-03
  249.50      2.39830E-03
  250.50      2.47920E-03
  251.30      2.33020E-03
  251.80      2.43140E-03
  252.50      2.43620E-03
  253.50      2.44160E-03
  254.50      2.42930E-03
  255.50      2.41440E-03
  256.50      2.40240E-03
  257.50      2.38590E-03
  258.50      2.37050E-03
  259.50      2.33090E-03
  260.50      2.34630E-03
  261.50      2.31400E-03
  262.50      2.31980E-03
  263.50      2.30700E-03
  264.50      2.28850E-03
  265.50      2.28010E-03
  266.50      2.26570E-03
  267.50      2.23800E-03
  268.50      2.23650E-03
  269.50      2.22230E-03
  270.50      2.21720E-03
  271.50      2.20390E-03
  272.50      2.18990E-03
  273.50      2.12280E-03
  274.50      2.16720E-03
  275.50      2.15130E-03
  276.50      2.14220E-03
  277.50      2.12700E-03
  278.50      2.10730E-03
  279.50      2.09850E-03
  280.50      2.09200E-03
  281.50      2.08040E-03
  282.50      2.06450E-03
  283.50      2.05870E-03
  284.50      2.04850E-03
  285.50      2.03700E-03
  286.50      2.02130E-03
  287.50      2.00810E-03
  288.50      2.00250E-03
  289.50      1.98930E-03
  291.00      1.97540E-03
  293.00      1.95630E-03
  295.00      1.93520E-03
  297.00      1.91150E-03
  299.00      1.88720E-03
  301.00      1.86870E-03
  303.00      1.84230E-03
  305.00      1.82790E-03
  307.00      1.80130E-03
  309.00      1.79350E-03
  311.00      1.77500E-03
  313.00      1.75520E-03
  315.00      1.74110E-03
  317.00      1.72210E-03
  319.00      1.70610E-03
  321.00      1.66320E-03
  323.00      1.67380E-03
  325.00      1.65720E-03
  327.00      1.63010E-03
  329.00      1.62220E-03
  331.00      1.60580E-03
  333.00      1.59010E-03
  335.00      1.56800E-03
  337.00      1.55840E-03
  339.00      1.53950E-03
  341.00      1.52310E-03
  343.00      1.51610E-03
  345.00      1.49650E-03
  347.00      1.48660E-03
  349.00      1.47290E-03
  351.00      1.46130E-03
  353.00      1.44570E-03
  355.00      1.43290E-03
  357.00      1.41900E-03
  359.00      1.40700E-03
  361.00      1.39410E-03
  363.00      1.37990E-03
  364.00      1.34800E-03
  365.00      1.23160E-03
  367.00      1.22200E-03
  369.00      1.21590E-03
  371.00      1.21640E-03
  373.00      1.22730E-03
  375.00      1.24590E-03
  377.00      1.25920E-03
  379.00      1.27510E-03
  381.00      1.28710E-03
  383.00      1.24240E-03
  385.00      1.27930E-03
  387.00      1.27890E-03
  389.00      1.20100E-03
  391.00      1.26140E-03
  393.00      1.24160E-03
  395.00      1.23990E-03
  397.00      1.15570E-03
  399.00      1.21970E-03
  401.00      1.21250E-03
  403.00      1.18490E-03
  405.00      1.19270E-03
  407.00      1.18200E-03
  409.00      1.15200E-03
  411.00      1.10090E-03
  413.00      1.15230E-03
  415.00      1.14410E-03
  417.00      1.13500E-03
  419.00      1.12190E-03
  421.00      1.10160E-03
  423.00      1.10770E-03
  425.00      1.09850E-03
  427.00      1.08980E-03
  429.00      1.08100E-03
  431.00      1.07130E-03
  433.00      1.04010E-03
  435.00      1.00600E-03
  437.00      1.04490E-03
  439.00      1.03600E-03
  441.00      1.02800E-03
  443.00      1.02140E-03
  445.00      1.01270E-03
  447.00      1.00310E-03
  449.00      9.97650E-04
  451.00      9.89770E-04
  453.00      9.81090E-04
  455.00      9.60100E-04
  457.00      9.67420E-04
  459.00      9.60150E-04
  461.00      9.52940E-04
  463.00      9.42870E-04
  465.00      9.31960E-04
  467.00      9.30400E-04
  469.00      8.96250E-04
  471.00      9.17650E-04
  473.00      9.11450E-04
  475.00      9.04700E-04
  477.00      8.97880E-04
  479.00      8.90380E-04
  481.00      8.84590E-04
  483.00      8.78040E-04
  485.00      8.58950E-04
  487.00      8.20100E-04
  489.00      8.58450E-04
  491.00      8.52940E-04
  493.00      8.46330E-04
  495.00      8.40920E-04
  497.00      8.34900E-04
  499.00      8.29100E-04
  501.00      8.22560E-04
  503.00      8.17250E-04
  505.00      8.11380E-04
  507.00      8.05880E-04
  509.00      8.00380E-04
  511.00      7.94790E-04
  513.00      7.89180E-04
  515.00      7.83770E-04
  517.00      7.78500E-04
  519.00      7.73120E-04
  521.00      7.67680E-04
  523.00      7.62610E-04
  525.00      7.57170E-04
  527.00      7.51690E-04
  529.00      7.47220E-04
  531.00      7.42150E-04
  533.00      7.37150E-04
  535.00      7.32300E-04
  537.00      7.27340E-04
  539.00      7.22540E-04
  541.00      7.05750E-04
  543.00      7.13060E-04
  545.00      7.08380E-04
  547.00      7.03640E-04
  549.00      6.99120E-04
  551.00      6.94190E-04
  553.00      6.90070E-04
  555.00      6.85620E-04
  557.00      6.80950E-04
  559.00      6.75470E-04
  561.00      6.72480E-04
  563.00      6.68170E-04
  565.00      6.63920E-04
  567.00      6.59690E-04
  569.00      6.47100E-04
  571.00      6.09380E-04
  573.00      6.05800E-04
  575.00      6.02220E-04
  577.00      5.98930E-04
  579.00      5.95980E-04
  581.00      5.91370E-04
  583.00      5.91980E-04
  585.00      5.90990E-04
  587.00      5.88680E-04
  589.00      5.89890E-04
  591.00      5.89950E-04
  593.00      5.90440E-04
  595.00      5.91550E-04
  597.00      5.92450E-04
  599.00      5.93750E-04
  601.00      5.91640E-04
  603.00      5.89430E-04
  605.00      5.87280E-04
  607.00      5.83100E-04
  609.00      5.80630E-04
  611.00      5.76450E-04
  613.00      5.73170E-04
  615.00      5.70700E-04
  617.00      5.65150E-04
  619.00      5.63930E-04
  621.00      5.60730E-04
  623.00      5.54930E-04
  625.00      5.53650E-04
  627.00      5.50940E-04
  629.00      5.47790E-04
  631.00      5.41060E-04
  633.00      5.41260E-04
  635.00      5.38360E-04
  637.00      5.35280E-04
  639.00      5.31920E-04
  641.00      5.24790E-04
  643.00      5.26180E-04
  645.00      5.23160E-04
  647.00      5.20190E-04
  649.00      5.17300E-04
  651.00      5.14100E-04
  653.00      5.05910E-04
  655.00      5.03970E-04
  657.00      4.76120E-04
  659.00      5.02490E-04
  661.00      5.00220E-04
  663.00      4.97460E-04
  665.00      4.94710E-04
  667.00      4.90700E-04
  669.00      4.83060E-04
  671.00      4.86220E-04
  673.00      4.83930E-04
  675.00      4.81290E-04
  677.00      4.78690E-04
  679.00      4.76130E-04
  681.00      4.73550E-04
  683.00      4.71010E-04
  685.00      4.68470E-04
  687.00      4.65960E-04
  689.00      4.57160E-04
  691.00      4.60820E-04
  693.00      4.58570E-04
  695.00      4.56140E-04
  697.00      4.53730E-04
  699.00      4.51330E-04
  701.00      4.48860E-04
  703.00      4.46410E-04
  705.00      4.44060E-04
  707.00      4.41410E-04
  709.00      4.39650E-04
  711.00      4.37260E-04
  713.00      4.34980E-04
  715.00      4.32860E-04
  717.00      4.26420E-04
  719.00      4.26140E-04
  721.00      4.26220E-04
  723.00      4.24040E-04
  725.00      4.21880E-04
  727.00      4.19740E-04
  729.00      4.17510E-04
  731.00      4.15350E-04
  733.00      4.13400E-04
  735.00      4.11320E-04
  737.00      4.09180E-04
  739.00      4.07120E-04
  741.00      4.05090E-04
  743.00      4.03150E-04
  745.00      4.00940E-04
  747.00      3.99150E-04
  749.00      3.97090E-04
  751.00      3.95130E-04
  753.00      3.93270E-04
  755.00      3.91330E-04
  757.00      3.89410E-04
  759.00      3.81610E-04
  761.00      3.85280E-04
  763.00      3.83730E-04
  765.00      3.81850E-04
  767.00      3.79960E-04
  769.00      3.77970E-04
  771.00      3.76200E-04
  773.00      3.74260E-04
  775.00      3.72760E-04
  777.00      3.70980E-04
  779.00      3.69210E-04
  781.00      3.67450E-04
  783.00      3.65700E-04
  785.00      3.63780E-04
  787.00      3.62150E-04
  789.00      3.60500E-04
  791.00      3.58840E-04
  793.00      3.57160E-04
  795.00      3.55480E-04
  797.00      3.53640E-04
  799.00      3.52170E-04
  801.00      3.50520E-04
  803.00      3.48860E-04
  805.00      3.47280E-04
  807.00      3.45680E-04
  809.00      3.44080E-04
  811.00      3.42500E-04
  813.00      3.40930E-04
  815.00      3.39360E-04
  817.00      3.37640E-04
  819.00      3.34780E-04
  821.00      3.20360E-04
  823.00      3.16980E-04
  825.00      3.17230E-04
  827.00      3.16220E-04
  829.00      3.14880E-04
  831.00      3.13540E-04
  833.00      3.12070E-04
  835.00      3.10900E-04
  837.00      3.09650E-04
  839.00      3.08470E-04
  841.00      3.07400E-04
  843.00      3.06340E-04
  845.00      3.05290E-04
  847.00      3.04320E-04
  849.00      3.03520E-04
  851.00      3.02500E-04
  853.00      3.01870E-04
  855.00      3.00660E-04
  857.00      3.00340E-04
  859.00      2.99130E-04
  861.00      2.98290E-04
  863.00      2.98430E-04
  865.00      2.97390E-04
  867.00      2.94740E-04
  869.00      2.96540E-04
  871.00      2.96310E-04
  873.00      2.95310E-04
  875.00      2.90170E-04
  877.00      2.93310E-04
  879.00      2.94070E-04
  881.00      2.93630E-04
  883.00      2.92720E-04
  885.00      2.88530E-04
  887.00      2.82190E-04
  889.00      2.88490E-04
  891.00      2.88400E-04
  893.00      2.87200E-04
  895.00      2.86600E-04
  897.00      2.85290E-04
  899.00      2.82800E-04
  901.00      2.72950E-04
  903.00      2.76250E-04
  905.00      2.79830E-04
  907.00      2.79490E-04
  909.00      2.78420E-04
  911.00      2.76520E-04
  913.00      2.76120E-04
  915.00      2.75030E-04
  917.00      2.73820E-04
  919.00      2.72370E-04
  921.00      2.69120E-04
  923.00      2.57070E-04
  925.00      2.66260E-04
  927.00      2.67830E-04
  929.00      2.67240E-04
  931.00      2.66160E-04
  933.00      2.64820E-04
  935.00      2.58430E-04
  937.00      2.61560E-04
  939.00      2.61790E-04
  941.00      2.60810E-04
  943.00      2.59780E-04
  945.00      2.58720E-04
  947.00      2.57710E-04
  949.00      2.56610E-04
  951.00      2.55100E-04
  953.00      2.51390E-04
  955.00      2.39650E-04
  957.00      2.50390E-04
  959.00      2.51340E-04
  961.00      2.50640E-04
  963.00      2.49610E-04
  965.00      2.48680E-04
  967.00      2.47700E-04
  969.00      2.46740E-04
  971.00      2.45590E-04
  973.00      2.44790E-04
  975.00      2.43500E-04
  977.00      2.41130E-04
  979.00      2.41970E-04
  981.00      2.41040E-04
  983.00      2.40060E-04
  985.00      2.39190E-04
  987.00      2.38270E-04
  989.00      2.37350E-04
  991.00      2.36430E-04
  993.00      2.35540E-04
  995.00      2.34640E-04
  997.00      2.33740E-04
  999.00      2.32850E-04
  1002.5      2.28300E-04
  1007.5      2.24320E-04
  1012.5      2.23330E-04
  1017.5      2.24870E-04
  1022.5      2.22780E-04
  1027.5      2.20680E-04
  1032.5      2.18610E-04
  1037.5      2.16680E-04
  1042.5      2.13530E-04
  1047.5      2.12760E-04
  1052.5      2.10840E-04
  1057.5      2.08940E-04
  1062.5      2.07070E-04
  1067.5      2.05220E-04
  1072.5      2.03400E-04
  1077.5      2.01600E-04
  1082.5      1.99640E-04
  1087.5      1.98040E-04
  1092.5      1.90350E-04
  1097.5      1.93470E-04
  1102.5      1.92950E-04
  1107.5      1.91290E-04
  1112.5      1.89650E-04
  1117.5      1.88140E-04
  1122.5      1.86530E-04
  1127.5      1.84940E-04
  1132.5      1.83370E-04
  1137.5      1.81850E-04
  1142.5      1.80330E-04
  1147.5      1.78830E-04
  1152.5      1.77340E-04
  1157.5      1.75870E-04
  1162.5      1.72600E-04
  1167.5      1.71700E-04
  1172.5      1.71580E-04
  1177.5      1.70180E-04
  1182.5      1.68790E-04
  1187.5      1.67430E-04
  1192.5      1.66090E-04
  1197.5      1.64710E-04
  1202.5      1.63450E-04
  1207.5      1.62140E-04
  1212.5      1.60850E-04
  1217.5      1.59600E-04
  1222.5      1.58340E-04
  1227.5      1.57100E-04
  1232.5      1.55880E-04
  1237.5      1.54670E-04
  1242.5      1.53470E-04
  1247.5      1.52290E-04
  1252.5      1.51120E-04
  1257.5      1.49960E-04
  1262.5      1.48820E-04
  1267.5      1.47690E-04
  1272.5      1.46570E-04
  1277.5      1.45090E-04
  1282.5      1.39310E-04
  1287.5      1.43140E-04
  1292.5      1.42230E-04
  1297.5      1.41160E-04
  1302.5      1.40130E-04
  1307.5      1.39100E-04
  1312.5      1.38070E-04
  1317.5      1.37060E-04
  1322.5      1.36060E-04
  1327.5      1.35080E-04
  1332.5      1.34100E-04
  1337.5      1.33130E-04
  1342.5      1.32170E-04
  1347.5      1.31230E-04
  1352.5      1.30290E-04
  1357.5      1.29360E-04
  1362.5      1.28450E-04
  1367.5      1.27540E-04
  1372.5      1.26640E-04
  1377.5      1.25750E-04
  1382.5      1.24870E-04
  1387.5      1.24000E-04
  1392.5      1.23140E-04
  1397.5      1.22290E-04
