 Castelli and Kurucz 2004-2012 Atmosphere
 T     41000.     G    4.50000 [-0.5a] N(He)/Ntot=0.0784 VTURB=2.0  L/H=1.25 OD
 Wavelength  Eddington Hnu
   (nm)    (ergs/s/cm2/Hz/sr)
  9.0900      3.89430E-24
  9.3500      1.34620E-23
  9.6100      4.33040E-23
  9.7700      8.77160E-23
  9.9600      1.95340E-22
  10.200      5.17030E-22
  10.380      1.04630E-21
  10.560      2.07260E-21
  10.770      4.48590E-21
  11.040      1.16560E-20
  11.400      3.91530E-20
  11.780      1.31340E-19
  12.130      3.78310E-19
  12.480      1.03330E-18
  12.710      1.94820E-18
  12.840      2.76190E-18
  13.050      4.78810E-18
  13.240      7.76930E-18
  13.390      1.13040E-17
  13.660      2.17070E-17
  13.980      4.60500E-17
  14.330      1.00610E-16
  14.720      2.27850E-16
  15.100      5.02290E-16
  15.520      1.13390E-15
  15.880      2.20890E-15
  16.200      3.91110E-15
  16.600      7.79560E-15
  17.030      1.56610E-14
  17.340      2.54320E-14
  17.680      4.28100E-14
  18.020      7.03210E-14
  18.170      8.64090E-14
  18.610      1.60270E-13
  19.100      3.05760E-13
  19.390      4.42540E-13
  19.840      7.67540E-13
  20.180      1.14330E-12
  20.500      1.64960E-12
  21.050      3.01530E-12
  21.620      5.43080E-12
  21.980      7.82550E-12
  22.300      1.06570E-11
  22.680      1.51750E-11
  23.000      8.66290E-09
  23.400      3.75910E-08
  24.000      6.04820E-08
  24.650      1.14530E-07
  25.240      4.69560E-07
  25.680      7.45880E-07
  26.000      1.29790E-06
  26.400      7.13120E-06
  26.850      1.12090E-05
  27.350      1.45270E-05
  27.850      9.15670E-06
  28.400      2.44660E-05
  29.000      3.64510E-05
  29.600      2.47400E-05
  30.100      9.75010E-06
  30.800      3.38540E-05
  31.800      1.63600E-05
  32.800      2.74830E-05
  33.800      2.16810E-05
  34.800      2.57470E-05
  35.700      6.83980E-05
  36.600      1.38010E-04
  37.500      1.84360E-04
  38.500      1.99020E-04
  39.500      2.99190E-04
  40.500      4.31250E-04
  41.400      4.38400E-04
  42.200      4.30800E-04
  43.000      4.11210E-04
  44.100      4.84000E-04
  45.100      5.30530E-04
  46.000      4.71920E-04
  47.000      5.13240E-04
  48.000      5.86420E-04
  49.000      4.65850E-04
  50.000      6.53090E-04
  50.600      5.42700E-04
  51.200      9.68420E-04
  52.000      9.19380E-04
  53.000      8.65760E-04
  54.000      7.99040E-04
  55.000      7.19390E-04
  56.000      9.65740E-04
  57.000      1.11550E-03
  58.000      1.10750E-03
  59.000      1.15390E-03
  60.000      9.89180E-04
  61.000      9.72690E-04
  62.000      1.24170E-03
  63.000      1.20310E-03
  64.000      1.33240E-03
  65.000      1.28190E-03
  65.800      1.14110E-03
  66.500      1.33940E-03
  67.500      1.43400E-03
  68.500      1.31000E-03
  69.500      1.45920E-03
  70.500      1.25980E-03
  71.600      1.53220E-03
  72.600      1.57000E-03
  73.500      1.59940E-03
  74.500      1.54890E-03
  75.500      1.54860E-03
  76.500      1.51060E-03
  77.500      1.60280E-03
  78.500      1.48610E-03
  79.500      1.62240E-03
  80.500      1.64360E-03
  81.500      1.67470E-03
  82.500      1.71370E-03
  83.500      1.53030E-03
  84.500      1.72060E-03
  85.500      1.68880E-03
  86.500      1.76750E-03
  87.500      1.79010E-03
  88.500      1.78570E-03
  89.500      1.80190E-03
  90.500      1.78140E-03
  91.500      1.44960E-03
  92.500      2.54460E-03
  93.500      3.37110E-03
  94.500      3.97190E-03
  95.500      4.49760E-03
  96.500      4.95290E-03
  97.500      3.80300E-03
  98.500      4.65220E-03
  99.500      4.32080E-03
  100.50      4.43000E-03
  101.50      4.59520E-03
  102.50      4.02550E-03
  103.50      4.71020E-03
  104.50      4.87150E-03
  105.50      4.83700E-03
  106.50      4.61390E-03
  107.50      4.72270E-03
  108.50      4.47090E-03
  109.50      4.70700E-03
  110.50      4.62080E-03
  111.50      4.59540E-03
  112.50      4.40780E-03
  113.50      4.59810E-03
  114.50      4.59040E-03
  115.50      4.41350E-03
  116.50      4.34660E-03
  117.50      3.91140E-03
  118.50      4.23340E-03
  119.50      4.15350E-03
  120.50      4.13210E-03
  121.50      3.50190E-03
  122.50      4.06850E-03
  123.50      4.09200E-03
  124.50      4.04490E-03
  125.50      4.10700E-03
  126.50      4.12070E-03
  127.50      4.14330E-03
  128.50      4.14080E-03
  129.50      4.09610E-03
  130.50      4.03930E-03
  131.50      4.06680E-03
  132.50      4.02670E-03
  133.50      4.01100E-03
  134.50      3.98930E-03
  135.50      3.91010E-03
  136.50      3.82540E-03
  137.50      3.75030E-03
  138.50      3.77890E-03
  139.50      3.63130E-03
  140.50      3.53230E-03
  141.50      3.76870E-03
  142.50      3.60110E-03
  143.50      3.70490E-03
  144.20      3.63230E-03
  144.70      3.63290E-03
  145.50      3.56900E-03
  146.50      3.57840E-03
  147.50      3.56800E-03
  148.50      3.60460E-03
  149.50      3.55240E-03
  150.50      3.56540E-03
  151.20      3.57060E-03
  151.70      3.51890E-03
  152.50      3.50700E-03
  153.50      3.33710E-03
  154.50      3.00820E-03
  155.50      3.05470E-03
  156.50      3.22310E-03
  157.50      3.29210E-03
  158.50      3.26080E-03
  159.50      3.27260E-03
  160.50      3.16890E-03
  161.50      3.12040E-03
  162.50      3.12420E-03
  163.50      3.11340E-03
  164.50      3.01860E-03
  165.50      3.16610E-03
  166.50      3.12780E-03
  167.20      3.03140E-03
  167.70      3.19510E-03
  168.50      3.16370E-03
  169.50      3.14990E-03
  170.50      3.10270E-03
  171.50      3.02630E-03
  172.50      3.01030E-03
  173.50      3.08060E-03
  174.50      3.06110E-03
  175.50      3.02550E-03
  176.50      3.00970E-03
  177.50      2.99530E-03
  178.50      3.00210E-03
  179.50      2.95680E-03
  180.50      2.94710E-03
  181.50      2.92880E-03
  182.50      2.90450E-03
  183.50      2.90290E-03
  184.50      2.88370E-03
  185.50      2.86290E-03
  186.50      2.84860E-03
  187.50      2.81250E-03
  188.50      2.79560E-03
  189.50      2.80880E-03
  190.50      2.79540E-03
  191.50      2.77360E-03
  192.50      2.70250E-03
  193.50      2.74630E-03
  194.50      2.73260E-03
  195.50      2.68970E-03
  196.70      2.68830E-03
  197.60      2.67060E-03
  198.40      2.66470E-03
  199.50      2.64330E-03
  200.50      2.63440E-03
  201.50      2.61750E-03
  202.50      2.60060E-03
  203.50      2.58160E-03
  204.50      2.55570E-03
  205.50      1.94410E-03
  206.50      1.88320E-03
  207.40      1.94190E-03
  207.80      1.99640E-03
  208.50      2.15770E-03
  209.50      2.40350E-03
  210.50      2.45800E-03
  211.50      2.46430E-03
  212.50      2.43460E-03
  213.50      2.43250E-03
  214.50      2.42040E-03
  215.50      2.44130E-03
  216.50      2.33420E-03
  217.50      2.42780E-03
  218.50      2.33730E-03
  219.50      2.40560E-03
  220.50      2.39080E-03
  221.50      2.29280E-03
  222.50      2.36100E-03
  223.50      2.34930E-03
  224.50      2.33250E-03
  225.50      2.24690E-03
  226.50      2.30390E-03
  227.50      2.29560E-03
  228.50      2.26580E-03
  229.50      2.22540E-03
  230.50      2.18080E-03
  231.50      2.22250E-03
  232.50      2.22210E-03
  233.50      2.21130E-03
  234.50      2.19390E-03
  235.50      2.17850E-03
  236.50      2.16370E-03
  237.50      2.14290E-03
  238.50      2.05250E-03
  239.50      2.10370E-03
  240.50      2.10470E-03
  241.50      2.08780E-03
  242.50      2.08990E-03
  243.50      2.07230E-03
  244.50      2.06230E-03
  245.50      2.04030E-03
  246.50      2.03810E-03
  247.50      2.03150E-03
  248.50      2.01130E-03
  249.50      1.81290E-03
  250.50      1.97830E-03
  251.30      1.85480E-03
  251.80      1.93900E-03
  252.50      1.95930E-03
  253.50      1.95930E-03
  254.50      1.94840E-03
  255.50      1.93560E-03
  256.50      1.92570E-03
  257.50      1.91530E-03
  258.50      1.90520E-03
  259.50      1.87420E-03
  260.50      1.88310E-03
  261.50      1.86220E-03
  262.50      1.86290E-03
  263.50      1.85410E-03
  264.50      1.83900E-03
  265.50      1.83340E-03
  266.50      1.82050E-03
  267.50      1.79670E-03
  268.50      1.79670E-03
  269.50      1.78760E-03
  270.50      1.78440E-03
  271.50      1.77250E-03
  272.50      1.76100E-03
  273.50      1.70380E-03
  274.50      1.74550E-03
  275.50      1.73370E-03
  276.50      1.72430E-03
  277.50      1.71460E-03
  278.50      1.69970E-03
  279.50      1.68450E-03
  280.50      1.68520E-03
  281.50      1.67720E-03
  282.50      1.66550E-03
  283.50      1.65930E-03
  284.50      1.65350E-03
  285.50      1.64430E-03
  286.50      1.63420E-03
  287.50      1.62530E-03
  288.50      1.61790E-03
  289.50      1.60780E-03
  291.00      1.59430E-03
  293.00      1.58000E-03
  295.00      1.56270E-03
  297.00      1.54420E-03
  299.00      1.52340E-03
  301.00      1.50880E-03
  303.00      1.48620E-03
  305.00      1.47700E-03
  307.00      1.46180E-03
  309.00      1.45070E-03
  311.00      1.43690E-03
  313.00      1.42140E-03
  315.00      1.41080E-03
  317.00      1.39580E-03
  319.00      1.38260E-03
  321.00      1.34800E-03
  323.00      1.35760E-03
  325.00      1.34520E-03
  327.00      1.32170E-03
  329.00      1.31660E-03
  331.00      1.30350E-03
  333.00      1.29070E-03
  335.00      1.27340E-03
  337.00      1.26650E-03
  339.00      1.25470E-03
  341.00      1.24230E-03
  343.00      1.23420E-03
  345.00      1.21720E-03
  347.00      1.21150E-03
  349.00      1.20110E-03
  351.00      1.19080E-03
  353.00      1.17830E-03
  355.00      1.16760E-03
  357.00      1.15830E-03
  359.00      1.14730E-03
  361.00      1.13680E-03
  363.00      1.12550E-03
  364.00      1.10050E-03
  365.00      1.00500E-03
  367.00      9.97830E-04
  369.00      9.92310E-04
  371.00      9.89990E-04
  373.00      9.99770E-04
  375.00      1.01470E-03
  377.00      1.02410E-03
  379.00      1.04450E-03
  381.00      1.06080E-03
  383.00      1.01260E-03
  385.00      1.05990E-03
  387.00      1.05810E-03
  389.00      9.79580E-04
  391.00      1.05040E-03
  393.00      1.03330E-03
  395.00      1.02930E-03
  397.00      9.41860E-04
  399.00      1.01590E-03
  401.00      1.00940E-03
  403.00      9.83080E-04
  405.00      9.96260E-04
  407.00      9.83750E-04
  409.00      9.52410E-04
  411.00      9.03160E-04
  413.00      9.59750E-04
  415.00      9.53530E-04
  417.00      9.48250E-04
  419.00      9.36370E-04
  421.00      9.19010E-04
  423.00      9.26030E-04
  425.00      9.17910E-04
  427.00      9.10630E-04
  429.00      9.03360E-04
  431.00      8.94330E-04
  433.00      8.62470E-04
  435.00      8.28970E-04
  437.00      8.73420E-04
  439.00      8.63700E-04
  441.00      8.59370E-04
  443.00      8.54340E-04
  445.00      8.47510E-04
  447.00      8.34150E-04
  449.00      8.34770E-04
  451.00      8.27410E-04
  453.00      8.20690E-04
  455.00      8.02000E-04
  457.00      8.10060E-04
  459.00      8.03440E-04
  461.00      7.97510E-04
  463.00      7.88590E-04
  465.00      7.74520E-04
  467.00      7.78510E-04
  469.00      7.48910E-04
  471.00      7.66790E-04
  473.00      7.64410E-04
  475.00      7.58760E-04
  477.00      7.53180E-04
  479.00      7.47650E-04
  481.00      7.42140E-04
  483.00      7.36200E-04
  485.00      7.16000E-04
  487.00      6.78250E-04
  489.00      7.19520E-04
  491.00      7.15570E-04
  493.00      7.07380E-04
  495.00      7.05540E-04
  497.00      7.01050E-04
  499.00      6.96230E-04
  501.00      6.88880E-04
  503.00      6.85920E-04
  505.00      6.80960E-04
  507.00      6.76970E-04
  509.00      6.72350E-04
  511.00      6.67760E-04
  513.00      6.63120E-04
  515.00      6.58600E-04
  517.00      6.54100E-04
  519.00      6.49680E-04
  521.00      6.45300E-04
  523.00      6.41000E-04
  525.00      6.36370E-04
  527.00      6.31610E-04
  529.00      6.28210E-04
  531.00      6.24000E-04
  533.00      6.19840E-04
  535.00      6.15810E-04
  537.00      6.11740E-04
  539.00      6.07690E-04
  541.00      5.92920E-04
  543.00      5.99770E-04
  545.00      5.95930E-04
  547.00      5.92010E-04
  549.00      5.88230E-04
  551.00      5.83960E-04
  553.00      5.80690E-04
  555.00      5.76990E-04
  557.00      5.73180E-04
  559.00      5.68190E-04
  561.00      5.66050E-04
  563.00      5.62480E-04
  565.00      5.58930E-04
  567.00      5.55420E-04
  569.00      5.44510E-04
  571.00      5.13280E-04
  573.00      5.10330E-04
  575.00      5.07380E-04
  577.00      5.04620E-04
  579.00      5.02060E-04
  581.00      4.98780E-04
  583.00      4.98310E-04
  585.00      4.97640E-04
  587.00      4.93140E-04
  589.00      4.96700E-04
  591.00      4.96750E-04
  593.00      4.97130E-04
  595.00      4.97980E-04
  597.00      4.98810E-04
  599.00      4.99930E-04
  601.00      4.98710E-04
  603.00      4.96620E-04
  605.00      4.95130E-04
  607.00      4.91730E-04
  609.00      4.89600E-04
  611.00      4.86130E-04
  613.00      4.83410E-04
  615.00      4.81240E-04
  617.00      4.76750E-04
  619.00      4.75660E-04
  621.00      4.72980E-04
  623.00      4.68300E-04
  625.00      4.67070E-04
  627.00      4.64820E-04
  629.00      4.62170E-04
  631.00      4.56740E-04
  633.00      4.56720E-04
  635.00      4.54260E-04
  637.00      4.51720E-04
  639.00      4.48980E-04
  641.00      4.43180E-04
  643.00      4.44110E-04
  645.00      4.41540E-04
  647.00      4.39040E-04
  649.00      4.36660E-04
  651.00      4.33870E-04
  653.00      4.27190E-04
  655.00      4.23940E-04
  657.00      3.97720E-04
  659.00      4.23880E-04
  661.00      4.22410E-04
  663.00      4.20100E-04
  665.00      4.17800E-04
  667.00      4.13300E-04
  669.00      4.07240E-04
  671.00      4.10520E-04
  673.00      4.08680E-04
  675.00      4.06480E-04
  677.00      4.04400E-04
  679.00      4.02280E-04
  681.00      4.00130E-04
  683.00      3.97990E-04
  685.00      3.95860E-04
  687.00      3.93740E-04
  689.00      3.86480E-04
  691.00      3.89410E-04
  693.00      3.87580E-04
  695.00      3.85540E-04
  697.00      3.83530E-04
  699.00      3.81520E-04
  701.00      3.79390E-04
  703.00      3.77330E-04
  705.00      3.75400E-04
  707.00      3.71660E-04
  709.00      3.71740E-04
  711.00      3.69800E-04
  713.00      3.67900E-04
  715.00      3.66050E-04
  717.00      3.60730E-04
  719.00      3.60430E-04
  721.00      3.60480E-04
  723.00      3.58650E-04
  725.00      3.56840E-04
  727.00      3.55050E-04
  729.00      3.52590E-04
  731.00      3.51330E-04
  733.00      3.49730E-04
  735.00      3.47990E-04
  737.00      3.46180E-04
  739.00      3.44530E-04
  741.00      3.42740E-04
  743.00      3.41140E-04
  745.00      3.39240E-04
  747.00      3.37780E-04
  749.00      3.35890E-04
  751.00      3.34390E-04
  753.00      3.32850E-04
  755.00      3.31220E-04
  757.00      3.29590E-04
  759.00      3.23120E-04
  761.00      3.26090E-04
  763.00      3.24820E-04
  765.00      3.23240E-04
  767.00      3.21740E-04
  769.00      3.19880E-04
  771.00      3.18560E-04
  773.00      3.16750E-04
  775.00      3.15630E-04
  777.00      3.14140E-04
  779.00      3.12650E-04
  781.00      3.11170E-04
  783.00      3.09700E-04
  785.00      3.08080E-04
  787.00      3.06700E-04
  789.00      3.05330E-04
  791.00      3.03970E-04
  793.00      3.02560E-04
  795.00      3.01160E-04
  797.00      2.99570E-04
  799.00      2.98370E-04
  801.00      2.96990E-04
  803.00      2.95570E-04
  805.00      2.94270E-04
  807.00      2.92920E-04
  809.00      2.91580E-04
  811.00      2.90240E-04
  813.00      2.88930E-04
  815.00      2.87610E-04
  817.00      2.86130E-04
  819.00      2.83800E-04
  821.00      2.72540E-04
  823.00      2.69680E-04
  825.00      2.69910E-04
  827.00      2.69010E-04
  829.00      2.67970E-04
  831.00      2.66850E-04
  833.00      2.65530E-04
  835.00      2.64460E-04
  837.00      2.63490E-04
  839.00      2.62500E-04
  841.00      2.61550E-04
  843.00      2.60620E-04
  845.00      2.59570E-04
  847.00      2.58810E-04
  849.00      2.58060E-04
  851.00      2.57080E-04
  853.00      2.56580E-04
  855.00      2.55490E-04
  857.00      2.55350E-04
  859.00      2.53820E-04
  861.00      2.53290E-04
  863.00      2.53720E-04
  865.00      2.52420E-04
  867.00      2.49590E-04
  869.00      2.51950E-04
  871.00      2.51930E-04
  873.00      2.50530E-04
  875.00      2.44880E-04
  877.00      2.48520E-04
  879.00      2.49970E-04
  881.00      2.49600E-04
  883.00      2.48720E-04
  885.00      2.43910E-04
  887.00      2.37510E-04
  889.00      2.44970E-04
  891.00      2.45310E-04
  893.00      2.44310E-04
  895.00      2.43740E-04
  897.00      2.42510E-04
  899.00      2.40020E-04
  901.00      2.29590E-04
  903.00      2.33370E-04
  905.00      2.37920E-04
  907.00      2.37420E-04
  909.00      2.36900E-04
  911.00      2.35540E-04
  913.00      2.35170E-04
  915.00      2.34260E-04
  917.00      2.33080E-04
  919.00      2.31640E-04
  921.00      2.27910E-04
  923.00      2.15850E-04
  925.00      2.25650E-04
  927.00      2.27790E-04
  929.00      2.27570E-04
  931.00      2.26590E-04
  933.00      2.25600E-04
  935.00      2.20240E-04
  937.00      2.22970E-04
  939.00      2.23040E-04
  941.00      2.22170E-04
  943.00      2.21310E-04
  945.00      2.20460E-04
  947.00      2.19400E-04
  949.00      2.18640E-04
  951.00      2.16670E-04
  953.00      2.12740E-04
  955.00      2.01330E-04
  957.00      2.12510E-04
  959.00      2.13880E-04
  961.00      2.13470E-04
  963.00      2.12540E-04
  965.00      2.11950E-04
  967.00      2.11120E-04
  969.00      2.10300E-04
  971.00      2.08750E-04
  973.00      2.08590E-04
  975.00      2.07620E-04
  977.00      2.05800E-04
  979.00      2.06270E-04
  981.00      2.05480E-04
  983.00      2.04630E-04
  985.00      2.03900E-04
  987.00      2.03130E-04
  989.00      2.02340E-04
  991.00      2.01550E-04
  993.00      2.00810E-04
  995.00      2.00050E-04
  997.00      1.99300E-04
  999.00      1.98540E-04
  1002.5      1.93630E-04
  1007.5      1.90170E-04
  1012.5      1.90400E-04
  1017.5      1.91770E-04
  1022.5      1.89990E-04
  1027.5      1.88210E-04
  1032.5      1.86280E-04
  1037.5      1.84820E-04
  1042.5      1.82280E-04
  1047.5      1.81510E-04
  1052.5      1.79870E-04
  1057.5      1.78260E-04
  1062.5      1.76680E-04
  1067.5      1.75070E-04
  1072.5      1.73560E-04
  1077.5      1.72040E-04
  1082.5      1.69890E-04
  1087.5      1.68920E-04
  1092.5      1.61130E-04
  1097.5      1.64630E-04
  1102.5      1.64590E-04
  1107.5      1.63290E-04
  1112.5      1.61900E-04
  1117.5      1.60610E-04
  1122.5      1.59230E-04
  1127.5      1.57890E-04
  1132.5      1.56560E-04
  1137.5      1.55260E-04
  1142.5      1.53980E-04
  1147.5      1.52700E-04
  1152.5      1.51440E-04
  1157.5      1.50200E-04
  1162.5      1.47520E-04
  1167.5      1.46750E-04
  1172.5      1.46550E-04
  1177.5      1.45370E-04
  1182.5      1.44180E-04
  1187.5      1.43030E-04
  1192.5      1.41890E-04
  1197.5      1.40400E-04
  1202.5      1.39650E-04
  1207.5      1.38540E-04
  1212.5      1.37430E-04
  1217.5      1.36380E-04
  1222.5      1.35310E-04
  1227.5      1.34260E-04
  1232.5      1.33220E-04
  1237.5      1.32190E-04
  1242.5      1.31180E-04
  1247.5      1.30170E-04
  1252.5      1.29130E-04
  1257.5      1.28190E-04
  1262.5      1.27220E-04
  1267.5      1.26260E-04
  1272.5      1.25310E-04
  1277.5      1.23580E-04
  1282.5      1.18310E-04
  1287.5      1.22270E-04
  1292.5      1.21620E-04
  1297.5      1.20590E-04
  1302.5      1.19830E-04
  1307.5      1.18960E-04
  1312.5      1.18090E-04
  1317.5      1.17230E-04
  1322.5      1.16380E-04
  1327.5      1.15540E-04
  1332.5      1.14700E-04
  1337.5      1.13880E-04
  1342.5      1.13050E-04
  1347.5      1.12260E-04
  1352.5      1.11460E-04
  1357.5      1.10670E-04
  1362.5      1.09890E-04
  1367.5      1.09120E-04
  1372.5      1.08350E-04
  1377.5      1.07600E-04
  1382.5      1.06850E-04
  1387.5      1.06110E-04
  1392.5      1.05380E-04
  1397.5      1.04650E-04
