 Castelli and Kurucz 2004-2012 Atmosphere
 T     37000.     G    4.50000 [-0.5a] N(He)/Ntot=0.0784 VTURB=2.0  L/H=1.25 OD
 Wavelength  Eddington Hnu
   (nm)    (ergs/s/cm2/Hz/sr)
  9.0900      1.70940E-27
  9.3500      7.35990E-27
  9.6100      2.93140E-26
  9.7700      6.68310E-26
  9.9600      1.71350E-25
  10.200      5.37250E-25
  10.380      1.22750E-24
  10.560      2.73190E-24
  10.770      6.73360E-24
  11.040      2.04990E-23
  11.400      8.38230E-23
  11.780      3.40780E-22
  12.130      1.15510E-21
  12.480      3.67500E-21
  12.710      7.61760E-21
  12.840      1.13800E-20
  13.050      2.14240E-20
  13.240      3.73870E-20
  13.390      5.74650E-20
  13.660      1.21850E-19
  13.980      2.87940E-19
  14.330      7.07840E-19
  14.720      1.82950E-18
  15.100      4.48580E-18
  15.520      1.14430E-17
  15.880      2.46480E-17
  16.200      4.74080E-17
  16.600      1.04590E-16
  17.030      2.34720E-16
  17.340      4.11750E-16
  17.680      7.48000E-16
  18.020      1.32720E-15
  18.170      1.70080E-15
  18.610      3.43980E-15
  19.100      7.26460E-15
  19.390      1.11190E-14
  19.840      2.10390E-14
  20.180      3.34030E-14
  20.500      5.09510E-14
  21.050      1.02300E-13
  21.620      2.02320E-13
  21.980      3.07810E-13
  22.300      4.40380E-13
  22.680      6.63460E-13
  23.000      5.89150E-10
  23.400      2.13000E-09
  24.000      3.32140E-09
  24.650      5.33600E-09
  25.240      9.52930E-09
  25.680      1.13970E-08
  26.000      1.78930E-08
  26.400      3.93780E-08
  26.850      6.30740E-08
  27.350      7.97680E-08
  27.850      7.49880E-08
  28.400      1.72430E-07
  29.000      2.35000E-07
  29.600      2.27080E-07
  30.100      2.78360E-07
  30.800      1.15280E-06
  31.800      1.51830E-06
  32.800      2.38480E-06
  33.800      3.16630E-06
  34.800      4.30320E-06
  35.700      8.80100E-06
  36.600      1.70890E-05
  37.500      2.05380E-05
  38.500      2.41980E-05
  39.500      3.58020E-05
  40.500      4.60380E-05
  41.400      4.92400E-05
  42.200      5.01610E-05
  43.000      4.95020E-05
  44.100      5.73810E-05
  45.100      6.34930E-05
  46.000      6.09820E-05
  47.000      6.60560E-05
  48.000      7.49880E-05
  49.000      6.94670E-05
  50.000      8.72410E-05
  50.600      1.09330E-04
  51.200      3.72360E-04
  52.000      3.52390E-04
  53.000      3.28640E-04
  54.000      3.14790E-04
  55.000      3.18700E-04
  56.000      4.21340E-04
  57.000      4.64590E-04
  58.000      4.53010E-04
  59.000      4.80060E-04
  60.000      4.01720E-04
  61.000      4.52150E-04
  62.000      5.55970E-04
  63.000      5.52060E-04
  64.000      5.90000E-04
  65.000      5.78320E-04
  65.800      5.04160E-04
  66.500      5.91930E-04
  67.500      6.59280E-04
  68.500      5.82180E-04
  69.500      6.78010E-04
  70.500      5.72350E-04
  71.600      7.33840E-04
  72.600      7.44850E-04
  73.500      7.68710E-04
  74.500      7.34800E-04
  75.500      7.44470E-04
  76.500      7.55090E-04
  77.500      7.90500E-04
  78.500      7.79660E-04
  79.500      8.22400E-04
  80.500      8.19020E-04
  81.500      8.38790E-04
  82.500      8.73050E-04
  83.500      7.62700E-04
  84.500      8.82800E-04
  85.500      8.82350E-04
  86.500      9.19010E-04
  87.500      9.31570E-04
  88.500      9.41260E-04
  89.500      9.54550E-04
  90.500      9.47180E-04
  91.500      8.55530E-04
  92.500      1.72450E-03
  93.500      2.45480E-03
  94.500      3.11280E-03
  95.500      3.50490E-03
  96.500      4.01400E-03
  97.500      2.70760E-03
  98.500      3.73260E-03
  99.500      3.44850E-03
  100.50      3.54240E-03
  101.50      3.69710E-03
  102.50      3.04310E-03
  103.50      3.74820E-03
  104.50      3.98650E-03
  105.50      3.94470E-03
  106.50      3.70380E-03
  107.50      3.78800E-03
  108.50      3.57320E-03
  109.50      3.81270E-03
  110.50      3.71460E-03
  111.50      3.70300E-03
  112.50      3.40450E-03
  113.50      3.69230E-03
  114.50      3.64810E-03
  115.50      3.50130E-03
  116.50      3.48140E-03
  117.50      2.91860E-03
  118.50      3.33180E-03
  119.50      3.28360E-03
  120.50      3.23720E-03
  121.50      2.62910E-03
  122.50      3.19100E-03
  123.50      3.31790E-03
  124.50      3.27950E-03
  125.50      3.30680E-03
  126.50      3.34680E-03
  127.50      3.38540E-03
  128.50      3.39510E-03
  129.50      3.29800E-03
  130.50      3.29010E-03
  131.50      3.36190E-03
  132.50      3.31550E-03
  133.50      3.28480E-03
  134.50      3.28650E-03
  135.50      3.23810E-03
  136.50      3.18000E-03
  137.50      3.13930E-03
  138.50      3.12560E-03
  139.50      2.86950E-03
  140.50      2.84230E-03
  141.50      3.08740E-03
  142.50      2.90390E-03
  143.50      3.02270E-03
  144.20      3.00100E-03
  144.70      2.99510E-03
  145.50      2.92480E-03
  146.50      2.93190E-03
  147.50      2.92180E-03
  148.50      2.95250E-03
  149.50      2.90200E-03
  150.50      2.91090E-03
  151.20      2.91440E-03
  151.70      2.89210E-03
  152.50      2.85500E-03
  153.50      2.67210E-03
  154.50      2.40190E-03
  155.50      2.43700E-03
  156.50      2.57810E-03
  157.50      2.65820E-03
  158.50      2.65800E-03
  159.50      2.66810E-03
  160.50      2.55720E-03
  161.50      2.50420E-03
  162.50      2.52750E-03
  163.50      2.52650E-03
  164.50      2.47380E-03
  165.50      2.58730E-03
  166.50      2.54860E-03
  167.20      2.44840E-03
  167.70      2.64770E-03
  168.50      2.60140E-03
  169.50      2.57830E-03
  170.50      2.54670E-03
  171.50      2.49410E-03
  172.50      2.45690E-03
  173.50      2.53120E-03
  174.50      2.52020E-03
  175.50      2.48670E-03
  176.50      2.48070E-03
  177.50      2.46280E-03
  178.50      2.47520E-03
  179.50      2.43690E-03
  180.50      2.43770E-03
  181.50      2.42000E-03
  182.50      2.39760E-03
  183.50      2.40910E-03
  184.50      2.37970E-03
  185.50      2.36880E-03
  186.50      2.35980E-03
  187.50      2.32730E-03
  188.50      2.30780E-03
  189.50      2.31790E-03
  190.50      2.32340E-03
  191.50      2.29900E-03
  192.50      2.22740E-03
  193.50      2.28220E-03
  194.50      2.28040E-03
  195.50      2.21670E-03
  196.70      2.24020E-03
  197.60      2.23690E-03
  198.40      2.22360E-03
  199.50      2.19870E-03
  200.50      2.20880E-03
  201.50      2.19690E-03
  202.50      2.18220E-03
  203.50      2.16510E-03
  204.50      2.14660E-03
  205.50      1.67640E-03
  206.50      1.62230E-03
  207.40      1.66960E-03
  207.80      1.70120E-03
  208.50      1.81950E-03
  209.50      2.00600E-03
  210.50      2.06370E-03
  211.50      2.07490E-03
  212.50      2.04480E-03
  213.50      2.04750E-03
  214.50      2.03780E-03
  215.50      2.05200E-03
  216.50      1.97100E-03
  217.50      2.03990E-03
  218.50      1.97140E-03
  219.50      2.02350E-03
  220.50      2.01180E-03
  221.50      1.93510E-03
  222.50      1.98580E-03
  223.50      1.97640E-03
  224.50      1.96100E-03
  225.50      1.89460E-03
  226.50      1.93970E-03
  227.50      1.93170E-03
  228.50      1.90420E-03
  229.50      1.84580E-03
  230.50      1.83840E-03
  231.50      1.87100E-03
  232.50      1.87020E-03
  233.50      1.86130E-03
  234.50      1.84800E-03
  235.50      1.83430E-03
  236.50      1.82220E-03
  237.50      1.80490E-03
  238.50      1.73230E-03
  239.50      1.77010E-03
  240.50      1.77630E-03
  241.50      1.76280E-03
  242.50      1.76110E-03
  243.50      1.74640E-03
  244.50      1.73850E-03
  245.50      1.72280E-03
  246.50      1.71950E-03
  247.50      1.71130E-03
  248.50      1.69130E-03
  249.50      1.45270E-03
  250.50      1.65900E-03
  251.30      1.57090E-03
  251.80      1.62750E-03
  252.50      1.65740E-03
  253.50      1.65410E-03
  254.50      1.64230E-03
  255.50      1.63190E-03
  256.50      1.62400E-03
  257.50      1.61690E-03
  258.50      1.60850E-03
  259.50      1.58800E-03
  260.50      1.59140E-03
  261.50      1.57680E-03
  262.50      1.57400E-03
  263.50      1.56670E-03
  264.50      1.55530E-03
  265.50      1.54910E-03
  266.50      1.53680E-03
  267.50      1.51730E-03
  268.50      1.51970E-03
  269.50      1.50990E-03
  270.50      1.50790E-03
  271.50      1.49740E-03
  272.50      1.48590E-03
  273.50      1.44510E-03
  274.50      1.47620E-03
  275.50      1.46660E-03
  276.50      1.45550E-03
  277.50      1.45210E-03
  278.50      1.44050E-03
  279.50      1.42000E-03
  280.50      1.42500E-03
  281.50      1.42040E-03
  282.50      1.40930E-03
  283.50      1.40350E-03
  284.50      1.40080E-03
  285.50      1.39220E-03
  286.50      1.38320E-03
  287.50      1.37650E-03
  288.50      1.37010E-03
  289.50      1.36160E-03
  291.00      1.34860E-03
  293.00      1.33840E-03
  295.00      1.32160E-03
  297.00      1.30860E-03
  299.00      1.29070E-03
  301.00      1.27730E-03
  303.00      1.25890E-03
  305.00      1.25200E-03
  307.00      1.24260E-03
  309.00      1.22870E-03
  311.00      1.21910E-03
  313.00      1.20550E-03
  315.00      1.19600E-03
  317.00      1.18400E-03
  319.00      1.17180E-03
  321.00      1.14790E-03
  323.00      1.15200E-03
  325.00      1.14250E-03
  327.00      1.12310E-03
  329.00      1.11840E-03
  331.00      1.10740E-03
  333.00      1.09620E-03
  335.00      1.08220E-03
  337.00      1.07580E-03
  339.00      1.06810E-03
  341.00      1.05780E-03
  343.00      1.04890E-03
  345.00      1.03450E-03
  347.00      1.02950E-03
  349.00      1.02110E-03
  351.00      1.01280E-03
  353.00      1.00330E-03
  355.00      9.93760E-04
  357.00      9.87090E-04
  359.00      9.75920E-04
  361.00      9.67820E-04
  363.00      9.57950E-04
  364.00      9.44440E-04
  365.00      8.81990E-04
  367.00      8.76220E-04
  369.00      8.69990E-04
  371.00      8.61210E-04
  373.00      8.63170E-04
  375.00      8.71190E-04
  377.00      8.71100E-04
  379.00      8.94730E-04
  381.00      9.14870E-04
  383.00      8.57970E-04
  385.00      9.20810E-04
  387.00      9.17620E-04
  389.00      8.31540E-04
  391.00      9.16640E-04
  393.00      9.03470E-04
  395.00      8.95450E-04
  397.00      7.99000E-04
  399.00      8.86140E-04
  401.00      8.79840E-04
  403.00      8.55320E-04
  405.00      8.71290E-04
  407.00      8.55100E-04
  409.00      8.22030E-04
  411.00      7.70980E-04
  413.00      8.35040E-04
  415.00      8.31000E-04
  417.00      8.29190E-04
  419.00      8.18810E-04
  421.00      8.06350E-04
  423.00      8.10360E-04
  425.00      8.01600E-04
  427.00      7.94590E-04
  429.00      7.88290E-04
  431.00      7.78800E-04
  433.00      7.45590E-04
  435.00      7.09040E-04
  437.00      7.62250E-04
  439.00      7.50960E-04
  441.00      7.50380E-04
  443.00      7.47170E-04
  445.00      7.41440E-04
  447.00      7.24020E-04
  449.00      7.30200E-04
  451.00      7.23490E-04
  453.00      7.18750E-04
  455.00      7.04190E-04
  457.00      7.09370E-04
  459.00      7.02590E-04
  461.00      6.97360E-04
  463.00      6.89190E-04
  465.00      6.71970E-04
  467.00      6.80350E-04
  469.00      6.59410E-04
  471.00      6.67690E-04
  473.00      6.69900E-04
  475.00      6.64820E-04
  477.00      6.60220E-04
  479.00      6.55490E-04
  481.00      6.50390E-04
  483.00      6.44300E-04
  485.00      6.21720E-04
  487.00      5.82300E-04
  489.00      6.29540E-04
  491.00      6.26720E-04
  493.00      6.16380E-04
  495.00      6.17460E-04
  497.00      6.14660E-04
  499.00      6.10400E-04
  501.00      6.01730E-04
  503.00      6.01000E-04
  505.00      5.96180E-04
  507.00      5.93600E-04
  509.00      5.89500E-04
  511.00      5.85480E-04
  513.00      5.81460E-04
  515.00      5.77450E-04
  517.00      5.73330E-04
  519.00      5.69610E-04
  521.00      5.65860E-04
  523.00      5.62120E-04
  525.00      5.57910E-04
  527.00      5.53840E-04
  529.00      5.50910E-04
  531.00      5.47230E-04
  533.00      5.43600E-04
  535.00      5.40070E-04
  537.00      5.36520E-04
  539.00      5.32930E-04
  541.00      5.21720E-04
  543.00      5.26050E-04
  545.00      5.22670E-04
  547.00      5.19250E-04
  549.00      5.15920E-04
  551.00      5.12290E-04
  553.00      5.09330E-04
  555.00      5.06100E-04
  557.00      5.02800E-04
  559.00      4.98500E-04
  561.00      4.96520E-04
  563.00      4.93390E-04
  565.00      4.90280E-04
  567.00      4.87150E-04
  569.00      4.78860E-04
  571.00      4.60690E-04
  573.00      4.58060E-04
  575.00      4.55270E-04
  577.00      4.52830E-04
  579.00      4.50280E-04
  581.00      4.47320E-04
  583.00      4.45630E-04
  585.00      4.44530E-04
  587.00      4.36890E-04
  589.00      4.41870E-04
  591.00      4.41140E-04
  593.00      4.40380E-04
  595.00      4.39810E-04
  597.00      4.39400E-04
  599.00      4.39040E-04
  601.00      4.37790E-04
  603.00      4.35770E-04
  605.00      4.34130E-04
  607.00      4.31670E-04
  609.00      4.29260E-04
  611.00      4.26480E-04
  613.00      4.24070E-04
  615.00      4.21600E-04
  617.00      4.18690E-04
  619.00      4.16860E-04
  621.00      4.14470E-04
  623.00      4.11350E-04
  625.00      4.09520E-04
  627.00      4.07320E-04
  629.00      4.05000E-04
  631.00      4.01590E-04
  633.00      4.00370E-04
  635.00      3.98040E-04
  637.00      3.95860E-04
  639.00      3.93600E-04
  641.00      3.89990E-04
  643.00      3.89210E-04
  645.00      3.86950E-04
  647.00      3.84720E-04
  649.00      3.82610E-04
  651.00      3.80270E-04
  653.00      3.75730E-04
  655.00      3.69730E-04
  657.00      3.42980E-04
  659.00      3.70800E-04
  661.00      3.70170E-04
  663.00      3.68180E-04
  665.00      3.66160E-04
  667.00      3.61410E-04
  669.00      3.57870E-04
  671.00      3.59660E-04
  673.00      3.58020E-04
  675.00      3.56210E-04
  677.00      3.54470E-04
  679.00      3.52590E-04
  681.00      3.50740E-04
  683.00      3.48850E-04
  685.00      3.46980E-04
  687.00      3.45100E-04
  689.00      3.40640E-04
  691.00      3.41230E-04
  693.00      3.39740E-04
  695.00      3.37960E-04
  697.00      3.36190E-04
  699.00      3.34430E-04
  701.00      3.32520E-04
  703.00      3.30670E-04
  705.00      3.29010E-04
  707.00      3.24480E-04
  709.00      3.25860E-04
  711.00      3.24140E-04
  713.00      3.22500E-04
  715.00      3.20880E-04
  717.00      3.17470E-04
  719.00      3.16680E-04
  721.00      3.16000E-04
  723.00      3.14260E-04
  725.00      3.12760E-04
  727.00      3.11240E-04
  729.00      3.08360E-04
  731.00      3.08010E-04
  733.00      3.06580E-04
  735.00      3.05040E-04
  737.00      3.03500E-04
  739.00      3.02030E-04
  741.00      3.00490E-04
  743.00      2.99050E-04
  745.00      2.97460E-04
  747.00      2.96050E-04
  749.00      2.94360E-04
  751.00      2.93140E-04
  753.00      2.91770E-04
  755.00      2.90370E-04
  757.00      2.88940E-04
  759.00      2.84870E-04
  761.00      2.85950E-04
  763.00      2.84750E-04
  765.00      2.83360E-04
  767.00      2.82060E-04
  769.00      2.80350E-04
  771.00      2.79270E-04
  773.00      2.77560E-04
  775.00      2.76700E-04
  777.00      2.75410E-04
  779.00      2.74100E-04
  781.00      2.72760E-04
  783.00      2.71520E-04
  785.00      2.70230E-04
  787.00      2.68880E-04
  789.00      2.67670E-04
  791.00      2.66550E-04
  793.00      2.65320E-04
  795.00      2.64090E-04
  797.00      2.62750E-04
  799.00      2.61620E-04
  801.00      2.60440E-04
  803.00      2.59170E-04
  805.00      2.58050E-04
  807.00      2.56870E-04
  809.00      2.55640E-04
  811.00      2.54330E-04
  813.00      2.53370E-04
  815.00      2.52100E-04
  817.00      2.50960E-04
  819.00      2.49170E-04
  821.00      2.42940E-04
  823.00      2.40740E-04
  825.00      2.40750E-04
  827.00      2.39610E-04
  829.00      2.38930E-04
  831.00      2.37970E-04
  833.00      2.36700E-04
  835.00      2.35430E-04
  837.00      2.34740E-04
  839.00      2.33910E-04
  841.00      2.32950E-04
  843.00      2.32000E-04
  845.00      2.30640E-04
  847.00      2.30180E-04
  849.00      2.29240E-04
  851.00      2.28130E-04
  853.00      2.27570E-04
  855.00      2.26400E-04
  857.00      2.26480E-04
  859.00      2.23940E-04
  861.00      2.23800E-04
  863.00      2.24710E-04
  865.00      2.22590E-04
  867.00      2.18960E-04
  869.00      2.22500E-04
  871.00      2.22690E-04
  873.00      2.20230E-04
  875.00      2.12980E-04
  877.00      2.17630E-04
  879.00      2.20270E-04
  881.00      2.19990E-04
  883.00      2.18740E-04
  885.00      2.12420E-04
  887.00      2.05440E-04
  889.00      2.15020E-04
  891.00      2.15960E-04
  893.00      2.15250E-04
  895.00      2.14480E-04
  897.00      2.13530E-04
  899.00      2.10390E-04
  901.00      1.98370E-04
  903.00      2.03040E-04
  905.00      2.09170E-04
  907.00      2.08390E-04
  909.00      2.08490E-04
  911.00      2.07940E-04
  913.00      2.07290E-04
  915.00      2.06490E-04
  917.00      2.05220E-04
  919.00      2.03860E-04
  921.00      1.98950E-04
  923.00      1.85860E-04
  925.00      1.97220E-04
  927.00      2.00420E-04
  929.00      2.00360E-04
  931.00      1.99420E-04
  933.00      1.98880E-04
  935.00      1.95350E-04
  937.00      1.97040E-04
  939.00      1.96630E-04
  941.00      1.95750E-04
  943.00      1.95020E-04
  945.00      1.94280E-04
  947.00      1.93040E-04
  949.00      1.92480E-04
  951.00      1.90150E-04
  953.00      1.85380E-04
  955.00      1.73380E-04
  957.00      1.86040E-04
  959.00      1.88170E-04
  961.00      1.87850E-04
  963.00      1.86990E-04
  965.00      1.86790E-04
  967.00      1.86070E-04
  969.00      1.85290E-04
  971.00      1.83330E-04
  973.00      1.83750E-04
  975.00      1.83160E-04
  977.00      1.82060E-04
  979.00      1.81770E-04
  981.00      1.81070E-04
  983.00      1.80360E-04
  985.00      1.79670E-04
  987.00      1.79010E-04
  989.00      1.78270E-04
  991.00      1.77540E-04
  993.00      1.76960E-04
  995.00      1.76290E-04
  997.00      1.75610E-04
  999.00      1.74820E-04
  1002.5      1.69260E-04
  1007.5      1.66040E-04
  1012.5      1.68340E-04
  1017.5      1.68990E-04
  1022.5      1.67380E-04
  1027.5      1.65860E-04
  1032.5      1.63960E-04
  1037.5      1.62860E-04
  1042.5      1.61090E-04
  1047.5      1.59930E-04
  1052.5      1.58490E-04
  1057.5      1.57070E-04
  1062.5      1.55670E-04
  1067.5      1.54180E-04
  1072.5      1.52920E-04
  1077.5      1.51580E-04
  1082.5      1.49330E-04
  1087.5      1.48700E-04
  1092.5      1.40140E-04
  1097.5      1.44360E-04
  1102.5      1.44770E-04
  1107.5      1.43820E-04
  1112.5      1.42620E-04
  1117.5      1.41450E-04
  1122.5      1.40210E-04
  1127.5      1.39050E-04
  1132.5      1.37870E-04
  1137.5      1.36720E-04
  1142.5      1.35600E-04
  1147.5      1.34470E-04
  1152.5      1.33370E-04
  1157.5      1.32270E-04
  1162.5      1.30400E-04
  1167.5      1.29660E-04
  1172.5      1.29060E-04
  1177.5      1.28010E-04
  1182.5      1.26950E-04
  1187.5      1.25950E-04
  1192.5      1.24940E-04
  1197.5      1.23230E-04
  1202.5      1.22970E-04
  1207.5      1.21980E-04
  1212.5      1.21000E-04
  1217.5      1.20080E-04
  1222.5      1.19150E-04
  1227.5      1.18220E-04
  1232.5      1.17300E-04
  1237.5      1.16390E-04
  1242.5      1.15500E-04
  1247.5      1.14610E-04
  1252.5      1.13620E-04
  1257.5      1.12860E-04
  1262.5      1.12010E-04
  1267.5      1.11170E-04
  1272.5      1.10320E-04
  1277.5      1.08310E-04
  1282.5      1.03000E-04
  1287.5      1.07480E-04
  1292.5      1.07080E-04
  1297.5      1.05950E-04
  1302.5      1.05490E-04
  1307.5      1.04730E-04
  1312.5      1.03970E-04
  1317.5      1.03210E-04
  1322.5      1.02460E-04
  1327.5      1.01720E-04
  1332.5      1.00990E-04
  1337.5      1.00260E-04
  1342.5      9.95070E-05
  1347.5      9.88330E-05
  1352.5      9.81260E-05
  1357.5      9.74410E-05
  1362.5      9.67440E-05
  1367.5      9.60740E-05
  1372.5      9.53790E-05
  1377.5      9.47350E-05
  1382.5      9.40770E-05
  1387.5      9.34240E-05
  1392.5      9.27700E-05
  1397.5      9.21400E-05
