 Castelli and Kurucz 2004-2012 Atmosphere
 T     45000.     G    4.50000 [-0.5a] N(He)/Ntot=0.0784 VTURB=2.0  L/H=1.25 OD
 Wavelength  Eddington Hnu
   (nm)    (ergs/s/cm2/Hz/sr)
  9.0900      5.14920E-21
  9.3500      1.54830E-20
  9.6100      4.31860E-20
  9.7700      8.10710E-20
  9.9600      1.64000E-19
  10.200      3.85110E-19
  10.380      7.13080E-19
  10.560      1.29370E-18
  10.770      2.52980E-18
  11.040      5.77690E-18
  11.400      1.63770E-17
  11.780      4.59640E-17
  12.130      1.13150E-16
  12.480      2.64320E-16
  12.710      4.50970E-16
  12.840      6.09050E-16
  13.050      9.65390E-16
  13.240      1.44600E-15
  13.390      1.98160E-15
  13.660      3.40440E-15
  13.980      6.40980E-15
  14.330      1.22310E-14
  14.720      2.36510E-14
  15.100      4.65390E-14
  15.520      9.15290E-14
  15.880      1.59930E-13
  16.200      2.72020E-13
  16.600      4.85280E-13
  17.030      8.53590E-13
  17.340      1.27120E-12
  17.680      1.98540E-12
  18.020      3.01020E-12
  18.170      3.53710E-12
  18.610      5.99250E-12
  19.100      1.01750E-11
  19.390      1.40500E-11
  19.840      2.21840E-11
  20.180      3.07160E-11
  20.500      4.19860E-11
  21.050      6.92840E-11
  21.620      1.12470E-10
  21.980      1.53500E-10
  22.300      1.97240E-10
  22.680      2.62690E-10
  23.000      6.41570E-08
  23.400      3.51100E-07
  24.000      6.81000E-07
  24.650      2.87350E-06
  25.240      1.77340E-05
  25.680      2.98270E-05
  26.000      3.23420E-05
  26.400      9.13240E-05
  26.850      1.19030E-04
  27.350      1.45650E-04
  27.850      1.05300E-04
  28.400      2.03470E-04
  29.000      2.88410E-04
  29.600      2.36510E-04
  30.100      1.07590E-04
  30.800      1.75290E-04
  31.800      6.20810E-05
  32.800      8.86050E-05
  33.800      5.80310E-05
  34.800      6.47330E-05
  35.700      1.79200E-04
  36.600      3.62560E-04
  37.500      4.85060E-04
  38.500      4.84830E-04
  39.500      7.42970E-04
  40.500      1.08910E-03
  41.400      1.10750E-03
  42.200      1.06400E-03
  43.000      1.03170E-03
  44.100      1.24620E-03
  45.100      1.33930E-03
  46.000      1.18580E-03
  47.000      1.32010E-03
  48.000      1.50520E-03
  49.000      1.24070E-03
  50.000      1.74440E-03
  50.600      1.43020E-03
  51.200      1.88310E-03
  52.000      1.82050E-03
  53.000      1.74770E-03
  54.000      1.54850E-03
  55.000      1.31830E-03
  56.000      1.73590E-03
  57.000      2.05300E-03
  58.000      2.07940E-03
  59.000      2.13910E-03
  60.000      1.90960E-03
  61.000      1.67820E-03
  62.000      2.15210E-03
  63.000      2.02090E-03
  64.000      2.31790E-03
  65.000      2.21410E-03
  65.800      2.00750E-03
  66.500      2.33700E-03
  67.500      2.41860E-03
  68.500      2.25110E-03
  69.500      2.46310E-03
  70.500      2.19960E-03
  71.600      2.51130E-03
  72.600      2.58650E-03
  73.500      2.60180E-03
  74.500      2.54020E-03
  75.500      2.51360E-03
  76.500      2.39360E-03
  77.500      2.56650E-03
  78.500      2.31230E-03
  79.500      2.55050E-03
  80.500      2.61670E-03
  81.500      2.64290E-03
  82.500      2.68250E-03
  83.500      2.46360E-03
  84.500      2.67410E-03
  85.500      2.58740E-03
  86.500      2.71780E-03
  87.500      2.75040E-03
  88.500      2.71910E-03
  89.500      2.73520E-03
  90.500      2.69350E-03
  91.500      2.10630E-03
  92.500      3.44090E-03
  93.500      4.27850E-03
  94.500      4.83530E-03
  95.500      5.51600E-03
  96.500      5.86660E-03
  97.500      4.81780E-03
  98.500      5.54510E-03
  99.500      5.16230E-03
  100.50      5.32000E-03
  101.50      5.43960E-03
  102.50      4.97620E-03
  103.50      5.62040E-03
  104.50      5.75250E-03
  105.50      5.72170E-03
  106.50      5.47810E-03
  107.50      5.64740E-03
  108.50      5.34760E-03
  109.50      5.59280E-03
  110.50      5.52480E-03
  111.50      5.49280E-03
  112.50      5.36050E-03
  113.50      5.50450E-03
  114.50      5.50480E-03
  115.50      5.34920E-03
  116.50      5.21910E-03
  117.50      4.89420E-03
  118.50      5.17360E-03
  119.50      5.04110E-03
  120.50      5.04190E-03
  121.50      4.37480E-03
  122.50      4.97800E-03
  123.50      4.86440E-03
  124.50      4.79640E-03
  125.50      4.91580E-03
  126.50      4.90470E-03
  127.50      4.90230E-03
  128.50      4.88530E-03
  129.50      4.87700E-03
  130.50      4.77740E-03
  131.50      4.76890E-03
  132.50      4.72270E-03
  133.50      4.70860E-03
  134.50      4.67050E-03
  135.50      4.57040E-03
  136.50      4.44430E-03
  137.50      4.32710E-03
  138.50      4.41420E-03
  139.50      4.30700E-03
  140.50      4.17180E-03
  141.50      4.43690E-03
  142.50      4.29900E-03
  143.50      4.38160E-03
  144.20      4.26000E-03
  144.70      4.26720E-03
  145.50      4.20950E-03
  146.50      4.20720E-03
  147.50      4.20890E-03
  148.50      4.24640E-03
  149.50      4.19020E-03
  150.50      4.18090E-03
  151.20      4.18830E-03
  151.70      4.11420E-03
  152.50      4.13480E-03
  153.50      3.98420E-03
  154.50      3.64660E-03
  155.50      3.68240E-03
  156.50      3.87210E-03
  157.50      3.92300E-03
  158.50      3.86090E-03
  159.50      3.87130E-03
  160.50      3.78070E-03
  161.50      3.74210E-03
  162.50      3.72920E-03
  163.50      3.71550E-03
  164.50      3.57630E-03
  165.50      3.73980E-03
  166.50      3.71120E-03
  167.20      3.61940E-03
  167.70      3.74020E-03
  168.50      3.72100E-03
  169.50      3.71080E-03
  170.50      3.65290E-03
  171.50      3.55390E-03
  172.50      3.54920E-03
  173.50      3.61760E-03
  174.50      3.58690E-03
  175.50      3.55480E-03
  176.50      3.52830E-03
  177.50      3.51310E-03
  178.50      3.51030E-03
  179.50      3.46430E-03
  180.50      3.44570E-03
  181.50      3.42070E-03
  182.50      3.39870E-03
  183.50      3.38210E-03
  184.50      3.36410E-03
  185.50      3.33560E-03
  186.50      3.32010E-03
  187.50      3.28440E-03
  188.50      3.26170E-03
  189.50      3.26550E-03
  190.50      3.24440E-03
  191.50      3.22000E-03
  192.50      3.14930E-03
  193.50      3.18260E-03
  194.50      3.16500E-03
  195.50      3.13060E-03
  196.70      3.11460E-03
  197.60      3.08570E-03
  198.40      3.08320E-03
  199.50      3.05700E-03
  200.50      3.04340E-03
  201.50      3.02380E-03
  202.50      3.00510E-03
  203.50      2.98110E-03
  204.50      2.94800E-03
  205.50      2.26980E-03
  206.50      2.20460E-03
  207.40      2.27010E-03
  207.80      2.33410E-03
  208.50      2.51550E-03
  209.50      2.78270E-03
  210.50      2.83290E-03
  211.50      2.83510E-03
  212.50      2.80580E-03
  213.50      2.79870E-03
  214.50      2.78200E-03
  215.50      2.80230E-03
  216.50      2.68450E-03
  217.50      2.78360E-03
  218.50      2.68660E-03
  219.50      2.75700E-03
  220.50      2.73790E-03
  221.50      2.63250E-03
  222.50      2.70580E-03
  223.50      2.69060E-03
  224.50      2.67320E-03
  225.50      2.57940E-03
  226.50      2.63690E-03
  227.50      2.62790E-03
  228.50      2.59670E-03
  229.50      2.56430E-03
  230.50      2.50180E-03
  231.50      2.54540E-03
  232.50      2.54350E-03
  233.50      2.53010E-03
  234.50      2.50980E-03
  235.50      2.49180E-03
  236.50      2.47540E-03
  237.50      2.45370E-03
  238.50      2.35550E-03
  239.50      2.41040E-03
  240.50      2.40310E-03
  241.50      2.38370E-03
  242.50      2.38870E-03
  243.50      2.36820E-03
  244.50      2.35640E-03
  245.50      2.32780E-03
  246.50      2.32660E-03
  247.50      2.32030E-03
  248.50      2.29910E-03
  249.50      2.15470E-03
  250.50      2.26740E-03
  251.30      2.12460E-03
  251.80      2.22180E-03
  252.50      2.23260E-03
  253.50      2.23620E-03
  254.50      2.22470E-03
  255.50      2.21040E-03
  256.50      2.19950E-03
  257.50      2.18560E-03
  258.50      2.17270E-03
  259.50      2.13490E-03
  260.50      2.14850E-03
  261.50      2.12070E-03
  262.50      2.12490E-03
  263.50      2.11410E-03
  264.50      2.09660E-03
  265.50      2.08970E-03
  266.50      2.07600E-03
  267.50      2.04950E-03
  268.50      2.04860E-03
  269.50      2.03720E-03
  270.50      2.03270E-03
  271.50      2.02020E-03
  272.50      2.00760E-03
  273.50      1.94290E-03
  274.50      1.98750E-03
  275.50      1.97370E-03
  276.50      1.96470E-03
  277.50      1.95110E-03
  278.50      1.93330E-03
  279.50      1.92210E-03
  280.50      1.91860E-03
  281.50      1.90870E-03
  282.50      1.89440E-03
  283.50      1.88870E-03
  284.50      1.88020E-03
  285.50      1.86990E-03
  286.50      1.85770E-03
  287.50      1.84660E-03
  288.50      1.83920E-03
  289.50      1.82750E-03
  291.00      1.81340E-03
  293.00      1.79620E-03
  295.00      1.77710E-03
  297.00      1.75510E-03
  299.00      1.73200E-03
  301.00      1.71550E-03
  303.00      1.69030E-03
  305.00      1.67850E-03
  307.00      1.65700E-03
  309.00      1.64770E-03
  311.00      1.63120E-03
  313.00      1.61320E-03
  315.00      1.60090E-03
  317.00      1.58330E-03
  319.00      1.56900E-03
  321.00      1.52830E-03
  323.00      1.53930E-03
  325.00      1.52460E-03
  327.00      1.49860E-03
  329.00      1.49210E-03
  331.00      1.47710E-03
  333.00      1.46270E-03
  335.00      1.44280E-03
  337.00      1.43450E-03
  339.00      1.41860E-03
  341.00      1.40390E-03
  343.00      1.39600E-03
  345.00      1.37740E-03
  347.00      1.36970E-03
  349.00      1.35750E-03
  351.00      1.34640E-03
  353.00      1.33210E-03
  355.00      1.32010E-03
  357.00      1.30830E-03
  359.00      1.29680E-03
  361.00      1.28480E-03
  363.00      1.27200E-03
  364.00      1.24160E-03
  365.00      1.12990E-03
  367.00      1.12140E-03
  369.00      1.11590E-03
  371.00      1.11600E-03
  373.00      1.12760E-03
  375.00      1.14560E-03
  377.00      1.15870E-03
  379.00      1.17680E-03
  381.00      1.19060E-03
  383.00      1.14530E-03
  385.00      1.18550E-03
  387.00      1.18490E-03
  389.00      1.10700E-03
  391.00      1.17140E-03
  393.00      1.15220E-03
  395.00      1.15010E-03
  397.00      1.06490E-03
  399.00      1.13280E-03
  401.00      1.12590E-03
  403.00      1.09850E-03
  405.00      1.10900E-03
  407.00      1.09810E-03
  409.00      1.06720E-03
  411.00      1.01690E-03
  413.00      1.07050E-03
  415.00      1.06310E-03
  417.00      1.05530E-03
  419.00      1.04280E-03
  421.00      1.02330E-03
  423.00      1.03020E-03
  425.00      1.02160E-03
  427.00      1.01360E-03
  429.00      1.00540E-03
  431.00      9.96080E-04
  433.00      9.64550E-04
  435.00      9.31170E-04
  437.00      9.71980E-04
  439.00      9.63170E-04
  441.00      9.56210E-04
  443.00      9.50210E-04
  445.00      9.42270E-04
  447.00      9.31480E-04
  449.00      9.28240E-04
  451.00      9.20650E-04
  453.00      9.12680E-04
  455.00      8.92130E-04
  457.00      9.00210E-04
  459.00      8.93490E-04
  461.00      8.86730E-04
  463.00      8.77210E-04
  465.00      8.65160E-04
  467.00      8.65810E-04
  469.00      8.32520E-04
  471.00      8.53880E-04
  473.00      8.48710E-04
  475.00      8.42460E-04
  477.00      8.36160E-04
  479.00      8.29580E-04
  481.00      8.23850E-04
  483.00      8.17600E-04
  485.00      7.98150E-04
  487.00      7.59890E-04
  489.00      7.99280E-04
  491.00      7.94350E-04
  493.00      7.87480E-04
  495.00      7.83280E-04
  497.00      7.77820E-04
  499.00      7.72420E-04
  501.00      7.65800E-04
  503.00      7.61290E-04
  505.00      7.55890E-04
  507.00      7.50900E-04
  509.00      7.45780E-04
  511.00      7.40640E-04
  513.00      7.35430E-04
  515.00      7.30390E-04
  517.00      7.25470E-04
  519.00      7.20480E-04
  521.00      7.15520E-04
  523.00      7.10760E-04
  525.00      7.05680E-04
  527.00      7.00450E-04
  529.00      6.96470E-04
  531.00      6.91780E-04
  533.00      6.87130E-04
  535.00      6.82630E-04
  537.00      6.78060E-04
  539.00      6.73570E-04
  541.00      6.57240E-04
  543.00      6.64730E-04
  545.00      6.60440E-04
  547.00      6.56050E-04
  549.00      6.51850E-04
  551.00      6.47170E-04
  553.00      6.43440E-04
  555.00      6.39310E-04
  557.00      6.35010E-04
  559.00      6.29680E-04
  561.00      6.27110E-04
  563.00      6.23120E-04
  565.00      6.19170E-04
  567.00      6.15250E-04
  569.00      6.03050E-04
  571.00      5.66450E-04
  573.00      5.63160E-04
  575.00      5.59880E-04
  577.00      5.56840E-04
  579.00      5.54120E-04
  581.00      5.50170E-04
  583.00      5.50460E-04
  585.00      5.49700E-04
  587.00      5.46700E-04
  589.00      5.48930E-04
  591.00      5.49150E-04
  593.00      5.49810E-04
  595.00      5.51050E-04
  597.00      5.52140E-04
  599.00      5.53650E-04
  601.00      5.51970E-04
  603.00      5.49850E-04
  605.00      5.48090E-04
  607.00      5.44170E-04
  609.00      5.41830E-04
  611.00      5.37990E-04
  613.00      5.34860E-04
  615.00      5.32670E-04
  617.00      5.27330E-04
  619.00      5.26330E-04
  621.00      5.23450E-04
  623.00      5.17930E-04
  625.00      5.16840E-04
  627.00      5.14360E-04
  629.00      5.11420E-04
  631.00      5.04970E-04
  633.00      5.05330E-04
  635.00      5.02630E-04
  637.00      4.99790E-04
  639.00      4.96690E-04
  641.00      4.89790E-04
  643.00      4.91320E-04
  645.00      4.88500E-04
  647.00      4.85730E-04
  649.00      4.83070E-04
  651.00      4.79960E-04
  653.00      4.72130E-04
  655.00      4.70000E-04
  657.00      4.42930E-04
  659.00      4.69110E-04
  661.00      4.67180E-04
  663.00      4.64610E-04
  665.00      4.62060E-04
  667.00      4.57830E-04
  669.00      4.50460E-04
  671.00      4.54080E-04
  673.00      4.52000E-04
  675.00      4.49530E-04
  677.00      4.47140E-04
  679.00      4.44770E-04
  681.00      4.42370E-04
  683.00      4.40000E-04
  685.00      4.37640E-04
  687.00      4.35310E-04
  689.00      4.26730E-04
  691.00      4.30500E-04
  693.00      4.28420E-04
  695.00      4.26160E-04
  697.00      4.23920E-04
  699.00      4.21690E-04
  701.00      4.19370E-04
  703.00      4.17100E-04
  705.00      4.14930E-04
  707.00      4.11910E-04
  709.00      4.10820E-04
  711.00      4.08650E-04
  713.00      4.06530E-04
  715.00      4.04500E-04
  717.00      3.98320E-04
  719.00      3.98060E-04
  721.00      3.98320E-04
  723.00      3.96290E-04
  725.00      3.94280E-04
  727.00      3.92280E-04
  729.00      3.90050E-04
  731.00      3.88160E-04
  733.00      3.86380E-04
  735.00      3.84440E-04
  737.00      3.82440E-04
  739.00      3.80560E-04
  741.00      3.78620E-04
  743.00      3.76830E-04
  745.00      3.74740E-04
  747.00      3.73110E-04
  749.00      3.71110E-04
  751.00      3.69350E-04
  753.00      3.67630E-04
  755.00      3.65820E-04
  757.00      3.64030E-04
  759.00      3.56520E-04
  761.00      3.60090E-04
  763.00      3.58730E-04
  765.00      3.56980E-04
  767.00      3.55270E-04
  769.00      3.53340E-04
  771.00      3.51770E-04
  773.00      3.49860E-04
  775.00      3.48520E-04
  777.00      3.46860E-04
  779.00      3.45210E-04
  781.00      3.43570E-04
  783.00      3.41940E-04
  785.00      3.40120E-04
  787.00      3.38620E-04
  789.00      3.37080E-04
  791.00      3.35550E-04
  793.00      3.33990E-04
  795.00      3.32420E-04
  797.00      3.30680E-04
  799.00      3.29340E-04
  801.00      3.27810E-04
  803.00      3.26250E-04
  805.00      3.24790E-04
  807.00      3.23290E-04
  809.00      3.21800E-04
  811.00      3.20330E-04
  813.00      3.18860E-04
  815.00      3.17400E-04
  817.00      3.15770E-04
  819.00      3.13080E-04
  821.00      2.99340E-04
  823.00      2.96160E-04
  825.00      2.96420E-04
  827.00      2.95490E-04
  829.00      2.94260E-04
  831.00      2.93020E-04
  833.00      2.91620E-04
  835.00      2.90530E-04
  837.00      2.89390E-04
  839.00      2.88290E-04
  841.00      2.87300E-04
  843.00      2.86320E-04
  845.00      2.85330E-04
  847.00      2.84440E-04
  849.00      2.83700E-04
  851.00      2.82730E-04
  853.00      2.82180E-04
  855.00      2.81050E-04
  857.00      2.80800E-04
  859.00      2.79570E-04
  861.00      2.78850E-04
  863.00      2.79080E-04
  865.00      2.78030E-04
  867.00      2.75390E-04
  869.00      2.77360E-04
  871.00      2.77230E-04
  873.00      2.76180E-04
  875.00      2.70960E-04
  877.00      2.74270E-04
  879.00      2.75240E-04
  881.00      2.74840E-04
  883.00      2.74030E-04
  885.00      2.69690E-04
  887.00      2.63350E-04
  889.00      2.70020E-04
  891.00      2.70080E-04
  893.00      2.68910E-04
  895.00      2.68380E-04
  897.00      2.67140E-04
  899.00      2.64690E-04
  901.00      2.54680E-04
  903.00      2.58130E-04
  905.00      2.62040E-04
  907.00      2.61670E-04
  909.00      2.60800E-04
  911.00      2.59050E-04
  913.00      2.58720E-04
  915.00      2.57710E-04
  917.00      2.56560E-04
  919.00      2.55110E-04
  921.00      2.51740E-04
  923.00      2.39710E-04
  925.00      2.49080E-04
  927.00      2.50850E-04
  929.00      2.50390E-04
  931.00      2.49370E-04
  933.00      2.48140E-04
  935.00      2.41990E-04
  937.00      2.45060E-04
  939.00      2.45320E-04
  941.00      2.44390E-04
  943.00      2.43440E-04
  945.00      2.42470E-04
  947.00      2.41460E-04
  949.00      2.40510E-04
  951.00      2.38860E-04
  953.00      2.35100E-04
  955.00      2.23520E-04
  957.00      2.34350E-04
  959.00      2.35470E-04
  961.00      2.34910E-04
  963.00      2.33890E-04
  965.00      2.33080E-04
  967.00      2.32170E-04
  969.00      2.31260E-04
  971.00      2.29990E-04
  973.00      2.29410E-04
  975.00      2.28220E-04
  977.00      2.25950E-04
  979.00      2.26810E-04
  981.00      2.25940E-04
  983.00      2.25010E-04
  985.00      2.24200E-04
  987.00      2.23340E-04
  989.00      2.22490E-04
  991.00      2.21620E-04
  993.00      2.20790E-04
  995.00      2.19950E-04
  997.00      2.19120E-04
  999.00      2.18280E-04
  1002.5      2.13660E-04
  1007.5      2.09870E-04
  1012.5      2.09230E-04
  1017.5      2.10820E-04
  1022.5      2.08860E-04
  1027.5      2.06890E-04
  1032.5      2.04900E-04
  1037.5      2.03150E-04
  1042.5      2.00180E-04
  1047.5      1.99490E-04
  1052.5      1.97690E-04
  1057.5      1.95920E-04
  1062.5      1.94170E-04
  1067.5      1.92430E-04
  1072.5      1.90740E-04
  1077.5      1.89060E-04
  1082.5      1.87040E-04
  1087.5      1.85680E-04
  1092.5      1.78030E-04
  1097.5      1.81290E-04
  1102.5      1.80930E-04
  1107.5      1.79410E-04
  1112.5      1.77870E-04
  1117.5      1.76470E-04
  1122.5      1.74960E-04
  1127.5      1.73480E-04
  1132.5      1.72010E-04
  1137.5      1.70580E-04
  1142.5      1.69160E-04
  1147.5      1.67760E-04
  1152.5      1.66370E-04
  1157.5      1.64990E-04
  1162.5      1.61870E-04
  1167.5      1.61030E-04
  1172.5      1.60980E-04
  1177.5      1.59670E-04
  1182.5      1.58360E-04
  1187.5      1.57100E-04
  1192.5      1.55840E-04
  1197.5      1.54460E-04
  1202.5      1.53370E-04
  1207.5      1.52140E-04
  1212.5      1.50930E-04
  1217.5      1.49760E-04
  1222.5      1.48590E-04
  1227.5      1.47430E-04
  1232.5      1.46280E-04
  1237.5      1.45150E-04
  1242.5      1.44030E-04
  1247.5      1.42920E-04
  1252.5      1.41810E-04
  1257.5      1.40740E-04
  1262.5      1.39670E-04
  1267.5      1.38620E-04
  1272.5      1.37570E-04
  1277.5      1.36010E-04
  1282.5      1.30460E-04
  1287.5      1.34310E-04
  1292.5      1.33500E-04
  1297.5      1.32480E-04
  1302.5      1.31530E-04
  1307.5      1.30570E-04
  1312.5      1.29610E-04
  1317.5      1.28660E-04
  1322.5      1.27730E-04
  1327.5      1.26800E-04
  1332.5      1.25890E-04
  1337.5      1.24980E-04
  1342.5      1.24080E-04
  1347.5      1.23200E-04
  1352.5      1.22320E-04
  1357.5      1.21450E-04
  1362.5      1.20590E-04
  1367.5      1.19740E-04
  1372.5      1.18900E-04
  1377.5      1.18070E-04
  1382.5      1.17240E-04
  1387.5      1.16430E-04
  1392.5      1.15620E-04
  1397.5      1.14820E-04
