 Castelli and Kurucz 2004-2012 Atmosphere
 T     39000.     G    4.00000 [-0.5a] N(He)/Ntot=0.0784 VTURB=2.0  L/H=1.25 OD
 Wavelength  Eddington Hnu
   (nm)    (ergs/s/cm2/Hz/sr)
  9.0900      7.19610E-26
  9.3500      2.73990E-25
  9.6100      9.67470E-25
  9.7700      2.07130E-24
  9.9600      4.92040E-24
  10.200      1.40860E-23
  10.380      3.01850E-23
  10.560      6.32150E-23
  10.770      1.45710E-22
  11.040      4.09490E-22
  11.400      1.51990E-21
  11.780      5.63610E-21
  12.130      1.77320E-20
  12.480      5.27340E-20
  12.710      1.04840E-19
  12.840      1.53110E-19
  13.050      2.78220E-19
  13.240      4.70650E-19
  13.390      7.07150E-19
  13.660      1.43710E-18
  13.980      3.25210E-18
  14.330      7.60520E-18
  14.720      1.85220E-17
  15.100      4.36500E-17
  15.520      1.05720E-16
  15.880      2.18070E-16
  16.200      4.05380E-16
  16.600      8.56070E-16
  17.030      1.82420E-15
  17.340      3.08310E-15
  17.680      5.41230E-15
  18.020      9.25250E-15
  18.170      1.15610E-14
  18.610      2.25050E-14
  19.100      4.51540E-14
  19.390      6.71930E-14
  19.840      1.21470E-13
  20.180      1.86340E-13
  20.500      2.76240E-13
  21.050      5.27460E-13
  21.620      9.90520E-13
  21.980      1.46430E-12
  22.300      2.03720E-12
  22.680      2.97380E-12
  23.000      3.39840E-09
  23.400      1.35910E-08
  24.000      2.03160E-08
  24.650      3.77840E-08
  25.240      1.26380E-07
  25.680      1.80530E-07
  26.000      3.45600E-07
  26.400      2.42860E-06
  26.850      3.80020E-06
  27.350      5.02020E-06
  27.850      2.95610E-06
  28.400      8.87340E-06
  29.000      1.41740E-05
  29.600      8.94440E-06
  30.100      3.26520E-06
  30.800      1.36350E-05
  31.800      7.52460E-06
  32.800      1.34820E-05
  33.800      1.13910E-05
  34.800      1.39580E-05
  35.700      3.77970E-05
  36.600      8.17910E-05
  37.500      1.10440E-04
  38.500      1.19710E-04
  39.500      1.91790E-04
  40.500      2.92910E-04
  41.400      3.02920E-04
  42.200      2.98920E-04
  43.000      2.87840E-04
  44.100      3.50500E-04
  45.100      3.83500E-04
  46.000      3.40990E-04
  47.000      3.76150E-04
  48.000      4.41360E-04
  49.000      3.31680E-04
  50.000      5.09660E-04
  50.600      3.98080E-04
  51.200      7.23860E-04
  52.000      6.89280E-04
  53.000      6.45460E-04
  54.000      5.94390E-04
  55.000      5.13650E-04
  56.000      7.11540E-04
  57.000      8.74640E-04
  58.000      8.72760E-04
  59.000      9.12560E-04
  60.000      7.52640E-04
  61.000      7.30440E-04
  62.000      9.86210E-04
  63.000      9.49170E-04
  64.000      1.08230E-03
  65.000      1.03560E-03
  65.800      9.00070E-04
  66.500      1.09080E-03
  67.500      1.18240E-03
  68.500      1.06350E-03
  69.500      1.20680E-03
  70.500      1.00580E-03
  71.600      1.27850E-03
  72.600      1.31560E-03
  73.500      1.34310E-03
  74.500      1.29260E-03
  75.500      1.29350E-03
  76.500      1.24490E-03
  77.500      1.34860E-03
  78.500      1.20410E-03
  79.500      1.36330E-03
  80.500      1.38900E-03
  81.500      1.41920E-03
  82.500      1.45660E-03
  83.500      1.27110E-03
  84.500      1.46330E-03
  85.500      1.42820E-03
  86.500      1.51030E-03
  87.500      1.53430E-03
  88.500      1.53110E-03
  89.500      1.54660E-03
  90.500      1.52880E-03
  91.500      1.30740E-03
  92.500      2.30410E-03
  93.500      2.92550E-03
  94.500      3.22730E-03
  95.500      3.59660E-03
  96.500      3.80420E-03
  97.500      3.09130E-03
  98.500      3.58350E-03
  99.500      3.38330E-03
  100.50      3.43010E-03
  101.50      3.57170E-03
  102.50      3.32220E-03
  103.50      3.67460E-03
  104.50      3.78150E-03
  105.50      3.76420E-03
  106.50      3.63210E-03
  107.50      3.69560E-03
  108.50      3.58010E-03
  109.50      3.70040E-03
  110.50      3.65210E-03
  111.50      3.62700E-03
  112.50      3.49680E-03
  113.50      3.65020E-03
  114.50      3.65270E-03
  115.50      3.52950E-03
  116.50      3.50270E-03
  117.50      3.14850E-03
  118.50      3.41130E-03
  119.50      3.35720E-03
  120.50      3.35700E-03
  121.50      2.99270E-03
  122.50      3.32020E-03
  123.50      3.33150E-03
  124.50      3.29360E-03
  125.50      3.34650E-03
  126.50      3.36310E-03
  127.50      3.38320E-03
  128.50      3.38330E-03
  129.50      3.36030E-03
  130.50      3.31340E-03
  131.50      3.33650E-03
  132.50      3.31120E-03
  133.50      3.30130E-03
  134.50      3.29700E-03
  135.50      3.22890E-03
  136.50      3.16500E-03
  137.50      3.10730E-03
  138.50      3.14160E-03
  139.50      3.02410E-03
  140.50      2.94210E-03
  141.50      3.14420E-03
  142.50      3.01490E-03
  143.50      3.09760E-03
  144.20      3.04150E-03
  144.70      3.04550E-03
  145.50      2.99560E-03
  146.50      3.00800E-03
  147.50      3.00640E-03
  148.50      3.03540E-03
  149.50      2.99470E-03
  150.50      3.01090E-03
  151.20      3.01800E-03
  151.70      2.97500E-03
  152.50      2.96950E-03
  153.50      2.83350E-03
  154.50      2.53730E-03
  155.50      2.58560E-03
  156.50      2.74880E-03
  157.50      2.81640E-03
  158.50      2.79260E-03
  159.50      2.80080E-03
  160.50      2.71380E-03
  161.50      2.68020E-03
  162.50      2.68140E-03
  163.50      2.69040E-03
  164.50      2.61290E-03
  165.50      2.72510E-03
  166.50      2.69480E-03
  167.20      2.61330E-03
  167.70      2.75550E-03
  168.50      2.73000E-03
  169.50      2.72180E-03
  170.50      2.68350E-03
  171.50      2.61640E-03
  172.50      2.61270E-03
  173.50      2.67530E-03
  174.50      2.65850E-03
  175.50      2.62990E-03
  176.50      2.62100E-03
  177.50      2.61350E-03
  178.50      2.61710E-03
  179.50      2.57990E-03
  180.50      2.57520E-03
  181.50      2.55970E-03
  182.50      2.54200E-03
  183.50      2.54240E-03
  184.50      2.52810E-03
  185.50      2.51120E-03
  186.50      2.49930E-03
  187.50      2.47120E-03
  188.50      2.45930E-03
  189.50      2.47150E-03
  190.50      2.46180E-03
  191.50      2.44520E-03
  192.50      2.38780E-03
  193.50      2.42310E-03
  194.50      2.41160E-03
  195.50      2.37750E-03
  196.70      2.37650E-03
  197.60      2.36150E-03
  198.40      2.35820E-03
  199.50      2.34080E-03
  200.50      2.33380E-03
  201.50      2.32030E-03
  202.50      2.30700E-03
  203.50      2.29160E-03
  204.50      2.26910E-03
  205.50      1.77620E-03
  206.50      1.74220E-03
  207.40      1.81430E-03
  207.80      1.87800E-03
  208.50      2.05600E-03
  209.50      2.19750E-03
  210.50      2.18940E-03
  211.50      2.19770E-03
  212.50      2.17400E-03
  213.50      2.17370E-03
  214.50      2.16160E-03
  215.50      2.17620E-03
  216.50      2.09800E-03
  217.50      2.15820E-03
  218.50      2.10250E-03
  219.50      2.14030E-03
  220.50      2.12610E-03
  221.50      2.06620E-03
  222.50      2.10220E-03
  223.50      2.09210E-03
  224.50      2.08020E-03
  225.50      2.02790E-03
  226.50      2.05520E-03
  227.50      2.04840E-03
  228.50      2.02530E-03
  229.50      1.98980E-03
  230.50      1.97150E-03
  231.50      1.99040E-03
  232.50      1.98890E-03
  233.50      1.97980E-03
  234.50      1.96530E-03
  235.50      1.95290E-03
  236.50      1.94100E-03
  237.50      1.92510E-03
  238.50      1.86250E-03
  239.50      1.89220E-03
  240.50      1.89150E-03
  241.50      1.87740E-03
  242.50      1.87920E-03
  243.50      1.86440E-03
  244.50      1.85610E-03
  245.50      1.83770E-03
  246.50      1.83520E-03
  247.50      1.83040E-03
  248.50      1.81240E-03
  249.50      1.61730E-03
  250.50      1.78830E-03
  251.30      1.70250E-03
  251.80      1.75670E-03
  252.50      1.77050E-03
  253.50      1.77030E-03
  254.50      1.76170E-03
  255.50      1.75080E-03
  256.50      1.74270E-03
  257.50      1.73350E-03
  258.50      1.72470E-03
  259.50      1.69830E-03
  260.50      1.70610E-03
  261.50      1.68800E-03
  262.50      1.68890E-03
  263.50      1.68160E-03
  264.50      1.66880E-03
  265.50      1.66390E-03
  266.50      1.65320E-03
  267.50      1.63350E-03
  268.50      1.63310E-03
  269.50      1.62560E-03
  270.50      1.62220E-03
  271.50      1.61230E-03
  272.50      1.60340E-03
  273.50      1.56240E-03
  274.50      1.58910E-03
  275.50      1.57880E-03
  276.50      1.57150E-03
  277.50      1.56240E-03
  278.50      1.54930E-03
  279.50      1.53780E-03
  280.50      1.53760E-03
  281.50      1.53030E-03
  282.50      1.52050E-03
  283.50      1.51530E-03
  284.50      1.50980E-03
  285.50      1.50190E-03
  286.50      1.49330E-03
  287.50      1.48530E-03
  288.50      1.47910E-03
  289.50      1.47100E-03
  291.00      1.45920E-03
  293.00      1.44650E-03
  295.00      1.43210E-03
  297.00      1.41550E-03
  299.00      1.39740E-03
  301.00      1.38510E-03
  303.00      1.36510E-03
  305.00      1.35700E-03
  307.00      1.34320E-03
  309.00      1.33400E-03
  311.00      1.32160E-03
  313.00      1.30820E-03
  315.00      1.29900E-03
  317.00      1.28580E-03
  319.00      1.27480E-03
  321.00      1.24640E-03
  323.00      1.25210E-03
  325.00      1.24120E-03
  327.00      1.22040E-03
  329.00      1.21590E-03
  331.00      1.20420E-03
  333.00      1.19310E-03
  335.00      1.17780E-03
  337.00      1.17170E-03
  339.00      1.16090E-03
  341.00      1.14960E-03
  343.00      1.14250E-03
  345.00      1.12770E-03
  347.00      1.12240E-03
  349.00      1.11290E-03
  351.00      1.10390E-03
  353.00      1.09270E-03
  355.00      1.08330E-03
  357.00      1.07470E-03
  359.00      1.06520E-03
  361.00      1.05570E-03
  363.00      1.04560E-03
  364.00      1.02400E-03
  365.00      9.42280E-04
  367.00      9.35790E-04
  369.00      9.32960E-04
  371.00      9.33300E-04
  373.00      9.43430E-04
  375.00      9.61390E-04
  377.00      9.68180E-04
  379.00      9.78090E-04
  381.00      9.89190E-04
  383.00      9.53130E-04
  385.00      9.84460E-04
  387.00      9.79660E-04
  389.00      9.27100E-04
  391.00      9.70470E-04
  393.00      9.54290E-04
  395.00      9.52040E-04
  397.00      8.92810E-04
  399.00      9.39790E-04
  401.00      9.31630E-04
  403.00      9.12600E-04
  405.00      9.18650E-04
  407.00      9.08900E-04
  409.00      8.89190E-04
  411.00      8.51450E-04
  413.00      8.88080E-04
  415.00      8.81570E-04
  417.00      8.76080E-04
  419.00      8.67490E-04
  421.00      8.53330E-04
  423.00      8.56280E-04
  425.00      8.49170E-04
  427.00      8.42770E-04
  429.00      8.36390E-04
  431.00      8.29030E-04
  433.00      8.09000E-04
  435.00      7.81920E-04
  437.00      8.10450E-04
  439.00      8.02080E-04
  441.00      7.96950E-04
  443.00      7.92500E-04
  445.00      7.86400E-04
  447.00      7.76290E-04
  449.00      7.74990E-04
  451.00      7.68560E-04
  453.00      7.62950E-04
  455.00      7.49080E-04
  457.00      7.52690E-04
  459.00      7.46990E-04
  461.00      7.41650E-04
  463.00      7.33910E-04
  465.00      7.21880E-04
  467.00      7.24860E-04
  469.00      7.00450E-04
  471.00      7.14420E-04
  473.00      7.11420E-04
  475.00      7.06340E-04
  477.00      7.01290E-04
  479.00      6.96260E-04
  481.00      6.91360E-04
  483.00      6.86480E-04
  485.00      6.74380E-04
  487.00      6.43170E-04
  489.00      6.72060E-04
  491.00      6.67460E-04
  493.00      6.60910E-04
  495.00      6.58380E-04
  497.00      6.54150E-04
  499.00      6.49780E-04
  501.00      6.43680E-04
  503.00      6.40580E-04
  505.00      6.36110E-04
  507.00      6.32310E-04
  509.00      6.28130E-04
  511.00      6.23960E-04
  513.00      6.19720E-04
  515.00      6.15620E-04
  517.00      6.11570E-04
  519.00      6.07530E-04
  521.00      6.03540E-04
  523.00      5.99630E-04
  525.00      5.95430E-04
  527.00      5.91110E-04
  529.00      5.87980E-04
  531.00      5.84150E-04
  533.00      5.80340E-04
  535.00      5.76670E-04
  537.00      5.72950E-04
  539.00      5.69260E-04
  541.00      5.58150E-04
  543.00      5.62070E-04
  545.00      5.58520E-04
  547.00      5.54930E-04
  549.00      5.51480E-04
  551.00      5.47590E-04
  553.00      5.44590E-04
  555.00      5.41200E-04
  557.00      5.37670E-04
  559.00      5.33130E-04
  561.00      5.31180E-04
  563.00      5.27900E-04
  565.00      5.24660E-04
  567.00      5.21440E-04
  569.00      5.11890E-04
  571.00      4.85240E-04
  573.00      4.82480E-04
  575.00      4.79740E-04
  577.00      4.77280E-04
  579.00      4.75200E-04
  581.00      4.72650E-04
  583.00      4.72760E-04
  585.00      4.72290E-04
  587.00      4.68480E-04
  589.00      4.71720E-04
  591.00      4.71920E-04
  593.00      4.72520E-04
  595.00      4.73600E-04
  597.00      4.73760E-04
  599.00      4.73350E-04
  601.00      4.71010E-04
  603.00      4.68430E-04
  605.00      4.66130E-04
  607.00      4.62750E-04
  609.00      4.60940E-04
  611.00      4.57650E-04
  613.00      4.55120E-04
  615.00      4.53180E-04
  617.00      4.48860E-04
  619.00      4.48050E-04
  621.00      4.45510E-04
  623.00      4.41010E-04
  625.00      4.40270E-04
  627.00      4.37970E-04
  629.00      4.35530E-04
  631.00      4.30500E-04
  633.00      4.30660E-04
  635.00      4.28230E-04
  637.00      4.25880E-04
  639.00      4.23470E-04
  641.00      4.18130E-04
  643.00      4.18840E-04
  645.00      4.16470E-04
  647.00      4.14170E-04
  649.00      4.11960E-04
  651.00      4.09570E-04
  653.00      4.03740E-04
  655.00      4.02420E-04
  657.00      3.80100E-04
  659.00      4.00660E-04
  661.00      3.98750E-04
  663.00      3.96610E-04
  665.00      3.94480E-04
  667.00      3.90730E-04
  669.00      3.85420E-04
  671.00      3.87770E-04
  673.00      3.86030E-04
  675.00      3.83990E-04
  677.00      3.82040E-04
  679.00      3.80060E-04
  681.00      3.78070E-04
  683.00      3.76090E-04
  685.00      3.74110E-04
  687.00      3.72150E-04
  689.00      3.66330E-04
  691.00      3.68230E-04
  693.00      3.66410E-04
  695.00      3.64520E-04
  697.00      3.62640E-04
  699.00      3.60780E-04
  701.00      3.58820E-04
  703.00      3.56900E-04
  705.00      3.55100E-04
  707.00      3.51840E-04
  709.00      3.51680E-04
  711.00      3.49870E-04
  713.00      3.48110E-04
  715.00      3.46380E-04
  717.00      3.42060E-04
  719.00      3.41740E-04
  721.00      3.41210E-04
  723.00      3.39500E-04
  725.00      3.37810E-04
  727.00      3.36140E-04
  729.00      3.33970E-04
  731.00      3.32670E-04
  733.00      3.31190E-04
  735.00      3.29560E-04
  737.00      3.27880E-04
  739.00      3.26330E-04
  741.00      3.24670E-04
  743.00      3.23170E-04
  745.00      3.21410E-04
  747.00      3.20040E-04
  749.00      3.18300E-04
  751.00      3.16870E-04
  753.00      3.15430E-04
  755.00      3.13920E-04
  757.00      3.12400E-04
  759.00      3.07370E-04
  761.00      3.09270E-04
  763.00      3.07950E-04
  765.00      3.06470E-04
  767.00      3.05060E-04
  769.00      3.03380E-04
  771.00      3.02100E-04
  773.00      3.00460E-04
  775.00      2.99360E-04
  777.00      2.97970E-04
  779.00      2.96570E-04
  781.00      2.95190E-04
  783.00      2.93810E-04
  785.00      2.92290E-04
  787.00      2.91000E-04
  789.00      2.89720E-04
  791.00      2.88440E-04
  793.00      2.87120E-04
  795.00      2.85810E-04
  797.00      2.84330E-04
  799.00      2.83190E-04
  801.00      2.81910E-04
  803.00      2.80580E-04
  805.00      2.79360E-04
  807.00      2.78090E-04
  809.00      2.76830E-04
  811.00      2.75590E-04
  813.00      2.74350E-04
  815.00      2.73120E-04
  817.00      2.71730E-04
  819.00      2.69630E-04
  821.00      2.59530E-04
  823.00      2.57050E-04
  825.00      2.57170E-04
  827.00      2.56200E-04
  829.00      2.55190E-04
  831.00      2.54140E-04
  833.00      2.52910E-04
  835.00      2.51940E-04
  837.00      2.51070E-04
  839.00      2.50180E-04
  841.00      2.49370E-04
  843.00      2.48570E-04
  845.00      2.47700E-04
  847.00      2.46970E-04
  849.00      2.46360E-04
  851.00      2.45300E-04
  853.00      2.45060E-04
  855.00      2.43680E-04
  857.00      2.44000E-04
  859.00      2.42340E-04
  861.00      2.41680E-04
  863.00      2.42570E-04
  865.00      2.41400E-04
  867.00      2.37660E-04
  869.00      2.41080E-04
  871.00      2.41030E-04
  873.00      2.39900E-04
  875.00      2.33010E-04
  877.00      2.37910E-04
  879.00      2.38820E-04
  881.00      2.38080E-04
  883.00      2.37200E-04
  885.00      2.33300E-04
  887.00      2.26290E-04
  889.00      2.33800E-04
  891.00      2.33770E-04
  893.00      2.32410E-04
  895.00      2.31830E-04
  897.00      2.31010E-04
  899.00      2.29010E-04
  901.00      2.19550E-04
  903.00      2.23580E-04
  905.00      2.26880E-04
  907.00      2.26020E-04
  909.00      2.25310E-04
  911.00      2.23930E-04
  913.00      2.23590E-04
  915.00      2.22710E-04
  917.00      2.21710E-04
  919.00      2.20820E-04
  921.00      2.18080E-04
  923.00      2.07260E-04
  925.00      2.16150E-04
  927.00      2.17190E-04
  929.00      2.16490E-04
  931.00      2.15550E-04
  933.00      2.14740E-04
  935.00      2.10430E-04
  937.00      2.12020E-04
  939.00      2.12230E-04
  941.00      2.11350E-04
  943.00      2.10560E-04
  945.00      2.09740E-04
  947.00      2.08790E-04
  949.00      2.08090E-04
  951.00      2.06770E-04
  953.00      2.04060E-04
  955.00      1.93950E-04
  957.00      2.03500E-04
  959.00      2.04010E-04
  961.00      2.03250E-04
  963.00      2.02350E-04
  965.00      2.01730E-04
  967.00      2.00950E-04
  969.00      2.00180E-04
  971.00      1.98770E-04
  973.00      1.98570E-04
  975.00      1.97740E-04
  977.00      1.95840E-04
  979.00      1.96380E-04
  981.00      1.95640E-04
  983.00      1.94840E-04
  985.00      1.94160E-04
  987.00      1.93420E-04
  989.00      1.92690E-04
  991.00      1.91940E-04
  993.00      1.91250E-04
  995.00      1.90530E-04
  997.00      1.89810E-04
  999.00      1.89100E-04
  1002.5      1.85550E-04
  1007.5      1.82380E-04
  1012.5      1.81830E-04
  1017.5      1.82720E-04
  1022.5      1.81040E-04
  1027.5      1.79360E-04
  1032.5      1.77570E-04
  1037.5      1.76170E-04
  1042.5      1.73870E-04
  1047.5      1.73040E-04
  1052.5      1.71500E-04
  1057.5      1.69980E-04
  1062.5      1.68480E-04
  1067.5      1.66980E-04
  1072.5      1.65540E-04
  1077.5      1.64100E-04
  1082.5      1.62110E-04
  1087.5      1.61260E-04
  1092.5      1.55040E-04
  1097.5      1.57770E-04
  1102.5      1.57080E-04
  1107.5      1.55830E-04
  1112.5      1.54520E-04
  1117.5      1.53300E-04
  1122.5      1.51990E-04
  1127.5      1.50730E-04
  1132.5      1.49460E-04
  1137.5      1.48240E-04
  1142.5      1.47020E-04
  1147.5      1.45820E-04
  1152.5      1.44620E-04
  1157.5      1.43440E-04
  1162.5      1.41140E-04
  1167.5      1.40360E-04
  1172.5      1.39990E-04
  1177.5      1.38870E-04
  1182.5      1.37740E-04
  1187.5      1.36660E-04
  1192.5      1.35570E-04
  1197.5      1.34230E-04
  1202.5      1.33450E-04
  1207.5      1.32400E-04
  1212.5      1.31350E-04
  1217.5      1.30350E-04
  1222.5      1.29340E-04
  1227.5      1.28340E-04
  1232.5      1.27350E-04
  1237.5      1.26380E-04
  1242.5      1.25410E-04
  1247.5      1.24460E-04
  1252.5      1.23480E-04
  1257.5      1.22580E-04
  1262.5      1.21660E-04
  1267.5      1.20750E-04
  1272.5      1.19850E-04
  1277.5      1.18460E-04
  1282.5      1.14190E-04
  1287.5      1.17120E-04
  1292.5      1.16340E-04
  1297.5      1.15390E-04
  1302.5      1.14640E-04
  1307.5      1.13810E-04
  1312.5      1.12990E-04
  1317.5      1.12170E-04
  1322.5      1.11360E-04
  1327.5      1.10570E-04
  1332.5      1.09770E-04
  1337.5      1.08990E-04
  1342.5      1.08210E-04
  1347.5      1.07450E-04
  1352.5      1.06690E-04
  1357.5      1.05950E-04
  1362.5      1.05200E-04
  1367.5      1.04470E-04
  1372.5      1.03740E-04
  1377.5      1.03020E-04
  1382.5      1.02310E-04
  1387.5      1.01610E-04
  1392.5      1.00910E-04
  1397.5      1.00220E-04
