 Castelli and Kurucz 2004-2012 Atmosphere
 T     40000.     G    4.50000 [-0.5a] N(He)/Ntot=0.0784 VTURB=2.0  L/H=1.25 OD
 Wavelength  Eddington Hnu
   (nm)    (ergs/s/cm2/Hz/sr)
  9.0900      6.30300E-25
  9.3500      2.28910E-24
  9.6100      7.73460E-24
  9.7700      1.61020E-23
  9.9600      3.70620E-23
  10.200      1.02130E-22
  10.380      2.12720E-22
  10.560      4.33350E-22
  10.770      9.67780E-22
  11.040      2.61270E-21
  11.400      9.20320E-21
  11.780      3.23450E-20
  12.130      9.68840E-20
  12.480      2.74660E-19
  12.710      5.30580E-19
  12.840      7.61950E-19
  13.050      1.34840E-18
  13.240      2.22810E-18
  13.390      3.28690E-18
  13.660      6.47320E-18
  13.980      1.41180E-17
  14.330      3.18000E-17
  14.720      7.45760E-17
  15.100      1.69180E-16
  15.520      3.94840E-16
  15.880      7.90520E-16
  16.200      1.42940E-15
  16.600      2.93010E-15
  17.030      6.07300E-15
  17.340      1.00770E-14
  17.680      1.73100E-14
  18.020      2.90400E-14
  18.170      3.61040E-14
  18.610      6.85300E-14
  19.100      1.34400E-13
  19.390      1.97360E-13
  19.840      3.50360E-13
  20.180      5.30640E-13
  20.500      7.76620E-13
  21.050      1.45370E-12
  21.620      2.68130E-12
  21.980      3.91430E-12
  22.300      5.39610E-12
  22.680      7.78950E-12
  23.000      4.95320E-09
  23.400      2.09360E-08
  24.000      3.35250E-08
  24.650      5.89700E-08
  25.240      1.62410E-07
  25.680      2.26520E-07
  26.000      4.19450E-07
  26.400      2.63160E-06
  26.850      4.26480E-06
  27.350      5.59460E-06
  27.850      3.47760E-06
  28.400      1.01040E-05
  29.000      1.50440E-05
  29.600      9.74960E-06
  30.100      4.36870E-06
  30.800      1.84700E-05
  31.800      1.05880E-05
  32.800      1.81220E-05
  33.800      1.57050E-05
  34.800      1.91360E-05
  35.700      4.85020E-05
  36.600      9.71250E-05
  37.500      1.28030E-04
  38.500      1.40870E-04
  39.500      2.10340E-04
  40.500      2.98360E-04
  41.400      3.04120E-04
  42.200      3.00680E-04
  43.000      2.86670E-04
  44.100      3.34820E-04
  45.100      3.67760E-04
  46.000      3.29520E-04
  47.000      3.55440E-04
  48.000      4.05110E-04
  49.000      3.25780E-04
  50.000      4.47440E-04
  50.600      3.91810E-04
  51.200      7.92390E-04
  52.000      7.50320E-04
  53.000      7.04050E-04
  54.000      6.57020E-04
  55.000      6.04760E-04
  56.000      8.12810E-04
  57.000      9.29600E-04
  58.000      9.18910E-04
  59.000      9.60740E-04
  60.000      8.16130E-04
  61.000      8.29980E-04
  62.000      1.05330E-03
  63.000      1.02720E-03
  64.000      1.12870E-03
  65.000      1.08920E-03
  65.800      9.64780E-04
  66.500      1.13360E-03
  67.500      1.22620E-03
  68.500      1.11170E-03
  69.500      1.24870E-03
  70.500      1.06950E-03
  71.600      1.32140E-03
  72.600      1.35180E-03
  73.500      1.38210E-03
  74.500      1.33420E-03
  75.500      1.33780E-03
  76.500      1.31540E-03
  77.500      1.39180E-03
  78.500      1.30610E-03
  79.500      1.41780E-03
  80.500      1.43060E-03
  81.500      1.46040E-03
  82.500      1.49910E-03
  83.500      1.32930E-03
  84.500      1.50810E-03
  85.500      1.48640E-03
  86.500      1.55380E-03
  87.500      1.57400E-03
  88.500      1.57430E-03
  89.500      1.59000E-03
  90.500      1.57360E-03
  91.500      1.30330E-03
  92.500      2.33720E-03
  93.500      3.14680E-03
  94.500      3.75970E-03
  95.500      4.24930E-03
  96.500      4.72370E-03
  97.500      3.54400E-03
  98.500      4.42750E-03
  99.500      4.10830E-03
  100.50      4.20930E-03
  101.50      4.37860E-03
  102.50      3.78640E-03
  103.50      4.47720E-03
  104.50      4.65180E-03
  105.50      4.61560E-03
  106.50      4.39400E-03
  107.50      4.49100E-03
  108.50      4.24960E-03
  109.50      4.48490E-03
  110.50      4.39470E-03
  111.50      4.37260E-03
  112.50      4.16490E-03
  113.50      4.37240E-03
  114.50      4.35970E-03
  115.50      4.18290E-03
  116.50      4.12990E-03
  117.50      3.66480E-03
  118.50      4.00350E-03
  119.50      3.93400E-03
  120.50      3.90690E-03
  121.50      3.28560E-03
  122.50      3.84460E-03
  123.50      3.89880E-03
  124.50      3.85610E-03
  125.50      3.90650E-03
  126.50      3.92700E-03
  127.50      3.95490E-03
  128.50      3.95590E-03
  129.50      3.89960E-03
  130.50      3.85480E-03
  131.50      3.89280E-03
  132.50      3.85260E-03
  133.50      3.83430E-03
  134.50      3.81790E-03
  135.50      3.74490E-03
  136.50      3.66890E-03
  137.50      3.60270E-03
  138.50      3.61920E-03
  139.50      3.45450E-03
  140.50      3.36840E-03
  141.50      3.60120E-03
  142.50      3.42770E-03
  143.50      3.53610E-03
  144.20      3.47590E-03
  144.70      3.47500E-03
  145.50      3.40910E-03
  146.50      3.41960E-03
  147.50      3.40830E-03
  148.50      3.44420E-03
  149.50      3.39200E-03
  150.50      3.40760E-03
  151.20      3.41170E-03
  151.70      3.36730E-03
  152.50      3.34790E-03
  153.50      3.17440E-03
  154.50      2.85500E-03
  155.50      2.90090E-03
  156.50      3.06250E-03
  157.50      3.13560E-03
  158.50      3.11210E-03
  159.50      3.12390E-03
  160.50      3.01730E-03
  161.50      2.96750E-03
  162.50      2.97540E-03
  163.50      2.96630E-03
  164.50      2.88270E-03
  165.50      3.02370E-03
  166.50      2.98400E-03
  167.20      2.88620E-03
  167.70      3.06050E-03
  168.50      3.02540E-03
  169.50      3.00950E-03
  170.50      2.96620E-03
  171.50      2.89580E-03
  172.50      2.87510E-03
  173.50      2.94610E-03
  174.50      2.92950E-03
  175.50      2.89340E-03
  176.50      2.88080E-03
  177.50      2.86570E-03
  178.50      2.87440E-03
  179.50      2.82990E-03
  180.50      2.82260E-03
  181.50      2.80510E-03
  182.50      2.78080E-03
  183.50      2.78300E-03
  184.50      2.76300E-03
  185.50      2.74450E-03
  186.50      2.73080E-03
  187.50      2.69490E-03
  188.50      2.67880E-03
  189.50      2.69270E-03
  190.50      2.68280E-03
  191.50      2.66130E-03
  192.50      2.58980E-03
  193.50      2.63640E-03
  194.50      2.62430E-03
  195.50      2.57780E-03
  196.70      2.58150E-03
  197.60      2.56650E-03
  198.40      2.55960E-03
  199.50      2.53880E-03
  200.50      2.53220E-03
  201.50      2.51640E-03
  202.50      2.49980E-03
  203.50      2.48160E-03
  204.50      2.45750E-03
  205.50      1.87280E-03
  206.50      1.81340E-03
  207.40      1.86970E-03
  207.80      1.92020E-03
  208.50      2.07270E-03
  209.50      2.30870E-03
  210.50      2.36380E-03
  211.50      2.37120E-03
  212.50      2.34130E-03
  213.50      2.34040E-03
  214.50      2.32930E-03
  215.50      2.34920E-03
  216.50      2.24710E-03
  217.50      2.33660E-03
  218.50      2.24980E-03
  219.50      2.31560E-03
  220.50      2.30170E-03
  221.50      2.20740E-03
  222.50      2.27270E-03
  223.50      2.26170E-03
  224.50      2.24500E-03
  225.50      2.16300E-03
  226.50      2.21840E-03
  227.50      2.21020E-03
  228.50      2.18080E-03
  229.50      2.13690E-03
  230.50      2.09940E-03
  231.50      2.13990E-03
  232.50      2.13950E-03
  233.50      2.12930E-03
  234.50      2.11280E-03
  235.50      2.09780E-03
  236.50      2.08360E-03
  237.50      2.06330E-03
  238.50      1.97600E-03
  239.50      2.02520E-03
  240.50      2.02770E-03
  241.50      2.01190E-03
  242.50      2.01300E-03
  243.50      1.99610E-03
  244.50      1.98660E-03
  245.50      1.96620E-03
  246.50      1.96380E-03
  247.50      1.95700E-03
  248.50      1.93660E-03
  249.50      1.72550E-03
  250.50      1.90360E-03
  251.30      1.78710E-03
  251.80      1.86620E-03
  252.50      1.88900E-03
  253.50      1.88800E-03
  254.50      1.87720E-03
  255.50      1.86490E-03
  256.50      1.85540E-03
  257.50      1.84570E-03
  258.50      1.83590E-03
  259.50      1.80750E-03
  260.50      1.81490E-03
  261.50      1.79580E-03
  262.50      1.79530E-03
  263.50      1.78720E-03
  264.50      1.77290E-03
  265.50      1.76730E-03
  266.50      1.75440E-03
  267.50      1.73170E-03
  268.50      1.73210E-03
  269.50      1.72330E-03
  270.50      1.72030E-03
  271.50      1.70850E-03
  272.50      1.69730E-03
  273.50      1.64310E-03
  274.50      1.68290E-03
  275.50      1.67160E-03
  276.50      1.66210E-03
  277.50      1.65370E-03
  278.50      1.63960E-03
  279.50      1.62320E-03
  280.50      1.62500E-03
  281.50      1.61760E-03
  282.50      1.60630E-03
  283.50      1.60010E-03
  284.50      1.59500E-03
  285.50      1.58600E-03
  286.50      1.57620E-03
  287.50      1.56800E-03
  288.50      1.56060E-03
  289.50      1.55090E-03
  291.00      1.53750E-03
  293.00      1.52420E-03
  295.00      1.50720E-03
  297.00      1.48970E-03
  299.00      1.46960E-03
  301.00      1.45540E-03
  303.00      1.43370E-03
  305.00      1.42510E-03
  307.00      1.41130E-03
  309.00      1.39980E-03
  311.00      1.38670E-03
  313.00      1.37170E-03
  315.00      1.36140E-03
  317.00      1.34720E-03
  319.00      1.33420E-03
  321.00      1.30180E-03
  323.00      1.31040E-03
  325.00      1.29880E-03
  327.00      1.27600E-03
  329.00      1.27120E-03
  331.00      1.25850E-03
  333.00      1.24610E-03
  335.00      1.22960E-03
  337.00      1.22290E-03
  339.00      1.21210E-03
  341.00      1.20020E-03
  343.00      1.19220E-03
  345.00      1.17560E-03
  347.00      1.17040E-03
  349.00      1.16040E-03
  351.00      1.15030E-03
  353.00      1.13830E-03
  355.00      1.12790E-03
  357.00      1.11930E-03
  359.00      1.10830E-03
  361.00      1.09830E-03
  363.00      1.08740E-03
  364.00      1.06460E-03
  365.00      9.75570E-04
  367.00      9.68680E-04
  369.00      9.63030E-04
  371.00      9.59560E-04
  373.00      9.68070E-04
  375.00      9.81590E-04
  377.00      9.89190E-04
  379.00      1.01030E-03
  381.00      1.02730E-03
  383.00      9.77670E-04
  385.00      1.02770E-03
  387.00      1.02550E-03
  389.00      9.46190E-04
  391.00      1.01940E-03
  393.00      1.00300E-03
  395.00      9.98270E-04
  397.00      9.09640E-04
  399.00      9.85880E-04
  401.00      9.79290E-04
  403.00      9.53480E-04
  405.00      9.67320E-04
  407.00      9.54010E-04
  409.00      9.22560E-04
  411.00      8.73340E-04
  413.00      9.30910E-04
  415.00      9.25210E-04
  417.00      9.20700E-04
  419.00      9.09070E-04
  421.00      8.92610E-04
  423.00      8.99270E-04
  425.00      8.91050E-04
  427.00      8.83930E-04
  429.00      8.76990E-04
  431.00      8.67790E-04
  433.00      8.35900E-04
  435.00      8.02020E-04
  437.00      8.47860E-04
  439.00      8.37860E-04
  441.00      8.34320E-04
  443.00      8.29650E-04
  445.00      8.23080E-04
  447.00      8.08940E-04
  449.00      8.10690E-04
  451.00      8.03410E-04
  453.00      7.97100E-04
  455.00      7.79150E-04
  457.00      7.86760E-04
  459.00      7.80210E-04
  461.00      7.74500E-04
  463.00      7.65730E-04
  465.00      7.51000E-04
  467.00      7.55980E-04
  469.00      7.27950E-04
  471.00      7.44130E-04
  473.00      7.42670E-04
  475.00      7.37200E-04
  477.00      7.31810E-04
  479.00      7.26480E-04
  481.00      7.21080E-04
  483.00      7.15250E-04
  485.00      6.94620E-04
  487.00      6.56790E-04
  489.00      6.98970E-04
  491.00      6.95230E-04
  493.00      6.86600E-04
  495.00      6.85410E-04
  497.00      6.81250E-04
  499.00      6.76560E-04
  501.00      6.68970E-04
  503.00      6.66480E-04
  505.00      6.61580E-04
  507.00      6.57890E-04
  509.00      6.53400E-04
  511.00      6.48940E-04
  513.00      6.44440E-04
  515.00      6.40050E-04
  517.00      6.35650E-04
  519.00      6.31390E-04
  521.00      6.27150E-04
  523.00      6.22980E-04
  525.00      6.18460E-04
  527.00      6.13840E-04
  529.00      6.10570E-04
  531.00      6.06480E-04
  533.00      6.02450E-04
  535.00      5.98530E-04
  537.00      5.94590E-04
  539.00      5.90650E-04
  541.00      5.76520E-04
  543.00      5.82970E-04
  545.00      5.79240E-04
  547.00      5.75440E-04
  549.00      5.71770E-04
  551.00      5.67630E-04
  553.00      5.64450E-04
  555.00      5.60860E-04
  557.00      5.57180E-04
  559.00      5.52310E-04
  561.00      5.50250E-04
  563.00      5.46780E-04
  565.00      5.43330E-04
  567.00      5.39920E-04
  569.00      5.29530E-04
  571.00      5.00720E-04
  573.00      4.97850E-04
  575.00      4.94960E-04
  577.00      4.92270E-04
  579.00      4.89720E-04
  581.00      4.86540E-04
  583.00      4.85830E-04
  585.00      4.85110E-04
  587.00      4.80020E-04
  589.00      4.83910E-04
  591.00      4.83820E-04
  593.00      4.84000E-04
  595.00      4.84570E-04
  597.00      4.85190E-04
  599.00      4.86060E-04
  601.00      4.84900E-04
  603.00      4.82820E-04
  605.00      4.81410E-04
  607.00      4.78170E-04
  609.00      4.75960E-04
  611.00      4.72720E-04
  613.00      4.69980E-04
  615.00      4.67730E-04
  617.00      4.63600E-04
  619.00      4.62400E-04
  621.00      4.59800E-04
  623.00      4.55440E-04
  625.00      4.54150E-04
  627.00      4.51870E-04
  629.00      4.49300E-04
  631.00      4.44330E-04
  633.00      4.44010E-04
  635.00      4.41620E-04
  637.00      4.39150E-04
  639.00      4.36500E-04
  641.00      4.31160E-04
  643.00      4.31770E-04
  645.00      4.29260E-04
  647.00      4.26830E-04
  649.00      4.24520E-04
  651.00      4.21820E-04
  653.00      4.15610E-04
  655.00      4.11840E-04
  657.00      3.85690E-04
  659.00      4.11970E-04
  661.00      4.10690E-04
  663.00      4.08450E-04
  665.00      4.06220E-04
  667.00      4.01650E-04
  669.00      3.96090E-04
  671.00      3.99100E-04
  673.00      3.97330E-04
  675.00      3.95210E-04
  677.00      3.93210E-04
  679.00      3.91150E-04
  681.00      3.89060E-04
  683.00      3.86990E-04
  685.00      3.84910E-04
  687.00      3.82850E-04
  689.00      3.76120E-04
  691.00      3.78630E-04
  693.00      3.76870E-04
  695.00      3.74890E-04
  697.00      3.72930E-04
  699.00      3.70980E-04
  701.00      3.68910E-04
  703.00      3.66900E-04
  705.00      3.65020E-04
  707.00      3.61090E-04
  709.00      3.61480E-04
  711.00      3.59600E-04
  713.00      3.57760E-04
  715.00      3.55960E-04
  717.00      3.50990E-04
  719.00      3.50620E-04
  721.00      3.50550E-04
  723.00      3.48760E-04
  725.00      3.47010E-04
  727.00      3.45270E-04
  729.00      3.42720E-04
  731.00      3.41660E-04
  733.00      3.40110E-04
  735.00      3.38410E-04
  737.00      3.36660E-04
  739.00      3.35060E-04
  741.00      3.33320E-04
  743.00      3.31750E-04
  745.00      3.29920E-04
  747.00      3.28500E-04
  749.00      3.26630E-04
  751.00      3.25200E-04
  753.00      3.23700E-04
  755.00      3.22120E-04
  757.00      3.20540E-04
  759.00      3.14500E-04
  761.00      3.17150E-04
  763.00      3.15900E-04
  765.00      3.14370E-04
  767.00      3.12910E-04
  769.00      3.11090E-04
  771.00      3.09820E-04
  773.00      3.08020E-04
  775.00      3.06980E-04
  777.00      3.05530E-04
  779.00      3.04080E-04
  781.00      3.02630E-04
  783.00      3.01220E-04
  785.00      2.99660E-04
  787.00      2.98300E-04
  789.00      2.96960E-04
  791.00      2.95660E-04
  793.00      2.94290E-04
  795.00      2.92920E-04
  797.00      2.91390E-04
  799.00      2.90200E-04
  801.00      2.88880E-04
  803.00      2.87490E-04
  805.00      2.86230E-04
  807.00      2.84920E-04
  809.00      2.83610E-04
  811.00      2.82300E-04
  813.00      2.81040E-04
  815.00      2.79760E-04
  817.00      2.78330E-04
  819.00      2.76120E-04
  821.00      2.65880E-04
  823.00      2.63110E-04
  825.00      2.63330E-04
  827.00      2.62410E-04
  829.00      2.61430E-04
  831.00      2.60350E-04
  833.00      2.59040E-04
  835.00      2.57940E-04
  837.00      2.57030E-04
  839.00      2.56070E-04
  841.00      2.55120E-04
  843.00      2.54190E-04
  845.00      2.53090E-04
  847.00      2.52380E-04
  849.00      2.51600E-04
  851.00      2.50600E-04
  853.00      2.50090E-04
  855.00      2.49000E-04
  857.00      2.48890E-04
  859.00      2.47200E-04
  861.00      2.46730E-04
  863.00      2.47230E-04
  865.00      2.45790E-04
  867.00      2.42840E-04
  869.00      2.45380E-04
  871.00      2.45400E-04
  873.00      2.43810E-04
  875.00      2.37930E-04
  877.00      2.41700E-04
  879.00      2.43350E-04
  881.00      2.43000E-04
  883.00      2.42060E-04
  885.00      2.37010E-04
  887.00      2.30550E-04
  889.00      2.38350E-04
  891.00      2.38790E-04
  893.00      2.37850E-04
  895.00      2.37200E-04
  897.00      2.36070E-04
  899.00      2.33480E-04
  901.00      2.22810E-04
  903.00      2.26740E-04
  905.00      2.31550E-04
  907.00      2.30980E-04
  909.00      2.30630E-04
  911.00      2.29420E-04
  913.00      2.28980E-04
  915.00      2.28100E-04
  917.00      2.26920E-04
  919.00      2.25480E-04
  921.00      2.21540E-04
  923.00      2.09380E-04
  925.00      2.19410E-04
  927.00      2.21740E-04
  929.00      2.21570E-04
  931.00      2.20560E-04
  933.00      2.19670E-04
  935.00      2.14650E-04
  937.00      2.17200E-04
  939.00      2.17180E-04
  941.00      2.16290E-04
  943.00      2.15490E-04
  945.00      2.14660E-04
  947.00      2.13580E-04
  949.00      2.12880E-04
  951.00      2.10810E-04
  953.00      2.06750E-04
  955.00      1.95310E-04
  957.00      2.06700E-04
  959.00      2.08170E-04
  961.00      2.07830E-04
  963.00      2.06900E-04
  965.00      2.06380E-04
  967.00      2.05580E-04
  969.00      2.04760E-04
  971.00      2.03130E-04
  973.00      2.03100E-04
  975.00      2.02190E-04
  977.00      2.00540E-04
  979.00      2.00850E-04
  981.00      2.00080E-04
  983.00      1.99260E-04
  985.00      1.98550E-04
  987.00      1.97800E-04
  989.00      1.97030E-04
  991.00      1.96250E-04
  993.00      1.95540E-04
  995.00      1.94800E-04
  997.00      1.94070E-04
  999.00      1.93330E-04
  1002.5      1.88300E-04
  1007.5      1.84900E-04
  1012.5      1.85500E-04
  1017.5      1.86740E-04
  1022.5      1.85000E-04
  1027.5      1.83270E-04
  1032.5      1.81350E-04
  1037.5      1.79980E-04
  1042.5      1.77620E-04
  1047.5      1.76750E-04
  1052.5      1.75160E-04
  1057.5      1.73590E-04
  1062.5      1.72050E-04
  1067.5      1.70470E-04
  1072.5      1.69020E-04
  1077.5      1.67530E-04
  1082.5      1.65350E-04
  1087.5      1.64460E-04
  1092.5      1.56570E-04
  1097.5      1.60200E-04
  1102.5      1.60230E-04
  1107.5      1.59010E-04
  1112.5      1.57660E-04
  1117.5      1.56400E-04
  1122.5      1.55050E-04
  1127.5      1.53750E-04
  1132.5      1.52450E-04
  1137.5      1.51190E-04
  1142.5      1.49940E-04
  1147.5      1.48700E-04
  1152.5      1.47480E-04
  1157.5      1.46260E-04
  1162.5      1.43740E-04
  1167.5      1.42980E-04
  1172.5      1.42720E-04
  1177.5      1.41560E-04
  1182.5      1.40400E-04
  1187.5      1.39290E-04
  1192.5      1.38180E-04
  1197.5      1.36640E-04
  1202.5      1.36000E-04
  1207.5      1.34910E-04
  1212.5      1.33840E-04
  1217.5      1.32810E-04
  1222.5      1.31780E-04
  1227.5      1.30750E-04
  1232.5      1.29740E-04
  1237.5      1.28740E-04
  1242.5      1.27750E-04
  1247.5      1.26770E-04
  1252.5      1.25740E-04
  1257.5      1.24850E-04
  1262.5      1.23900E-04
  1267.5      1.22970E-04
  1272.5      1.22040E-04
  1277.5      1.20240E-04
  1282.5      1.15010E-04
  1287.5      1.19060E-04
  1292.5      1.18450E-04
  1297.5      1.17400E-04
  1302.5      1.16700E-04
  1307.5      1.15850E-04
  1312.5      1.15010E-04
  1317.5      1.14170E-04
  1322.5      1.13340E-04
  1327.5      1.12530E-04
  1332.5      1.11720E-04
  1337.5      1.10910E-04
  1342.5      1.10100E-04
  1347.5      1.09340E-04
  1352.5      1.08560E-04
  1357.5      1.07790E-04
  1362.5      1.07030E-04
  1367.5      1.06280E-04
  1372.5      1.05530E-04
  1377.5      1.04800E-04
  1382.5      1.04070E-04
  1387.5      1.03350E-04
  1392.5      1.02640E-04
  1397.5      1.01930E-04
