 Castelli and Kurucz 2004-2012 Atmosphere
 T     34000.     G    4.00000 [-0.5a] N(He)/Ntot=0.0784 VTURB=2.0  L/H=1.25 OD
 Wavelength  Eddington Hnu
   (nm)    (ergs/s/cm2/Hz/sr)
  9.0900      8.65640E-31
  9.3500      4.58640E-30
  9.6100      2.22990E-29
  9.7700      5.69540E-29
  9.9600      1.66750E-28
  10.200      6.14090E-28
  10.380      1.57450E-27
  10.560      3.91750E-27
  10.770      1.09420E-26
  11.040      3.88160E-26
  11.400      1.92310E-25
  11.780      9.44320E-25
  12.130      3.76390E-24
  12.480      1.39430E-23
  12.710      3.17760E-23
  12.840      5.00010E-23
  13.050      1.02130E-22
  13.240      1.91430E-22
  13.390      3.10690E-22
  13.660      7.25020E-22
  13.980      1.90570E-21
  14.330      5.23460E-21
  14.720      1.52780E-20
  15.100      4.15340E-20
  15.520      1.18720E-19
  15.880      2.80610E-19
  16.200      5.84830E-19
  16.600      1.41500E-18
  17.030      3.49770E-18
  17.340      6.56040E-18
  17.680      1.27920E-17
  18.020      2.43040E-17
  18.170      3.21330E-17
  18.610      7.06020E-17
  19.100      1.63110E-16
  19.390      2.62710E-16
  19.840      5.37210E-16
  20.180      9.02810E-16
  20.500      1.44980E-15
  21.050      3.17240E-15
  21.620      6.83350E-15
  21.980      1.09490E-14
  22.300      1.63910E-14
  22.680      2.60350E-14
  23.000      4.16650E-11
  23.400      1.21420E-10
  24.000      1.88660E-10
  24.650      3.14870E-10
  25.240      5.45810E-10
  25.680      6.74320E-10
  26.000      1.17120E-09
  26.400      1.99040E-09
  26.850      3.14160E-09
  27.350      4.18500E-09
  27.850      4.84800E-09
  28.400      9.78270E-09
  29.000      1.38640E-08
  29.600      1.71460E-08
  30.100      2.41950E-08
  30.800      5.38050E-08
  31.800      1.34430E-07
  32.800      1.97020E-07
  33.800      3.47330E-07
  34.800      5.21320E-07
  35.700      9.78630E-07
  36.600      1.94080E-06
  37.500      2.24220E-06
  38.500      2.96130E-06
  39.500      4.59970E-06
  40.500      5.78900E-06
  41.400      6.89270E-06
  42.200      7.43040E-06
  43.000      7.94310E-06
  44.100      9.72690E-06
  45.100      1.11400E-05
  46.000      1.16270E-05
  47.000      1.33770E-05
  48.000      1.56410E-05
  49.000      1.60390E-05
  50.000      2.03370E-05
  50.600      3.42720E-05
  51.200      1.57690E-04
  52.000      1.50780E-04
  53.000      1.39420E-04
  54.000      1.36520E-04
  55.000      1.44840E-04
  56.000      1.93050E-04
  57.000      2.15280E-04
  58.000      2.07760E-04
  59.000      2.23310E-04
  60.000      1.80270E-04
  61.000      2.17690E-04
  62.000      2.69860E-04
  63.000      2.69950E-04
  64.000      2.86510E-04
  65.000      2.83270E-04
  65.800      2.38200E-04
  66.500      2.87770E-04
  67.500      3.30150E-04
  68.500      2.82620E-04
  69.500      3.45420E-04
  70.500      2.80760E-04
  71.600      3.81930E-04
  72.600      3.86610E-04
  73.500      4.00350E-04
  74.500      3.78750E-04
  75.500      3.87720E-04
  76.500      4.01640E-04
  77.500      4.23470E-04
  78.500      4.26430E-04
  79.500      4.48030E-04
  80.500      4.42230E-04
  81.500      4.53740E-04
  82.500      4.80600E-04
  83.500      4.08490E-04
  84.500      4.87460E-04
  85.500      4.91500E-04
  86.500      5.13930E-04
  87.500      5.23210E-04
  88.500      5.33640E-04
  89.500      5.44570E-04
  90.500      5.41190E-04
  91.500      5.62710E-04
  92.500      1.35420E-03
  93.500      1.92420E-03
  94.500      2.33450E-03
  95.500      2.57300E-03
  96.500      2.84760E-03
  97.500      1.84490E-03
  98.500      2.60360E-03
  99.500      2.43940E-03
  100.50      2.49770E-03
  101.50      2.61940E-03
  102.50      2.27230E-03
  103.50      2.65880E-03
  104.50      2.86900E-03
  105.50      2.83740E-03
  106.50      2.65260E-03
  107.50      2.71870E-03
  108.50      2.60480E-03
  109.50      2.76160E-03
  110.50      2.69650E-03
  111.50      2.68750E-03
  112.50      2.40270E-03
  113.50      2.68910E-03
  114.50      2.64480E-03
  115.50      2.55900E-03
  116.50      2.56510E-03
  117.50      2.05170E-03
  118.50      2.44450E-03
  119.50      2.41500E-03
  120.50      2.37890E-03
  121.50      2.01480E-03
  122.50      2.37010E-03
  123.50      2.48500E-03
  124.50      2.44790E-03
  125.50      2.47240E-03
  126.50      2.51690E-03
  127.50      2.55630E-03
  128.50      2.56840E-03
  129.50      2.47980E-03
  130.50      2.48600E-03
  131.50      2.56180E-03
  132.50      2.52570E-03
  133.50      2.49720E-03
  134.50      2.51460E-03
  135.50      2.48340E-03
  136.50      2.44250E-03
  137.50      2.41930E-03
  138.50      2.40420E-03
  139.50      2.10930E-03
  140.50      2.12950E-03
  141.50      2.37600E-03
  142.50      2.22690E-03
  143.50      2.32950E-03
  144.20      2.32660E-03
  144.70      2.32270E-03
  145.50      2.26410E-03
  146.50      2.26780E-03
  147.50      2.27050E-03
  148.50      2.29260E-03
  149.50      2.25330E-03
  150.50      2.25720E-03
  151.20      2.25990E-03
  151.70      2.25310E-03
  152.50      2.21820E-03
  153.50      2.06100E-03
  154.50      1.84650E-03
  155.50      1.87280E-03
  156.50      2.00320E-03
  157.50      2.08070E-03
  158.50      2.08910E-03
  159.50      2.09600E-03
  160.50      2.00200E-03
  161.50      1.96130E-03
  162.50      1.98860E-03
  163.50      2.00220E-03
  164.50      1.97220E-03
  165.50      2.04740E-03
  166.50      2.01790E-03
  167.20      1.93160E-03
  167.70      2.11640E-03
  168.50      2.07180E-03
  169.50      2.04820E-03
  170.50      2.03010E-03
  171.50      1.98870E-03
  172.50      1.95610E-03
  173.50      2.02250E-03
  174.50      2.01460E-03
  175.50      1.99070E-03
  176.50      1.98880E-03
  177.50      1.97360E-03
  178.50      1.98660E-03
  179.50      1.95930E-03
  180.50      1.96620E-03
  181.50      1.94950E-03
  182.50      1.93460E-03
  183.50      1.94880E-03
  184.50      1.91430E-03
  185.50      1.91120E-03
  186.50      1.90890E-03
  187.50      1.88540E-03
  188.50      1.86230E-03
  189.50      1.86610E-03
  190.50      1.88350E-03
  191.50      1.86020E-03
  192.50      1.80030E-03
  193.50      1.85300E-03
  194.50      1.85940E-03
  195.50      1.79140E-03
  196.70      1.82610E-03
  197.60      1.83260E-03
  198.40      1.81510E-03
  199.50      1.78890E-03
  200.50      1.81130E-03
  201.50      1.80610E-03
  202.50      1.79670E-03
  203.50      1.77960E-03
  204.50      1.76620E-03
  205.50      1.42890E-03
  206.50      1.39250E-03
  207.40      1.44860E-03
  207.80      1.47090E-03
  208.50      1.58840E-03
  209.50      1.69240E-03
  210.50      1.70440E-03
  211.50      1.71930E-03
  212.50      1.69620E-03
  213.50      1.70080E-03
  214.50      1.69210E-03
  215.50      1.70310E-03
  216.50      1.64660E-03
  217.50      1.68930E-03
  218.50      1.64900E-03
  219.50      1.67910E-03
  220.50      1.66890E-03
  221.50      1.62300E-03
  222.50      1.64860E-03
  223.50      1.64070E-03
  224.50      1.63000E-03
  225.50      1.59110E-03
  226.50      1.61340E-03
  227.50      1.60730E-03
  228.50      1.58580E-03
  229.50      1.52190E-03
  230.50      1.54630E-03
  231.50      1.56050E-03
  232.50      1.55980E-03
  233.50      1.55220E-03
  234.50      1.54280E-03
  235.50      1.53230E-03
  236.50      1.52280E-03
  237.50      1.50990E-03
  238.50      1.46270E-03
  239.50      1.48190E-03
  240.50      1.48750E-03
  241.50      1.47640E-03
  242.50      1.47470E-03
  243.50      1.46290E-03
  244.50      1.45700E-03
  245.50      1.44560E-03
  246.50      1.44190E-03
  247.50      1.43400E-03
  248.50      1.41490E-03
  249.50      1.16220E-03
  250.50      1.38600E-03
  251.30      1.33840E-03
  251.80      1.36870E-03
  252.50      1.39450E-03
  253.50      1.39170E-03
  254.50      1.37980E-03
  255.50      1.37330E-03
  256.50      1.36740E-03
  257.50      1.36210E-03
  258.50      1.35560E-03
  259.50      1.34040E-03
  260.50      1.34270E-03
  261.50      1.33110E-03
  262.50      1.32840E-03
  263.50      1.32250E-03
  264.50      1.31340E-03
  265.50      1.30820E-03
  266.50      1.29770E-03
  267.50      1.28230E-03
  268.50      1.28560E-03
  269.50      1.27640E-03
  270.50      1.27500E-03
  271.50      1.26650E-03
  272.50      1.25750E-03
  273.50      1.23240E-03
  274.50      1.25050E-03
  275.50      1.24270E-03
  276.50      1.23300E-03
  277.50      1.23170E-03
  278.50      1.22200E-03
  279.50      1.20260E-03
  280.50      1.20880E-03
  281.50      1.20600E-03
  282.50      1.19700E-03
  283.50      1.19150E-03
  284.50      1.19030E-03
  285.50      1.18290E-03
  286.50      1.17560E-03
  287.50      1.17000E-03
  288.50      1.16510E-03
  289.50      1.15870E-03
  291.00      1.14730E-03
  293.00      1.13970E-03
  295.00      1.12540E-03
  297.00      1.11550E-03
  299.00      1.10080E-03
  301.00      1.08920E-03
  303.00      1.07450E-03
  305.00      1.06940E-03
  307.00      1.06240E-03
  309.00      1.04890E-03
  311.00      1.04270E-03
  313.00      1.03130E-03
  315.00      1.02320E-03
  317.00      1.01360E-03
  319.00      1.00340E-03
  321.00      9.86860E-04
  323.00      9.86830E-04
  325.00      9.79670E-04
  327.00      9.64040E-04
  329.00      9.59590E-04
  331.00      9.50690E-04
  333.00      9.41020E-04
  335.00      9.29840E-04
  337.00      9.24200E-04
  339.00      9.18630E-04
  341.00      9.10040E-04
  343.00      9.02560E-04
  345.00      8.90690E-04
  347.00      8.86210E-04
  349.00      8.79050E-04
  351.00      8.72280E-04
  353.00      8.64930E-04
  355.00      8.56990E-04
  357.00      8.51360E-04
  359.00      8.41800E-04
  361.00      8.35140E-04
  363.00      8.26990E-04
  364.00      8.18420E-04
  365.00      7.74450E-04
  367.00      7.69850E-04
  369.00      7.64350E-04
  371.00      7.55370E-04
  373.00      7.52780E-04
  375.00      7.66780E-04
  377.00      7.67330E-04
  379.00      7.86760E-04
  381.00      8.04290E-04
  383.00      7.54550E-04
  385.00      8.08690E-04
  387.00      8.01010E-04
  389.00      7.36260E-04
  391.00      8.01010E-04
  393.00      7.87910E-04
  395.00      7.82020E-04
  397.00      7.07660E-04
  399.00      7.75290E-04
  401.00      7.68140E-04
  403.00      7.49840E-04
  405.00      7.60030E-04
  407.00      7.45240E-04
  409.00      7.22380E-04
  411.00      6.80300E-04
  413.00      7.29200E-04
  415.00      7.25460E-04
  417.00      7.24310E-04
  419.00      7.16610E-04
  421.00      7.07730E-04
  423.00      7.08520E-04
  425.00      7.00400E-04
  427.00      6.93960E-04
  429.00      6.88850E-04
  431.00      6.81050E-04
  433.00      6.58670E-04
  435.00      6.25610E-04
  437.00      6.67790E-04
  439.00      6.58230E-04
  441.00      6.56830E-04
  443.00      6.54710E-04
  445.00      6.49730E-04
  447.00      6.35750E-04
  449.00      6.40250E-04
  451.00      6.34590E-04
  453.00      6.31220E-04
  455.00      6.21050E-04
  457.00      6.22700E-04
  459.00      6.16570E-04
  461.00      6.12150E-04
  463.00      6.05480E-04
  465.00      5.88840E-04
  467.00      5.97480E-04
  469.00      5.83140E-04
  471.00      5.85980E-04
  473.00      5.89110E-04
  475.00      5.84600E-04
  477.00      5.80920E-04
  479.00      5.76860E-04
  481.00      5.72400E-04
  483.00      5.67660E-04
  485.00      5.52270E-04
  487.00      5.17410E-04
  489.00      5.55490E-04
  491.00      5.52160E-04
  493.00      5.43180E-04
  495.00      5.43750E-04
  497.00      5.41830E-04
  499.00      5.38150E-04
  501.00      5.30110E-04
  503.00      5.29970E-04
  505.00      5.25660E-04
  507.00      5.23700E-04
  509.00      5.20110E-04
  511.00      5.16640E-04
  513.00      5.13160E-04
  515.00      5.09720E-04
  517.00      5.06100E-04
  519.00      5.02970E-04
  521.00      4.99760E-04
  523.00      4.96530E-04
  525.00      4.92850E-04
  527.00      4.89380E-04
  529.00      4.86850E-04
  531.00      4.83640E-04
  533.00      4.80540E-04
  535.00      4.77470E-04
  537.00      4.74390E-04
  539.00      4.71250E-04
  541.00      4.63760E-04
  543.00      4.65380E-04
  545.00      4.62390E-04
  547.00      4.59420E-04
  549.00      4.56550E-04
  551.00      4.53440E-04
  553.00      4.50820E-04
  555.00      4.48030E-04
  557.00      4.45150E-04
  559.00      4.41510E-04
  561.00      4.39710E-04
  563.00      4.36990E-04
  565.00      4.34270E-04
  567.00      4.31500E-04
  569.00      4.24840E-04
  571.00      4.12970E-04
  573.00      4.10660E-04
  575.00      4.08090E-04
  577.00      4.06030E-04
  579.00      4.03770E-04
  581.00      4.01380E-04
  583.00      3.99760E-04
  585.00      3.98770E-04
  587.00      3.91400E-04
  589.00      3.96060E-04
  591.00      3.95120E-04
  593.00      3.94140E-04
  595.00      3.93340E-04
  597.00      3.92560E-04
  599.00      3.91460E-04
  601.00      3.89950E-04
  603.00      3.87560E-04
  605.00      3.85350E-04
  607.00      3.83110E-04
  609.00      3.81010E-04
  611.00      3.78640E-04
  613.00      3.76480E-04
  615.00      3.74300E-04
  617.00      3.71770E-04
  619.00      3.70180E-04
  621.00      3.68090E-04
  623.00      3.65460E-04
  625.00      3.63830E-04
  627.00      3.61850E-04
  629.00      3.59820E-04
  631.00      3.56980E-04
  633.00      3.55780E-04
  635.00      3.53730E-04
  637.00      3.51830E-04
  639.00      3.49870E-04
  641.00      3.47030E-04
  643.00      3.46010E-04
  645.00      3.44030E-04
  647.00      3.42040E-04
  649.00      3.40200E-04
  651.00      3.38280E-04
  653.00      3.34920E-04
  655.00      3.30530E-04
  657.00      3.06750E-04
  659.00      3.30310E-04
  661.00      3.29320E-04
  663.00      3.27590E-04
  665.00      3.25780E-04
  667.00      3.21710E-04
  669.00      3.19080E-04
  671.00      3.20110E-04
  673.00      3.18580E-04
  675.00      3.17080E-04
  677.00      3.15570E-04
  679.00      3.13850E-04
  681.00      3.12280E-04
  683.00      3.10610E-04
  685.00      3.08980E-04
  687.00      3.07330E-04
  689.00      3.04170E-04
  691.00      3.03880E-04
  693.00      3.02630E-04
  695.00      3.01060E-04
  697.00      2.99510E-04
  699.00      2.97960E-04
  701.00      2.96280E-04
  703.00      2.94630E-04
  705.00      2.93190E-04
  707.00      2.88870E-04
  709.00      2.90420E-04
  711.00      2.88890E-04
  713.00      2.87450E-04
  715.00      2.86040E-04
  717.00      2.83600E-04
  719.00      2.82730E-04
  721.00      2.81750E-04
  723.00      2.80030E-04
  725.00      2.78830E-04
  727.00      2.77550E-04
  729.00      2.74830E-04
  731.00      2.74720E-04
  733.00      2.73440E-04
  735.00      2.72090E-04
  737.00      2.70740E-04
  739.00      2.69430E-04
  741.00      2.68090E-04
  743.00      2.66810E-04
  745.00      2.65440E-04
  747.00      2.64110E-04
  749.00      2.62680E-04
  751.00      2.61600E-04
  753.00      2.60390E-04
  755.00      2.59160E-04
  757.00      2.57900E-04
  759.00      2.55260E-04
  761.00      2.55290E-04
  763.00      2.54190E-04
  765.00      2.52970E-04
  767.00      2.51830E-04
  769.00      2.50360E-04
  771.00      2.49370E-04
  773.00      2.47900E-04
  775.00      2.47090E-04
  777.00      2.45950E-04
  779.00      2.44800E-04
  781.00      2.43600E-04
  783.00      2.42520E-04
  785.00      2.41420E-04
  787.00      2.40180E-04
  789.00      2.39080E-04
  791.00      2.38140E-04
  793.00      2.37050E-04
  795.00      2.35970E-04
  797.00      2.34750E-04
  799.00      2.33770E-04
  801.00      2.32730E-04
  803.00      2.31620E-04
  805.00      2.30590E-04
  807.00      2.29570E-04
  809.00      2.28380E-04
  811.00      2.27120E-04
  813.00      2.26470E-04
  815.00      2.25260E-04
  817.00      2.24380E-04
  819.00      2.22850E-04
  821.00      2.18710E-04
  823.00      2.17160E-04
  825.00      2.16970E-04
  827.00      2.15620E-04
  829.00      2.15150E-04
  831.00      2.14300E-04
  833.00      2.13170E-04
  835.00      2.11880E-04
  837.00      2.11330E-04
  839.00      2.10630E-04
  841.00      2.09760E-04
  843.00      2.08880E-04
  845.00      2.07530E-04
  847.00      2.07160E-04
  849.00      2.06330E-04
  851.00      2.05010E-04
  853.00      2.04880E-04
  855.00      2.02960E-04
  857.00      2.04250E-04
  859.00      2.00730E-04
  861.00      2.00500E-04
  863.00      2.02770E-04
  865.00      2.00320E-04
  867.00      1.94450E-04
  869.00      2.00710E-04
  871.00      2.01000E-04
  873.00      1.98420E-04
  875.00      1.88570E-04
  877.00      1.95780E-04
  879.00      1.98560E-04
  881.00      1.98050E-04
  883.00      1.96920E-04
  885.00      1.90890E-04
  887.00      1.82590E-04
  889.00      1.93700E-04
  891.00      1.94110E-04
  893.00      1.93440E-04
  895.00      1.92820E-04
  897.00      1.91990E-04
  899.00      1.89380E-04
  901.00      1.77260E-04
  903.00      1.82820E-04
  905.00      1.88270E-04
  907.00      1.87230E-04
  909.00      1.87210E-04
  911.00      1.86740E-04
  913.00      1.86080E-04
  915.00      1.85360E-04
  917.00      1.84310E-04
  919.00      1.83400E-04
  921.00      1.79320E-04
  923.00      1.66390E-04
  925.00      1.78130E-04
  927.00      1.80340E-04
  929.00      1.80080E-04
  931.00      1.79030E-04
  933.00      1.78620E-04
  935.00      1.76450E-04
  937.00      1.77130E-04
  939.00      1.76580E-04
  941.00      1.75790E-04
  943.00      1.75140E-04
  945.00      1.74460E-04
  947.00      1.73310E-04
  949.00      1.73050E-04
  951.00      1.71050E-04
  953.00      1.67380E-04
  955.00      1.55790E-04
  957.00      1.68080E-04
  959.00      1.69390E-04
  961.00      1.68810E-04
  963.00      1.67930E-04
  965.00      1.67810E-04
  967.00      1.67170E-04
  969.00      1.66470E-04
  971.00      1.64490E-04
  973.00      1.65080E-04
  975.00      1.64610E-04
  977.00      1.63760E-04
  979.00      1.63340E-04
  981.00      1.62700E-04
  983.00      1.62090E-04
  985.00      1.61460E-04
  987.00      1.60870E-04
  989.00      1.60190E-04
  991.00      1.59500E-04
  993.00      1.59050E-04
  995.00      1.58460E-04
  997.00      1.57850E-04
  999.00      1.57260E-04
  1002.5      1.52660E-04
  1007.5      1.49740E-04
  1012.5      1.51910E-04
  1017.5      1.51940E-04
  1022.5      1.50490E-04
  1027.5      1.49150E-04
  1032.5      1.47430E-04
  1037.5      1.46470E-04
  1042.5      1.45000E-04
  1047.5      1.43850E-04
  1052.5      1.42560E-04
  1057.5      1.41290E-04
  1062.5      1.40040E-04
  1067.5      1.38690E-04
  1072.5      1.37590E-04
  1077.5      1.36380E-04
  1082.5      1.34270E-04
  1087.5      1.33920E-04
  1092.5      1.26500E-04
  1097.5      1.30370E-04
  1102.5      1.30250E-04
  1107.5      1.29460E-04
  1112.5      1.28380E-04
  1117.5      1.27320E-04
  1122.5      1.26210E-04
  1127.5      1.25180E-04
  1132.5      1.24100E-04
  1137.5      1.23090E-04
  1142.5      1.22080E-04
  1147.5      1.21070E-04
  1152.5      1.20090E-04
  1157.5      1.19100E-04
  1162.5      1.17710E-04
  1167.5      1.16920E-04
  1172.5      1.16230E-04
  1177.5      1.15290E-04
  1182.5      1.14340E-04
  1187.5      1.13440E-04
  1192.5      1.12540E-04
  1197.5      1.11000E-04
  1202.5      1.10780E-04
  1207.5      1.09900E-04
  1212.5      1.09020E-04
  1217.5      1.08190E-04
  1222.5      1.07350E-04
  1227.5      1.06520E-04
  1232.5      1.05690E-04
  1237.5      1.04880E-04
  1242.5      1.04080E-04
  1247.5      1.03290E-04
  1252.5      1.02370E-04
  1257.5      1.01720E-04
  1262.5      1.00950E-04
  1267.5      1.00200E-04
  1272.5      9.94500E-05
  1277.5      9.77580E-05
  1282.5      9.32590E-05
  1287.5      9.70270E-05
  1292.5      9.65330E-05
  1297.5      9.54840E-05
  1302.5      9.50990E-05
  1307.5      9.44280E-05
  1312.5      9.37410E-05
  1317.5      9.30620E-05
  1322.5      9.23900E-05
  1327.5      9.17260E-05
  1332.5      9.10660E-05
  1337.5      9.04080E-05
  1342.5      8.97260E-05
  1347.5      8.91310E-05
  1352.5      8.84920E-05
  1357.5      8.78820E-05
  1362.5      8.72480E-05
  1367.5      8.66550E-05
  1372.5      8.60230E-05
  1377.5      8.54540E-05
  1382.5      8.48630E-05
  1387.5      8.42770E-05
  1392.5      8.36840E-05
  1397.5      8.31230E-05
