 Castelli and Kurucz 2004-2012 Atmosphere
 T     47000.     G    4.50000 [-0.5a] N(He)/Ntot=0.0784 VTURB=2.0  L/H=1.25 OD
 Wavelength  Eddington Hnu
   (nm)    (ergs/s/cm2/Hz/sr)
  9.0900      1.07120E-19
  9.3500      3.04960E-19
  9.6100      8.04930E-19
  9.7700      1.46860E-18
  9.9600      2.86800E-18
  10.200      6.45540E-18
  10.380      1.15930E-17
  10.560      2.04210E-17
  10.770      3.86290E-17
  11.040      8.46860E-17
  11.400      2.28010E-16
  11.780      6.05870E-16
  12.130      1.42830E-15
  12.480      3.18750E-15
  12.710      5.29410E-15
  12.840      7.21160E-15
  13.050      1.11540E-14
  13.240      1.63460E-14
  13.390      2.20350E-14
  13.660      3.66980E-14
  13.980      6.65430E-14
  14.330      1.21650E-13
  14.720      2.22270E-13
  15.100      4.22060E-13
  15.520      7.93480E-13
  15.880      1.34250E-12
  16.200      2.41500E-12
  16.600      4.13950E-12
  17.030      6.87920E-12
  17.340      9.88860E-12
  17.680      1.49810E-11
  18.020      2.20670E-11
  18.170      2.53770E-11
  18.610      4.16370E-11
  19.100      6.67060E-11
  19.390      9.12060E-11
  19.840      1.38580E-10
  20.180      1.83600E-10
  20.500      2.46360E-10
  21.050      3.85930E-10
  21.620      5.96130E-10
  21.980      7.93130E-10
  22.300      9.84360E-10
  22.680      1.26760E-09
  23.000      1.56930E-07
  23.400      1.24840E-06
  24.000      2.83140E-06
  24.650      1.19460E-05
  25.240      5.24050E-05
  25.680      8.69230E-05
  26.000      8.57490E-05
  26.400      1.98720E-04
  26.850      2.35230E-04
  27.350      2.82180E-04
  27.850      2.16560E-04
  28.400      3.72160E-04
  29.000      5.09250E-04
  29.600      4.42870E-04
  30.100      2.40610E-04
  30.800      3.05280E-04
  31.800      1.07590E-04
  32.800      1.39750E-04
  33.800      9.08060E-05
  34.800      9.99420E-05
  35.700      2.63080E-04
  36.600      5.23620E-04
  37.500      6.89420E-04
  38.500      6.63500E-04
  39.500      1.01800E-03
  40.500      1.48180E-03
  41.400      1.50840E-03
  42.200      1.43550E-03
  43.000      1.40520E-03
  44.100      1.71260E-03
  45.100      1.81770E-03
  46.000      1.61700E-03
  47.000      1.80470E-03
  48.000      2.04590E-03
  49.000      1.76460E-03
  50.000      2.40150E-03
  50.600      2.03530E-03
  51.200      2.47340E-03
  52.000      2.41520E-03
  53.000      2.34560E-03
  54.000      2.04740E-03
  55.000      1.71920E-03
  56.000      2.23270E-03
  57.000      2.64630E-03
  58.000      2.70860E-03
  59.000      2.77180E-03
  60.000      2.51700E-03
  61.000      2.12800E-03
  62.000      2.71100E-03
  63.000      2.49290E-03
  64.000      2.92100E-03
  65.000      2.78880E-03
  65.800      2.55280E-03
  66.500      2.95120E-03
  67.500      3.01520E-03
  68.500      2.81830E-03
  69.500      3.07350E-03
  70.500      2.77990E-03
  71.600      3.09050E-03
  72.600      3.19080E-03
  73.500      3.19360E-03
  74.500      3.12440E-03
  75.500      3.07260E-03
  76.500      2.90110E-03
  77.500      3.13140E-03
  78.500      2.80940E-03
  79.500      3.09480E-03
  80.500      3.18960E-03
  81.500      3.20740E-03
  82.500      3.24670E-03
  83.500      3.01440E-03
  84.500      3.22760E-03
  85.500      3.10770E-03
  86.500      3.26510E-03
  87.500      3.30200E-03
  88.500      3.25220E-03
  89.500      3.26480E-03
  90.500      3.21100E-03
  91.500      2.49390E-03
  92.500      3.93850E-03
  93.500      4.74470E-03
  94.500      5.28220E-03
  95.500      6.04380E-03
  96.500      6.32470E-03
  97.500      5.32730E-03
  98.500      5.99590E-03
  99.500      5.58240E-03
  100.50      5.76640E-03
  101.50      5.85480E-03
  102.50      5.45170E-03
  103.50      6.06440E-03
  104.50      6.19670E-03
  105.50      6.16510E-03
  106.50      5.91190E-03
  107.50      6.11160E-03
  108.50      5.78700E-03
  109.50      6.03460E-03
  110.50      5.97670E-03
  111.50      5.94420E-03
  112.50      5.83280E-03
  113.50      5.96170E-03
  114.50      5.96090E-03
  115.50      5.82110E-03
  116.50      5.66010E-03
  117.50      5.38640E-03
  118.50      5.65160E-03
  119.50      5.48880E-03
  120.50      5.49840E-03
  121.50      4.81630E-03
  122.50      5.43220E-03
  123.50      5.25160E-03
  124.50      5.17420E-03
  125.50      5.32520E-03
  126.50      5.30300E-03
  127.50      5.28700E-03
  128.50      5.26210E-03
  129.50      5.26570E-03
  130.50      5.15010E-03
  131.50      5.12750E-03
  132.50      5.07330E-03
  133.50      5.05630E-03
  134.50      5.01090E-03
  135.50      4.90100E-03
  136.50      4.75180E-03
  137.50      4.60850E-03
  138.50      4.73050E-03
  139.50      4.63430E-03
  140.50      4.48590E-03
  141.50      4.76940E-03
  142.50      4.64690E-03
  143.50      4.71840E-03
  144.20      4.57410E-03
  144.70      4.58430E-03
  145.50      4.52770E-03
  146.50      4.51680E-03
  147.50      4.52850E-03
  148.50      4.56570E-03
  149.50      4.50510E-03
  150.50      4.48000E-03
  151.20      4.48540E-03
  151.70      4.40540E-03
  152.50      4.44170E-03
  153.50      4.30260E-03
  154.50      3.97960E-03
  155.50      4.00180E-03
  156.50      4.19580E-03
  157.50      4.23890E-03
  158.50      4.16180E-03
  159.50      4.17250E-03
  160.50      4.08870E-03
  161.50      4.05740E-03
  162.50      4.03710E-03
  163.50      4.02170E-03
  164.50      3.86180E-03
  165.50      4.02910E-03
  166.50      4.00500E-03
  167.20      3.91610E-03
  167.70      4.01630E-03
  168.50      4.00150E-03
  169.50      3.99260E-03
  170.50      3.92980E-03
  171.50      3.82240E-03
  172.50      3.81720E-03
  173.50      3.88640E-03
  174.50      3.85110E-03
  175.50      3.82140E-03
  176.50      3.79020E-03
  177.50      3.77200E-03
  178.50      3.76340E-03
  179.50      3.71790E-03
  180.50      3.69520E-03
  181.50      3.66430E-03
  182.50      3.64540E-03
  183.50      3.62270E-03
  184.50      3.60420E-03
  185.50      3.57280E-03
  186.50      3.55750E-03
  187.50      3.52170E-03
  188.50      3.49600E-03
  189.50      3.49380E-03
  190.50      3.47040E-03
  191.50      3.44470E-03
  192.50      3.37540E-03
  193.50      3.40210E-03
  194.50      3.38300E-03
  195.50      3.35090E-03
  196.70      3.32930E-03
  197.60      3.29440E-03
  198.40      3.29520E-03
  199.50      3.26460E-03
  200.50      3.25050E-03
  201.50      3.22970E-03
  202.50      3.20980E-03
  203.50      3.18290E-03
  204.50      3.14690E-03
  205.50      2.45230E-03
  206.50      2.38550E-03
  207.40      2.45320E-03
  207.80      2.51980E-03
  208.50      2.70550E-03
  209.50      2.97540E-03
  210.50      3.02250E-03
  211.50      3.02250E-03
  212.50      2.99310E-03
  213.50      2.98350E-03
  214.50      2.96390E-03
  215.50      2.98270E-03
  216.50      2.86450E-03
  217.50      2.95980E-03
  218.50      2.86370E-03
  219.50      2.93090E-03
  220.50      2.91010E-03
  221.50      2.80430E-03
  222.50      2.87690E-03
  223.50      2.85990E-03
  224.50      2.84200E-03
  225.50      2.74650E-03
  226.50      2.80220E-03
  227.50      2.79280E-03
  228.50      2.76050E-03
  229.50      2.72990E-03
  230.50      2.66280E-03
  231.50      2.70590E-03
  232.50      2.70280E-03
  233.50      2.68780E-03
  234.50      2.66620E-03
  235.50      2.64630E-03
  236.50      2.62890E-03
  237.50      2.60770E-03
  238.50      2.50790E-03
  239.50      2.56260E-03
  240.50      2.55090E-03
  241.50      2.53090E-03
  242.50      2.53610E-03
  243.50      2.51450E-03
  244.50      2.50180E-03
  245.50      2.46960E-03
  246.50      2.46900E-03
  247.50      2.46270E-03
  248.50      2.44040E-03
  249.50      2.31870E-03
  250.50      2.40890E-03
  251.30      2.26150E-03
  251.80      2.36170E-03
  252.50      2.36820E-03
  253.50      2.37320E-03
  254.50      2.36120E-03
  255.50      2.34650E-03
  256.50      2.33480E-03
  257.50      2.31920E-03
  258.50      2.30470E-03
  259.50      2.26530E-03
  260.50      2.28030E-03
  261.50      2.24940E-03
  262.50      2.25490E-03
  263.50      2.24270E-03
  264.50      2.22440E-03
  265.50      2.21650E-03
  266.50      2.20250E-03
  267.50      2.17520E-03
  268.50      2.17390E-03
  269.50      2.16060E-03
  270.50      2.15580E-03
  271.50      2.14280E-03
  272.50      2.12920E-03
  273.50      2.06270E-03
  274.50      2.10740E-03
  275.50      2.09220E-03
  276.50      2.08310E-03
  277.50      2.06830E-03
  278.50      2.04920E-03
  279.50      2.03980E-03
  280.50      2.03420E-03
  281.50      2.02330E-03
  282.50      2.00780E-03
  283.50      2.00210E-03
  284.50      1.99240E-03
  285.50      1.98140E-03
  286.50      1.96690E-03
  287.50      1.95450E-03
  288.50      1.94830E-03
  289.50      1.93570E-03
  291.00      1.92150E-03
  293.00      1.90290E-03
  295.00      1.88260E-03
  297.00      1.85940E-03
  299.00      1.83540E-03
  301.00      1.81770E-03
  303.00      1.79170E-03
  305.00      1.77810E-03
  307.00      1.75320E-03
  309.00      1.74490E-03
  311.00      1.72720E-03
  313.00      1.70790E-03
  315.00      1.69440E-03
  317.00      1.67590E-03
  319.00      1.66050E-03
  321.00      1.61810E-03
  323.00      1.62900E-03
  325.00      1.61310E-03
  327.00      1.58630E-03
  329.00      1.57890E-03
  331.00      1.56300E-03
  333.00      1.54770E-03
  335.00      1.52630E-03
  337.00      1.51720E-03
  339.00      1.49930E-03
  341.00      1.48350E-03
  343.00      1.47610E-03
  345.00      1.45680E-03
  347.00      1.44770E-03
  349.00      1.43450E-03
  351.00      1.42310E-03
  353.00      1.40790E-03
  355.00      1.39540E-03
  357.00      1.38220E-03
  359.00      1.37040E-03
  361.00      1.35780E-03
  363.00      1.34400E-03
  364.00      1.31240E-03
  365.00      1.19710E-03
  367.00      1.18800E-03
  369.00      1.18200E-03
  371.00      1.18250E-03
  373.00      1.19380E-03
  375.00      1.21230E-03
  377.00      1.22570E-03
  379.00      1.24240E-03
  381.00      1.25490E-03
  383.00      1.21020E-03
  385.00      1.24800E-03
  387.00      1.24760E-03
  389.00      1.16970E-03
  391.00      1.23140E-03
  393.00      1.21170E-03
  395.00      1.21010E-03
  397.00      1.12550E-03
  399.00      1.19080E-03
  401.00      1.18350E-03
  403.00      1.15620E-03
  405.00      1.16480E-03
  407.00      1.15410E-03
  409.00      1.12380E-03
  411.00      1.07290E-03
  413.00      1.12520E-03
  415.00      1.11720E-03
  417.00      1.10850E-03
  419.00      1.09550E-03
  421.00      1.07550E-03
  423.00      1.08180E-03
  425.00      1.07290E-03
  427.00      1.06440E-03
  429.00      1.05590E-03
  431.00      1.04630E-03
  433.00      1.01490E-03
  435.00      9.81180E-04
  437.00      1.02070E-03
  439.00      1.01180E-03
  441.00      1.00410E-03
  443.00      9.97730E-04
  445.00      9.89270E-04
  447.00      9.79280E-04
  449.00      9.74530E-04
  451.00      9.66760E-04
  453.00      9.58310E-04
  455.00      9.37320E-04
  457.00      9.45080E-04
  459.00      9.37960E-04
  461.00      9.30840E-04
  463.00      9.21030E-04
  465.00      9.09770E-04
  467.00      9.08910E-04
  469.00      8.74950E-04
  471.00      8.96470E-04
  473.00      8.90550E-04
  475.00      8.83970E-04
  477.00      8.77320E-04
  479.00      8.70150E-04
  481.00      8.64360E-04
  483.00      8.57820E-04
  485.00      8.38710E-04
  487.00      8.00080E-04
  489.00      8.38800E-04
  491.00      8.33380E-04
  493.00      8.26790E-04
  495.00      8.21730E-04
  497.00      8.15890E-04
  499.00      8.10220E-04
  501.00      8.03690E-04
  503.00      7.98620E-04
  505.00      7.92920E-04
  507.00      7.87570E-04
  509.00      7.82200E-04
  511.00      7.76750E-04
  513.00      7.71280E-04
  515.00      7.65990E-04
  517.00      7.60840E-04
  519.00      7.55590E-04
  521.00      7.50310E-04
  523.00      7.45350E-04
  525.00      7.40030E-04
  527.00      7.34620E-04
  529.00      7.30320E-04
  531.00      7.25380E-04
  533.00      7.20490E-04
  535.00      7.15760E-04
  537.00      7.10930E-04
  539.00      7.06230E-04
  541.00      6.89560E-04
  543.00      6.96980E-04
  545.00      6.92420E-04
  547.00      6.87800E-04
  549.00      6.83390E-04
  551.00      6.78540E-04
  553.00      6.74550E-04
  555.00      6.70200E-04
  557.00      6.65650E-04
  559.00      6.60220E-04
  561.00      6.57370E-04
  563.00      6.53170E-04
  565.00      6.49020E-04
  567.00      6.44900E-04
  569.00      6.32400E-04
  571.00      5.94880E-04
  573.00      5.91400E-04
  575.00      5.87920E-04
  577.00      5.84730E-04
  579.00      5.81860E-04
  581.00      5.77460E-04
  583.00      5.77980E-04
  585.00      5.77070E-04
  587.00      5.74570E-04
  589.00      5.76110E-04
  591.00      5.76240E-04
  593.00      5.76810E-04
  595.00      5.78000E-04
  597.00      5.78990E-04
  599.00      5.80400E-04
  601.00      5.78420E-04
  603.00      5.76250E-04
  605.00      5.74240E-04
  607.00      5.70140E-04
  609.00      5.67760E-04
  611.00      5.63650E-04
  613.00      5.60350E-04
  615.00      5.58060E-04
  617.00      5.52500E-04
  619.00      5.51360E-04
  621.00      5.48330E-04
  623.00      5.42600E-04
  625.00      5.41400E-04
  627.00      5.38780E-04
  629.00      5.35690E-04
  631.00      5.29030E-04
  633.00      5.29310E-04
  635.00      5.26490E-04
  637.00      5.23480E-04
  639.00      5.20200E-04
  641.00      5.13110E-04
  643.00      5.14580E-04
  645.00      5.11640E-04
  647.00      5.08730E-04
  649.00      5.05920E-04
  651.00      5.02770E-04
  653.00      4.94640E-04
  655.00      4.92670E-04
  657.00      4.65100E-04
  659.00      4.91420E-04
  661.00      4.89230E-04
  663.00      4.86530E-04
  665.00      4.83850E-04
  667.00      4.79780E-04
  669.00      4.72210E-04
  671.00      4.75540E-04
  673.00      4.73320E-04
  675.00      4.70730E-04
  677.00      4.68200E-04
  679.00      4.65700E-04
  681.00      4.63190E-04
  683.00      4.60700E-04
  685.00      4.58220E-04
  687.00      4.55770E-04
  689.00      4.47020E-04
  691.00      4.50740E-04
  693.00      4.48540E-04
  695.00      4.46170E-04
  697.00      4.43820E-04
  699.00      4.41480E-04
  701.00      4.39060E-04
  703.00      4.36670E-04
  705.00      4.34380E-04
  707.00      4.31640E-04
  709.00      4.30070E-04
  711.00      4.27750E-04
  713.00      4.25520E-04
  715.00      4.23430E-04
  717.00      4.17060E-04
  719.00      4.16750E-04
  721.00      4.16940E-04
  723.00      4.14820E-04
  725.00      4.12710E-04
  727.00      4.10610E-04
  729.00      4.08400E-04
  731.00      4.06310E-04
  733.00      4.04420E-04
  735.00      4.02380E-04
  737.00      4.00290E-04
  739.00      3.98290E-04
  741.00      3.96290E-04
  743.00      3.94400E-04
  745.00      3.92230E-04
  747.00      3.90490E-04
  749.00      3.88450E-04
  751.00      3.86560E-04
  753.00      3.84750E-04
  755.00      3.82850E-04
  757.00      3.80980E-04
  759.00      3.73240E-04
  761.00      3.76920E-04
  763.00      3.75420E-04
  765.00      3.73590E-04
  767.00      3.71760E-04
  769.00      3.69790E-04
  771.00      3.68090E-04
  773.00      3.66150E-04
  775.00      3.64710E-04
  777.00      3.62970E-04
  779.00      3.61230E-04
  781.00      3.59510E-04
  783.00      3.57800E-04
  785.00      3.55910E-04
  787.00      3.54330E-04
  789.00      3.52720E-04
  791.00      3.51100E-04
  793.00      3.49460E-04
  795.00      3.47810E-04
  797.00      3.46010E-04
  799.00      3.44580E-04
  801.00      3.42980E-04
  803.00      3.41350E-04
  805.00      3.39810E-04
  807.00      3.38240E-04
  809.00      3.36680E-04
  811.00      3.35130E-04
  813.00      3.33600E-04
  815.00      3.32070E-04
  817.00      3.30370E-04
  819.00      3.27560E-04
  821.00      3.13300E-04
  823.00      3.09990E-04
  825.00      3.10250E-04
  827.00      3.09260E-04
  829.00      3.07950E-04
  831.00      3.06650E-04
  833.00      3.05200E-04
  835.00      3.04060E-04
  837.00      3.02850E-04
  839.00      3.01700E-04
  841.00      3.00650E-04
  843.00      2.99620E-04
  845.00      2.98590E-04
  847.00      2.97650E-04
  849.00      2.96870E-04
  851.00      2.95870E-04
  853.00      2.95270E-04
  855.00      2.94090E-04
  857.00      2.93790E-04
  859.00      2.92590E-04
  861.00      2.91780E-04
  863.00      2.91950E-04
  865.00      2.90920E-04
  867.00      2.88280E-04
  869.00      2.90130E-04
  871.00      2.89940E-04
  873.00      2.88930E-04
  875.00      2.83780E-04
  877.00      2.86980E-04
  879.00      2.87800E-04
  881.00      2.87380E-04
  883.00      2.86510E-04
  885.00      2.82280E-04
  887.00      2.75940E-04
  889.00      2.82350E-04
  891.00      2.82310E-04
  893.00      2.81080E-04
  895.00      2.80580E-04
  897.00      2.79240E-04
  899.00      2.76780E-04
  901.00      2.66900E-04
  903.00      2.70240E-04
  905.00      2.73910E-04
  907.00      2.73560E-04
  909.00      2.72580E-04
  911.00      2.70710E-04
  913.00      2.70330E-04
  915.00      2.69270E-04
  917.00      2.68080E-04
  919.00      2.66650E-04
  921.00      2.63360E-04
  923.00      2.51320E-04
  925.00      2.60560E-04
  927.00      2.62200E-04
  929.00      2.61640E-04
  931.00      2.60580E-04
  933.00      2.59280E-04
  935.00      2.52940E-04
  937.00      2.56060E-04
  939.00      2.56310E-04
  941.00      2.55350E-04
  943.00      2.54350E-04
  945.00      2.53320E-04
  947.00      2.52310E-04
  949.00      2.51270E-04
  951.00      2.49730E-04
  953.00      2.45990E-04
  955.00      2.34310E-04
  957.00      2.45060E-04
  959.00      2.46080E-04
  961.00      2.45410E-04
  963.00      2.44390E-04
  965.00      2.43490E-04
  967.00      2.42540E-04
  969.00      2.41590E-04
  971.00      2.40420E-04
  973.00      2.39670E-04
  975.00      2.38420E-04
  977.00      2.36040E-04
  979.00      2.36930E-04
  981.00      2.36020E-04
  983.00      2.35060E-04
  985.00      2.34210E-04
  987.00      2.33310E-04
  989.00      2.32410E-04
  991.00      2.31510E-04
  993.00      2.30640E-04
  995.00      2.29760E-04
  997.00      2.28880E-04
  999.00      2.28010E-04
  1002.5      2.23440E-04
  1007.5      2.19530E-04
  1012.5      2.18640E-04
  1017.5      2.20200E-04
  1022.5      2.18160E-04
  1027.5      2.16100E-04
  1032.5      2.14060E-04
  1037.5      2.12180E-04
  1042.5      2.09080E-04
  1047.5      2.08360E-04
  1052.5      2.06470E-04
  1057.5      2.04620E-04
  1062.5      2.02790E-04
  1067.5      2.00980E-04
  1072.5      1.99200E-04
  1077.5      1.97440E-04
  1082.5      1.95460E-04
  1087.5      1.93940E-04
  1092.5      1.86270E-04
  1097.5      1.89430E-04
  1102.5      1.88970E-04
  1107.5      1.87350E-04
  1112.5      1.85740E-04
  1117.5      1.84270E-04
  1122.5      1.82690E-04
  1127.5      1.81140E-04
  1132.5      1.79600E-04
  1137.5      1.78110E-04
  1142.5      1.76620E-04
  1147.5      1.75150E-04
  1152.5      1.73700E-04
  1157.5      1.72260E-04
  1162.5      1.69010E-04
  1167.5      1.68160E-04
  1172.5      1.68060E-04
  1177.5      1.66690E-04
  1182.5      1.65330E-04
  1187.5      1.64000E-04
  1192.5      1.62690E-04
  1197.5      1.61310E-04
  1202.5      1.60100E-04
  1207.5      1.58820E-04
  1212.5      1.57560E-04
  1217.5      1.56330E-04
  1222.5      1.55110E-04
  1227.5      1.53890E-04
  1232.5      1.52690E-04
  1237.5      1.51510E-04
  1242.5      1.50340E-04
  1247.5      1.49180E-04
  1252.5      1.48030E-04
  1257.5      1.46900E-04
  1262.5      1.45780E-04
  1267.5      1.44680E-04
  1272.5      1.43580E-04
  1277.5      1.42070E-04
  1282.5      1.36380E-04
  1287.5      1.40220E-04
  1292.5      1.39330E-04
  1297.5      1.38280E-04
  1302.5      1.37280E-04
  1307.5      1.36270E-04
  1312.5      1.35270E-04
  1317.5      1.34280E-04
  1322.5      1.33300E-04
  1327.5      1.32330E-04
  1332.5      1.31370E-04
  1337.5      1.30430E-04
  1342.5      1.29490E-04
  1347.5      1.28560E-04
  1352.5      1.27640E-04
  1357.5      1.26740E-04
  1362.5      1.25840E-04
  1367.5      1.24950E-04
  1372.5      1.24070E-04
  1377.5      1.23200E-04
  1382.5      1.22340E-04
  1387.5      1.21490E-04
  1392.5      1.20650E-04
  1397.5      1.19810E-04
