 Castelli and Kurucz 2004-2012 Atmosphere
 T     37000.     G    5.00000 [-0.5a] N(He)/Ntot=0.0784 VTURB=2.0  L/H=1.25 OD
 Wavelength  Eddington Hnu
   (nm)    (ergs/s/cm2/Hz/sr)
  9.0900      3.59250E-27
  9.3500      1.53510E-26
  9.6100      6.07990E-26
  9.7700      1.37800E-25
  9.9600      3.51470E-25
  10.200      1.09520E-24
  10.380      2.48980E-24
  10.560      5.51440E-24
  10.770      1.35120E-23
  11.040      4.08020E-23
  11.400      1.64970E-22
  11.780      6.61970E-22
  12.130      2.21450E-21
  12.480      6.94750E-21
  12.710      1.42600E-20
  12.840      2.11830E-20
  13.050      3.95100E-20
  13.240      6.83550E-20
  13.390      1.04300E-19
  13.660      2.18380E-19
  13.980      5.07540E-19
  14.330      1.22480E-18
  14.720      3.10910E-18
  15.100      7.45260E-18
  15.520      1.85980E-17
  15.880      3.93030E-17
  16.200      7.44140E-17
  16.600      1.60700E-16
  17.030      3.53030E-16
  17.340      6.10310E-16
  17.680      1.09160E-15
  18.020      1.90760E-15
  18.170      2.43150E-15
  18.610      4.82580E-15
  19.100      1.00020E-14
  19.390      1.51470E-14
  19.840      2.82360E-14
  20.180      4.43560E-14
  20.500      6.70020E-14
  21.050      1.32510E-13
  21.620      2.58380E-13
  21.980      3.89900E-13
  22.300      5.54180E-13
  22.680      8.28960E-13
  23.000      4.74060E-10
  23.400      1.70680E-09
  24.000      2.75420E-09
  24.650      4.38360E-09
  25.240      7.37250E-09
  25.680      8.90430E-09
  26.000      1.39750E-08
  26.400      2.36880E-08
  26.850      3.61360E-08
  27.350      4.58600E-08
  27.850      4.91550E-08
  28.400      9.79180E-08
  29.000      1.31200E-07
  29.600      1.47420E-07
  30.100      2.00520E-07
  30.800      6.33080E-07
  31.800      1.00330E-06
  32.800      1.41000E-06
  33.800      2.06590E-06
  34.800      2.85380E-06
  35.700      5.25010E-06
  36.600      9.51180E-06
  37.500      1.08790E-05
  38.500      1.31250E-05
  39.500      1.88220E-05
  40.500      2.24810E-05
  41.400      2.53740E-05
  42.200      2.62450E-05
  43.000      2.72780E-05
  44.100      3.17810E-05
  45.100      3.58390E-05
  46.000      3.63970E-05
  47.000      4.03840E-05
  48.000      4.58110E-05
  49.000      4.65950E-05
  50.000      5.59370E-05
  50.600      7.90340E-05
  51.200      3.26690E-04
  52.000      3.09630E-04
  53.000      2.94020E-04
  54.000      2.79100E-04
  55.000      2.99970E-04
  56.000      3.78490E-04
  57.000      4.03730E-04
  58.000      3.91050E-04
  59.000      4.16970E-04
  60.000      3.62740E-04
  61.000      4.10010E-04
  62.000      4.83330E-04
  63.000      4.83600E-04
  64.000      5.03470E-04
  65.000      5.01660E-04
  65.800      4.48530E-04
  66.500      5.10780E-04
  67.500      5.60240E-04
  68.500      5.02610E-04
  69.500      5.80950E-04
  70.500      5.08860E-04
  71.600      6.26800E-04
  72.600      6.32540E-04
  73.500      6.52310E-04
  74.500      6.32040E-04
  75.500      6.40310E-04
  76.500      6.56630E-04
  77.500      6.78280E-04
  78.500      6.88190E-04
  79.500      7.07700E-04
  80.500      7.04750E-04
  81.500      7.20970E-04
  82.500      7.50930E-04
  83.500      6.70820E-04
  84.500      7.60720E-04
  85.500      7.64270E-04
  86.500      7.92530E-04
  87.500      8.03260E-04
  88.500      8.14250E-04
  89.500      8.26890E-04
  90.500      8.21740E-04
  91.500      7.52960E-04
  92.500      1.47440E-03
  93.500      2.17750E-03
  94.500      3.08010E-03
  95.500      3.53850E-03
  96.500      4.32540E-03
  97.500      2.60390E-03
  98.500      4.11060E-03
  99.500      3.74380E-03
  100.50      3.92230E-03
  101.50      4.04150E-03
  102.50      2.93110E-03
  103.50      4.04240E-03
  104.50      4.39610E-03
  105.50      4.34410E-03
  106.50      3.99760E-03
  107.50      4.12450E-03
  108.50      3.81700E-03
  109.50      4.16500E-03
  110.50      4.03520E-03
  111.50      4.02560E-03
  112.50      3.62080E-03
  113.50      3.99490E-03
  114.50      3.89910E-03
  115.50      3.76650E-03
  116.50      3.73760E-03
  117.50      3.07940E-03
  118.50      3.57180E-03
  119.50      3.51820E-03
  120.50      3.42160E-03
  121.50      2.52910E-03
  122.50      3.37350E-03
  123.50      3.55480E-03
  124.50      3.51170E-03
  125.50      3.53850E-03
  126.50      3.58010E-03
  127.50      3.61320E-03
  128.50      3.62330E-03
  129.50      3.47700E-03
  130.50      3.49350E-03
  131.50      3.58030E-03
  132.50      3.51360E-03
  133.50      3.47660E-03
  134.50      3.46710E-03
  135.50      3.43990E-03
  136.50      3.36840E-03
  137.50      3.33570E-03
  138.50      3.30190E-03
  139.50      2.96550E-03
  140.50      2.97080E-03
  141.50      3.24190E-03
  142.50      3.04590E-03
  143.50      3.17250E-03
  144.20      3.16640E-03
  144.70      3.15290E-03
  145.50      3.07830E-03
  146.50      3.07700E-03
  147.50      3.05630E-03
  148.50      3.08690E-03
  149.50      3.03270E-03
  150.50      3.02000E-03
  151.20      3.02570E-03
  151.70      3.00580E-03
  152.50      2.96150E-03
  153.50      2.75990E-03
  154.50      2.51490E-03
  155.50      2.53970E-03
  156.50      2.66480E-03
  157.50      2.73890E-03
  158.50      2.74780E-03
  159.50      2.75880E-03
  160.50      2.64300E-03
  161.50      2.57800E-03
  162.50      2.60800E-03
  163.50      2.60020E-03
  164.50      2.54670E-03
  165.50      2.66700E-03
  166.50      2.62710E-03
  167.20      2.52710E-03
  167.70      2.72770E-03
  168.50      2.67780E-03
  169.50      2.64760E-03
  170.50      2.61370E-03
  171.50      2.56570E-03
  172.50      2.51380E-03
  173.50      2.59210E-03
  174.50      2.58090E-03
  175.50      2.54610E-03
  176.50      2.53670E-03
  177.50      2.51520E-03
  178.50      2.52690E-03
  179.50      2.49190E-03
  180.50      2.49220E-03
  181.50      2.47070E-03
  182.50      2.44760E-03
  183.50      2.45760E-03
  184.50      2.41430E-03
  185.50      2.40320E-03
  186.50      2.39700E-03
  187.50      2.36640E-03
  188.50      2.33780E-03
  189.50      2.33840E-03
  190.50      2.35300E-03
  191.50      2.32090E-03
  192.50      2.24490E-03
  193.50      2.30490E-03
  194.50      2.30920E-03
  195.50      2.23400E-03
  196.70      2.26440E-03
  197.60      2.26880E-03
  198.40      2.24510E-03
  199.50      2.21480E-03
  200.50      2.23240E-03
  201.50      2.22260E-03
  202.50      2.20800E-03
  203.50      2.18660E-03
  204.50      2.16960E-03
  205.50      1.73140E-03
  206.50      1.67320E-03
  207.40      1.69880E-03
  207.80      1.71250E-03
  208.50      1.78710E-03
  209.50      1.93400E-03
  210.50      2.06430E-03
  211.50      2.09150E-03
  212.50      2.05970E-03
  213.50      2.06230E-03
  214.50      2.05040E-03
  215.50      2.05630E-03
  216.50      1.98490E-03
  217.50      2.04330E-03
  218.50      1.97800E-03
  219.50      2.02560E-03
  220.50      2.01550E-03
  221.50      1.93600E-03
  222.50      1.98870E-03
  223.50      1.97980E-03
  224.50      1.96240E-03
  225.50      1.88980E-03
  226.50      1.94150E-03
  227.50      1.93260E-03
  228.50      1.90400E-03
  229.50      1.83870E-03
  230.50      1.83020E-03
  231.50      1.87000E-03
  232.50      1.86830E-03
  233.50      1.85880E-03
  234.50      1.84670E-03
  235.50      1.83290E-03
  236.50      1.82040E-03
  237.50      1.80300E-03
  238.50      1.72560E-03
  239.50      1.76650E-03
  240.50      1.77410E-03
  241.50      1.76030E-03
  242.50      1.75650E-03
  243.50      1.74110E-03
  244.50      1.73340E-03
  245.50      1.71860E-03
  246.50      1.71430E-03
  247.50      1.70470E-03
  248.50      1.68680E-03
  249.50      1.46710E-03
  250.50      1.65180E-03
  251.30      1.55670E-03
  251.80      1.61450E-03
  252.50      1.65120E-03
  253.50      1.64630E-03
  254.50      1.63180E-03
  255.50      1.62220E-03
  256.50      1.61440E-03
  257.50      1.60760E-03
  258.50      1.59910E-03
  259.50      1.58170E-03
  260.50      1.58280E-03
  261.50      1.56930E-03
  262.50      1.56470E-03
  263.50      1.55650E-03
  264.50      1.54590E-03
  265.50      1.53840E-03
  266.50      1.52520E-03
  267.50      1.50690E-03
  268.50      1.50950E-03
  269.50      1.49680E-03
  270.50      1.49490E-03
  271.50      1.48490E-03
  272.50      1.47080E-03
  273.50      1.43040E-03
  274.50      1.46290E-03
  275.50      1.45390E-03
  276.50      1.44040E-03
  277.50      1.43970E-03
  278.50      1.42870E-03
  279.50      1.40440E-03
  280.50      1.41080E-03
  281.50      1.40760E-03
  282.50      1.39460E-03
  283.50      1.38740E-03
  284.50      1.38700E-03
  285.50      1.37770E-03
  286.50      1.36860E-03
  287.50      1.36180E-03
  288.50      1.35550E-03
  289.50      1.34640E-03
  291.00      1.33290E-03
  293.00      1.32340E-03
  295.00      1.30400E-03
  297.00      1.29350E-03
  299.00      1.27590E-03
  301.00      1.26120E-03
  303.00      1.24390E-03
  305.00      1.23670E-03
  307.00      1.22830E-03
  309.00      1.21130E-03
  311.00      1.20330E-03
  313.00      1.18920E-03
  315.00      1.17880E-03
  317.00      1.16690E-03
  319.00      1.15310E-03
  321.00      1.13180E-03
  323.00      1.13460E-03
  325.00      1.12540E-03
  327.00      1.10720E-03
  329.00      1.10140E-03
  331.00      1.09070E-03
  333.00      1.07910E-03
  335.00      1.06590E-03
  337.00      1.05870E-03
  339.00      1.05150E-03
  341.00      1.04120E-03
  343.00      1.03170E-03
  345.00      1.01740E-03
  347.00      1.01170E-03
  349.00      1.00300E-03
  351.00      9.94300E-04
  353.00      9.86350E-04
  355.00      9.76400E-04
  357.00      9.70470E-04
  359.00      9.57660E-04
  361.00      9.50950E-04
  363.00      9.40220E-04
  364.00      9.31810E-04
  365.00      8.83030E-04
  367.00      8.77550E-04
  369.00      8.70630E-04
  371.00      8.56710E-04
  373.00      8.55660E-04
  375.00      8.54470E-04
  377.00      8.44790E-04
  379.00      8.65650E-04
  381.00      8.89870E-04
  383.00      8.23890E-04
  385.00      9.02230E-04
  387.00      9.04370E-04
  389.00      7.93380E-04
  391.00      9.06520E-04
  393.00      9.00220E-04
  395.00      8.85000E-04
  397.00      7.61720E-04
  399.00      8.74850E-04
  401.00      8.73660E-04
  403.00      8.43800E-04
  405.00      8.66990E-04
  407.00      8.47660E-04
  409.00      8.00500E-04
  411.00      7.41370E-04
  413.00      8.26950E-04
  415.00      8.25270E-04
  417.00      8.25630E-04
  419.00      8.14520E-04
  421.00      8.04180E-04
  423.00      8.06830E-04
  425.00      7.96780E-04
  427.00      7.88830E-04
  429.00      7.82060E-04
  431.00      7.70650E-04
  433.00      7.23270E-04
  435.00      6.83040E-04
  437.00      7.54130E-04
  439.00      7.41420E-04
  441.00      7.44920E-04
  443.00      7.42310E-04
  445.00      7.36430E-04
  447.00      7.11440E-04
  449.00      7.24910E-04
  451.00      7.19030E-04
  453.00      7.14190E-04
  455.00      6.99820E-04
  457.00      7.04670E-04
  459.00      6.97500E-04
  461.00      6.91790E-04
  463.00      6.83250E-04
  465.00      6.65040E-04
  467.00      6.74670E-04
  469.00      6.55720E-04
  471.00      6.59970E-04
  473.00      6.64650E-04
  475.00      6.59370E-04
  477.00      6.55090E-04
  479.00      6.50230E-04
  481.00      6.44410E-04
  483.00      6.36320E-04
  485.00      6.03200E-04
  487.00      5.60190E-04
  489.00      6.21020E-04
  491.00      6.19590E-04
  493.00      6.07030E-04
  495.00      6.11360E-04
  497.00      6.09130E-04
  499.00      6.04790E-04
  501.00      5.94510E-04
  503.00      5.95100E-04
  505.00      5.89930E-04
  507.00      5.87920E-04
  509.00      5.83690E-04
  511.00      5.79640E-04
  513.00      5.75610E-04
  515.00      5.71590E-04
  517.00      5.67360E-04
  519.00      5.63730E-04
  521.00      5.59980E-04
  523.00      5.56210E-04
  525.00      5.52030E-04
  527.00      5.48050E-04
  529.00      5.44970E-04
  531.00      5.41280E-04
  533.00      5.37650E-04
  535.00      5.34080E-04
  537.00      5.30520E-04
  539.00      5.26890E-04
  541.00      5.15980E-04
  543.00      5.19980E-04
  545.00      5.16610E-04
  547.00      5.13200E-04
  549.00      5.09860E-04
  551.00      5.06340E-04
  553.00      5.03250E-04
  555.00      5.00030E-04
  557.00      4.96750E-04
  559.00      4.92670E-04
  561.00      4.90430E-04
  563.00      4.87300E-04
  565.00      4.84180E-04
  567.00      4.80970E-04
  569.00      4.73800E-04
  571.00      4.61220E-04
  573.00      4.58570E-04
  575.00      4.55620E-04
  577.00      4.53200E-04
  579.00      4.50490E-04
  581.00      4.47510E-04
  583.00      4.44960E-04
  585.00      4.43050E-04
  587.00      4.32340E-04
  589.00      4.38370E-04
  591.00      4.37300E-04
  593.00      4.35740E-04
  595.00      4.34260E-04
  597.00      4.33010E-04
  599.00      4.31640E-04
  601.00      4.30320E-04
  603.00      4.28660E-04
  605.00      4.27530E-04
  607.00      4.25440E-04
  609.00      4.22920E-04
  611.00      4.20320E-04
  613.00      4.17940E-04
  615.00      4.15300E-04
  617.00      4.12830E-04
  619.00      4.10600E-04
  621.00      4.08220E-04
  623.00      4.05800E-04
  625.00      4.03390E-04
  627.00      4.01110E-04
  629.00      3.98800E-04
  631.00      3.96230E-04
  633.00      3.94210E-04
  635.00      3.91870E-04
  637.00      3.89710E-04
  639.00      3.87460E-04
  641.00      3.84800E-04
  643.00      3.83090E-04
  645.00      3.80850E-04
  647.00      3.78600E-04
  649.00      3.76490E-04
  651.00      3.73890E-04
  653.00      3.69750E-04
  655.00      3.59340E-04
  657.00      3.30430E-04
  659.00      3.63150E-04
  661.00      3.63650E-04
  663.00      3.62160E-04
  665.00      3.60160E-04
  667.00      3.54730E-04
  669.00      3.52260E-04
  671.00      3.53730E-04
  673.00      3.52070E-04
  675.00      3.50330E-04
  677.00      3.48600E-04
  679.00      3.46650E-04
  681.00      3.44880E-04
  683.00      3.42980E-04
  685.00      3.41150E-04
  687.00      3.39280E-04
  689.00      3.35950E-04
  691.00      3.35370E-04
  693.00      3.33970E-04
  695.00      3.32210E-04
  697.00      3.30450E-04
  699.00      3.28690E-04
  701.00      3.26830E-04
  703.00      3.25000E-04
  705.00      3.23350E-04
  707.00      3.18350E-04
  709.00      3.20210E-04
  711.00      3.18500E-04
  713.00      3.16880E-04
  715.00      3.15280E-04
  717.00      3.12650E-04
  719.00      3.11430E-04
  721.00      3.10450E-04
  723.00      3.08540E-04
  725.00      3.07190E-04
  727.00      3.05730E-04
  729.00      3.02600E-04
  731.00      3.02580E-04
  733.00      3.01120E-04
  735.00      2.99600E-04
  737.00      2.98090E-04
  739.00      2.96610E-04
  741.00      2.95110E-04
  743.00      2.93660E-04
  745.00      2.92150E-04
  747.00      2.90640E-04
  749.00      2.89030E-04
  751.00      2.87840E-04
  753.00      2.86470E-04
  755.00      2.85090E-04
  757.00      2.83670E-04
  759.00      2.80540E-04
  761.00      2.80700E-04
  763.00      2.79530E-04
  765.00      2.78150E-04
  767.00      2.76870E-04
  769.00      2.75210E-04
  771.00      2.74120E-04
  773.00      2.72420E-04
  775.00      2.71570E-04
  777.00      2.70290E-04
  779.00      2.69000E-04
  781.00      2.67670E-04
  783.00      2.66450E-04
  785.00      2.65250E-04
  787.00      2.63850E-04
  789.00      2.62640E-04
  791.00      2.61560E-04
  793.00      2.60350E-04
  795.00      2.59130E-04
  797.00      2.57840E-04
  799.00      2.56680E-04
  801.00      2.55530E-04
  803.00      2.54290E-04
  805.00      2.53170E-04
  807.00      2.52000E-04
  809.00      2.50740E-04
  811.00      2.49340E-04
  813.00      2.48540E-04
  815.00      2.47250E-04
  817.00      2.46200E-04
  819.00      2.44470E-04
  821.00      2.40270E-04
  823.00      2.38330E-04
  825.00      2.38080E-04
  827.00      2.36830E-04
  829.00      2.36290E-04
  831.00      2.35360E-04
  833.00      2.34090E-04
  835.00      2.32700E-04
  837.00      2.32060E-04
  839.00      2.31250E-04
  841.00      2.30230E-04
  843.00      2.29240E-04
  845.00      2.27670E-04
  847.00      2.27330E-04
  849.00      2.26250E-04
  851.00      2.25150E-04
  853.00      2.24310E-04
  855.00      2.23420E-04
  857.00      2.22890E-04
  859.00      2.20430E-04
  861.00      2.20540E-04
  863.00      2.20710E-04
  865.00      2.18520E-04
  867.00      2.16130E-04
  869.00      2.18180E-04
  871.00      2.18180E-04
  873.00      2.15370E-04
  875.00      2.10000E-04
  877.00      2.12690E-04
  879.00      2.15290E-04
  881.00      2.15180E-04
  883.00      2.13520E-04
  885.00      2.06870E-04
  887.00      2.01580E-04
  889.00      2.09630E-04
  891.00      2.11260E-04
  893.00      2.10950E-04
  895.00      2.10250E-04
  897.00      2.08990E-04
  899.00      2.04850E-04
  901.00      1.93360E-04
  903.00      1.97220E-04
  905.00      2.04080E-04
  907.00      2.03810E-04
  909.00      2.04350E-04
  911.00      2.04000E-04
  913.00      2.03450E-04
  915.00      2.02370E-04
  917.00      2.00960E-04
  919.00      1.99250E-04
  921.00      1.92940E-04
  923.00      1.80410E-04
  925.00      1.91100E-04
  927.00      1.95760E-04
  929.00      1.96210E-04
  931.00      1.95420E-04
  933.00      1.95150E-04
  935.00      1.92260E-04
  937.00      1.93710E-04
  939.00      1.93040E-04
  941.00      1.92200E-04
  943.00      1.91470E-04
  945.00      1.90660E-04
  947.00      1.89000E-04
  949.00      1.88430E-04
  951.00      1.85520E-04
  953.00      1.79230E-04
  955.00      1.67550E-04
  957.00      1.80260E-04
  959.00      1.83840E-04
  961.00      1.83890E-04
  963.00      1.83150E-04
  965.00      1.83330E-04
  967.00      1.82650E-04
  969.00      1.81850E-04
  971.00      1.79910E-04
  973.00      1.80370E-04
  975.00      1.79810E-04
  977.00      1.79070E-04
  979.00      1.78400E-04
  981.00      1.77700E-04
  983.00      1.77020E-04
  985.00      1.76320E-04
  987.00      1.75670E-04
  989.00      1.74910E-04
  991.00      1.74140E-04
  993.00      1.73650E-04
  995.00      1.72990E-04
  997.00      1.72150E-04
  999.00      1.71050E-04
  1002.5      1.64270E-04
  1007.5      1.61030E-04
  1012.5      1.65180E-04
  1017.5      1.65790E-04
  1022.5      1.64190E-04
  1027.5      1.62710E-04
  1032.5      1.60750E-04
  1037.5      1.59750E-04
  1042.5      1.58190E-04
  1047.5      1.56860E-04
  1052.5      1.55440E-04
  1057.5      1.54040E-04
  1062.5      1.52660E-04
  1067.5      1.51150E-04
  1072.5      1.49950E-04
  1077.5      1.48620E-04
  1082.5      1.46320E-04
  1087.5      1.45370E-04
  1092.5      1.35510E-04
  1097.5      1.40260E-04
  1102.5      1.41560E-04
  1107.5      1.40910E-04
  1112.5      1.39800E-04
  1117.5      1.38630E-04
  1122.5      1.37410E-04
  1127.5      1.36280E-04
  1132.5      1.35100E-04
  1137.5      1.33980E-04
  1142.5      1.32870E-04
  1147.5      1.31760E-04
  1152.5      1.30680E-04
  1157.5      1.29590E-04
  1162.5      1.27920E-04
  1167.5      1.27220E-04
  1172.5      1.26440E-04
  1177.5      1.25410E-04
  1182.5      1.24370E-04
  1187.5      1.23380E-04
  1192.5      1.22390E-04
  1197.5      1.20430E-04
  1202.5      1.20450E-04
  1207.5      1.19480E-04
  1212.5      1.18530E-04
  1217.5      1.17620E-04
  1222.5      1.16690E-04
  1227.5      1.15780E-04
  1232.5      1.14880E-04
  1237.5      1.13990E-04
  1242.5      1.13110E-04
  1247.5      1.12240E-04
  1252.5      1.11230E-04
  1257.5      1.10520E-04
  1262.5      1.09680E-04
  1267.5      1.08860E-04
  1272.5      1.07930E-04
  1277.5      1.05500E-04
  1282.5      9.94520E-05
  1287.5      1.04810E-04
  1292.5      1.04770E-04
  1297.5      1.03610E-04
  1302.5      1.03270E-04
  1307.5      1.02530E-04
  1312.5      1.01780E-04
  1317.5      1.01040E-04
  1322.5      1.00300E-04
  1327.5      9.95760E-05
  1332.5      9.88550E-05
  1337.5      9.81350E-05
  1342.5      9.73910E-05
  1347.5      9.67390E-05
  1352.5      9.60420E-05
  1357.5      9.53720E-05
  1362.5      9.46790E-05
  1367.5      9.40310E-05
  1372.5      9.33440E-05
  1377.5      9.27180E-05
  1382.5      9.20710E-05
  1387.5      9.14310E-05
  1392.5      9.07860E-05
  1397.5      9.01710E-05
