 Castelli and Kurucz 2004-2012 Atmosphere
 T     38000.     G    5.00000 [-0.5a] N(He)/Ntot=0.0784 VTURB=2.0  L/H=1.25 OD
 Wavelength  Eddington Hnu
   (nm)    (ergs/s/cm2/Hz/sr)
  9.0900      3.17670E-26
  9.3500      1.27700E-25
  9.6100      4.76120E-25
  9.7700      1.04340E-24
  9.9600      2.55520E-24
  10.200      7.57590E-24
  10.380      1.66160E-23
  10.560      3.55420E-23
  10.770      8.37410E-23
  11.040      2.41000E-22
  11.400      9.17620E-22
  11.780      3.47290E-21
  12.130      1.10590E-20
  12.480      3.31610E-20
  12.710      6.62110E-20
  12.840      9.68910E-20
  13.050      1.76570E-19
  13.240      2.99440E-19
  13.390      4.50190E-19
  13.660      9.18230E-19
  13.980      2.07690E-18
  14.330      4.87100E-18
  14.720      1.19750E-17
  15.100      2.80180E-17
  15.520      6.80060E-17
  15.880      1.40590E-16
  16.200      2.61050E-16
  16.600      5.51760E-16
  17.030      1.18460E-15
  17.340      2.01510E-15
  17.680      3.54280E-15
  18.020      6.08930E-15
  18.170      7.69860E-15
  18.610      1.49740E-14
  19.100      3.03360E-14
  19.390      4.53510E-14
  19.840      8.28480E-14
  20.180      1.28200E-13
  20.500      1.91030E-13
  21.050      3.69220E-13
  21.620      7.03340E-13
  21.980      1.04640E-12
  22.300      1.46860E-12
  22.680      2.16440E-12
  23.000      1.14070E-09
  23.400      4.40620E-09
  24.000      7.19570E-09
  24.650      1.14610E-08
  25.240      2.00950E-08
  25.680      2.40340E-08
  26.000      3.74740E-08
  26.400      8.69670E-08
  26.850      1.38530E-07
  27.350      1.73930E-07
  27.850      1.54720E-07
  28.400      3.67020E-07
  29.000      4.87230E-07
  29.600      4.41940E-07
  30.100      5.25820E-07
  30.800      2.22040E-06
  31.800      2.57400E-06
  32.800      3.82080E-06
  33.800      4.86640E-06
  34.800      6.47790E-06
  35.700      1.26010E-05
  36.600      2.30420E-05
  37.500      2.71360E-05
  38.500      3.13810E-05
  39.500      4.46170E-05
  40.500      5.46730E-05
  41.400      5.88190E-05
  42.200      5.93990E-05
  43.000      5.93710E-05
  44.100      6.77540E-05
  45.100      7.53170E-05
  46.000      7.32220E-05
  47.000      7.90630E-05
  48.000      8.87900E-05
  49.000      8.54010E-05
  50.000      1.02970E-04
  50.600      1.28400E-04
  51.200      4.47690E-04
  52.000      4.23440E-04
  53.000      4.00930E-04
  54.000      3.79950E-04
  55.000      3.95200E-04
  56.000      5.05930E-04
  57.000      5.42790E-04
  58.000      5.28280E-04
  59.000      5.59650E-04
  60.000      4.84910E-04
  61.000      5.38310E-04
  62.000      6.40940E-04
  63.000      6.38570E-04
  64.000      6.71470E-04
  65.000      6.62270E-04
  65.800      5.91270E-04
  66.500      6.76470E-04
  67.500      7.41340E-04
  68.500      6.66520E-04
  69.500      7.62390E-04
  70.500      6.65640E-04
  71.600      8.18310E-04
  72.600      8.28200E-04
  73.500      8.52920E-04
  74.500      8.23430E-04
  75.500      8.32180E-04
  76.500      8.46220E-04
  77.500      8.75960E-04
  78.500      8.76530E-04
  79.500      9.08720E-04
  80.500      9.06150E-04
  81.500      9.26300E-04
  82.500      9.60520E-04
  83.500      8.57180E-04
  84.500      9.70950E-04
  85.500      9.71420E-04
  86.500      1.00710E-03
  87.500      1.01940E-03
  88.500      1.02950E-03
  89.500      1.04290E-03
  90.500      1.03530E-03
  91.500      9.12150E-04
  92.500      1.69340E-03
  93.500      2.43610E-03
  94.500      3.33260E-03
  95.500      3.81870E-03
  96.500      4.61820E-03
  97.500      2.92750E-03
  98.500      4.38240E-03
  99.500      3.99760E-03
  100.50      4.17580E-03
  101.50      4.31260E-03
  102.50      3.22140E-03
  103.50      4.32900E-03
  104.50      4.65260E-03
  105.50      4.60140E-03
  106.50      4.26800E-03
  107.50      4.38970E-03
  108.50      4.06340E-03
  109.50      4.41780E-03
  110.50      4.28490E-03
  111.50      4.27500E-03
  112.50      3.90360E-03
  113.50      4.24560E-03
  114.50      4.17050E-03
  115.50      4.00960E-03
  116.50      3.96930E-03
  117.50      3.33730E-03
  118.50      3.80320E-03
  119.50      3.74690E-03
  120.50      3.66170E-03
  121.50      2.77030E-03
  122.50      3.59950E-03
  123.50      3.76600E-03
  124.50      3.72480E-03
  125.50      3.75350E-03
  126.50      3.79100E-03
  127.50      3.82390E-03
  128.50      3.83290E-03
  129.50      3.70080E-03
  130.50      3.70480E-03
  131.50      3.78260E-03
  132.50      3.72010E-03
  133.50      3.68420E-03
  134.50      3.67220E-03
  135.50      3.63240E-03
  136.50      3.56150E-03
  137.50      3.51900E-03
  138.50      3.49130E-03
  139.50      3.19730E-03
  140.50      3.17650E-03
  141.50      3.43520E-03
  142.50      3.23460E-03
  143.50      3.36190E-03
  144.20      3.34320E-03
  144.70      3.33140E-03
  145.50      3.25540E-03
  146.50      3.25770E-03
  147.50      3.23530E-03
  148.50      3.26880E-03
  149.50      3.21280E-03
  150.50      3.21000E-03
  151.20      3.21440E-03
  151.70      3.18850E-03
  152.50      3.14540E-03
  153.50      2.94440E-03
  154.50      2.67210E-03
  155.50      2.70450E-03
  156.50      2.83690E-03
  157.50      2.91140E-03
  158.50      2.91430E-03
  159.50      2.92560E-03
  160.50      2.80740E-03
  161.50      2.74210E-03
  162.50      2.76730E-03
  163.50      2.75400E-03
  164.50      2.69280E-03
  165.50      2.82570E-03
  166.50      2.78350E-03
  167.20      2.68000E-03
  167.70      2.88120E-03
  168.50      2.83280E-03
  169.50      2.80520E-03
  170.50      2.76800E-03
  171.50      2.71480E-03
  172.50      2.66650E-03
  173.50      2.74510E-03
  174.50      2.73280E-03
  175.50      2.69560E-03
  176.50      2.68610E-03
  177.50      2.66470E-03
  178.50      2.67640E-03
  179.50      2.63650E-03
  180.50      2.63460E-03
  181.50      2.61420E-03
  182.50      2.58880E-03
  183.50      2.59820E-03
  184.50      2.56200E-03
  185.50      2.54830E-03
  186.50      2.53860E-03
  187.50      2.50430E-03
  188.50      2.48050E-03
  189.50      2.48660E-03
  190.50      2.49310E-03
  191.50      2.46380E-03
  192.50      2.38580E-03
  193.50      2.44420E-03
  194.50      2.44300E-03
  195.50      2.37480E-03
  196.70      2.39780E-03
  197.60      2.39570E-03
  198.40      2.37750E-03
  199.50      2.34970E-03
  200.50      2.36000E-03
  201.50      2.34700E-03
  202.50      2.33060E-03
  203.50      2.31100E-03
  204.50      2.29210E-03
  205.50      1.79590E-03
  206.50      1.73280E-03
  207.40      1.75990E-03
  207.80      1.78210E-03
  208.50      1.86800E-03
  209.50      2.04240E-03
  210.50      2.18050E-03
  211.50      2.20700E-03
  212.50      2.17390E-03
  213.50      2.17580E-03
  214.50      2.16390E-03
  215.50      2.17240E-03
  216.50      2.09050E-03
  217.50      2.16060E-03
  218.50      2.08420E-03
  219.50      2.14080E-03
  220.50      2.13060E-03
  221.50      2.03940E-03
  222.50      2.10240E-03
  223.50      2.09340E-03
  224.50      2.07420E-03
  225.50      1.99170E-03
  226.50      2.05240E-03
  227.50      2.04330E-03
  228.50      2.01320E-03
  229.50      1.95230E-03
  230.50      1.92960E-03
  231.50      1.97610E-03
  232.50      1.97530E-03
  233.50      1.96580E-03
  234.50      1.95200E-03
  235.50      1.93700E-03
  236.50      1.92390E-03
  237.50      1.90500E-03
  238.50      1.81760E-03
  239.50      1.86650E-03
  240.50      1.87430E-03
  241.50      1.86000E-03
  242.50      1.85690E-03
  243.50      1.84080E-03
  244.50      1.83220E-03
  245.50      1.81580E-03
  246.50      1.81180E-03
  247.50      1.80240E-03
  248.50      1.78340E-03
  249.50      1.56290E-03
  250.50      1.74670E-03
  251.30      1.63770E-03
  251.80      1.70810E-03
  252.50      1.74410E-03
  253.50      1.73960E-03
  254.50      1.72620E-03
  255.50      1.71500E-03
  256.50      1.70650E-03
  257.50      1.69900E-03
  258.50      1.68980E-03
  259.50      1.66970E-03
  260.50      1.67200E-03
  261.50      1.65690E-03
  262.50      1.65290E-03
  263.50      1.64440E-03
  264.50      1.63280E-03
  265.50      1.62550E-03
  266.50      1.61220E-03
  267.50      1.59220E-03
  268.50      1.59400E-03
  269.50      1.58250E-03
  270.50      1.58020E-03
  271.50      1.56910E-03
  272.50      1.55510E-03
  273.50      1.50730E-03
  274.50      1.54570E-03
  275.50      1.53600E-03
  276.50      1.52300E-03
  277.50      1.52050E-03
  278.50      1.50870E-03
  279.50      1.48550E-03
  280.50      1.49090E-03
  281.50      1.48650E-03
  282.50      1.47380E-03
  283.50      1.46680E-03
  284.50      1.46490E-03
  285.50      1.45570E-03
  286.50      1.44600E-03
  287.50      1.43880E-03
  288.50      1.43200E-03
  289.50      1.42230E-03
  291.00      1.40850E-03
  293.00      1.39800E-03
  295.00      1.37860E-03
  297.00      1.36600E-03
  299.00      1.34730E-03
  301.00      1.33250E-03
  303.00      1.31360E-03
  305.00      1.30580E-03
  307.00      1.29630E-03
  309.00      1.28020E-03
  311.00      1.27050E-03
  313.00      1.25580E-03
  315.00      1.24530E-03
  317.00      1.23240E-03
  319.00      1.21840E-03
  321.00      1.19310E-03
  323.00      1.19840E-03
  325.00      1.18840E-03
  327.00      1.16840E-03
  329.00      1.16300E-03
  331.00      1.15150E-03
  333.00      1.13950E-03
  335.00      1.12510E-03
  337.00      1.11790E-03
  339.00      1.10980E-03
  341.00      1.09890E-03
  343.00      1.08910E-03
  345.00      1.07400E-03
  347.00      1.06840E-03
  349.00      1.05930E-03
  351.00      1.05030E-03
  353.00      1.04110E-03
  355.00      1.03060E-03
  357.00      1.02400E-03
  359.00      1.01120E-03
  361.00      1.00350E-03
  363.00      9.92510E-04
  364.00      9.80480E-04
  365.00      9.20400E-04
  367.00      9.14360E-04
  369.00      9.07270E-04
  371.00      8.94820E-04
  373.00      8.96040E-04
  375.00      8.97100E-04
  377.00      8.90940E-04
  379.00      9.12110E-04
  381.00      9.36030E-04
  383.00      8.72240E-04
  385.00      9.45860E-04
  387.00      9.47720E-04
  389.00      8.39800E-04
  391.00      9.47990E-04
  393.00      9.40440E-04
  395.00      9.26240E-04
  397.00      8.06180E-04
  399.00      9.15340E-04
  401.00      9.13180E-04
  403.00      8.83450E-04
  405.00      9.05480E-04
  407.00      8.87160E-04
  409.00      8.41080E-04
  411.00      7.82580E-04
  413.00      8.65330E-04
  415.00      8.62930E-04
  417.00      8.62340E-04
  419.00      8.50190E-04
  421.00      8.37890E-04
  423.00      8.42450E-04
  425.00      8.32820E-04
  427.00      8.24990E-04
  429.00      8.17900E-04
  431.00      8.06470E-04
  433.00      7.60200E-04
  435.00      7.20460E-04
  437.00      7.88910E-04
  439.00      7.76390E-04
  441.00      7.78560E-04
  443.00      7.75420E-04
  445.00      7.69320E-04
  447.00      7.45850E-04
  449.00      7.57300E-04
  451.00      7.50770E-04
  453.00      7.45360E-04
  455.00      7.29010E-04
  457.00      7.35740E-04
  459.00      7.28540E-04
  461.00      7.22770E-04
  463.00      7.13790E-04
  465.00      6.95800E-04
  467.00      7.04870E-04
  469.00      6.82560E-04
  471.00      6.90630E-04
  473.00      6.94050E-04
  475.00      6.88600E-04
  477.00      6.83910E-04
  479.00      6.78860E-04
  481.00      6.73200E-04
  483.00      6.65140E-04
  485.00      6.33090E-04
  487.00      5.90310E-04
  489.00      6.49140E-04
  491.00      6.47560E-04
  493.00      6.35320E-04
  495.00      6.38720E-04
  497.00      6.35980E-04
  499.00      6.31480E-04
  501.00      6.21670E-04
  503.00      6.21490E-04
  505.00      6.16300E-04
  507.00      6.13850E-04
  509.00      6.09520E-04
  511.00      6.05270E-04
  513.00      6.01090E-04
  515.00      5.96880E-04
  517.00      5.92520E-04
  519.00      5.88680E-04
  521.00      5.84720E-04
  523.00      5.80800E-04
  525.00      5.76430E-04
  527.00      5.72220E-04
  529.00      5.69060E-04
  531.00      5.65210E-04
  533.00      5.61420E-04
  535.00      5.57690E-04
  537.00      5.53990E-04
  539.00      5.50220E-04
  541.00      5.37440E-04
  543.00      5.42970E-04
  545.00      5.39490E-04
  547.00      5.35910E-04
  549.00      5.32440E-04
  551.00      5.28700E-04
  553.00      5.25540E-04
  555.00      5.22170E-04
  557.00      5.18740E-04
  559.00      5.14370E-04
  561.00      5.12160E-04
  563.00      5.08890E-04
  565.00      5.05640E-04
  567.00      5.02350E-04
  569.00      4.94230E-04
  571.00      4.77460E-04
  573.00      4.74700E-04
  575.00      4.71750E-04
  577.00      4.69190E-04
  579.00      4.66430E-04
  581.00      4.63270E-04
  583.00      4.60940E-04
  585.00      4.59140E-04
  587.00      4.49450E-04
  589.00      4.55030E-04
  591.00      4.54080E-04
  593.00      4.52820E-04
  595.00      4.51680E-04
  597.00      4.50770E-04
  599.00      4.49850E-04
  601.00      4.48800E-04
  603.00      4.47360E-04
  605.00      4.46480E-04
  607.00      4.44280E-04
  609.00      4.41830E-04
  611.00      4.39090E-04
  613.00      4.36600E-04
  615.00      4.33900E-04
  617.00      4.31220E-04
  619.00      4.28980E-04
  621.00      4.26490E-04
  623.00      4.23820E-04
  625.00      4.21440E-04
  627.00      4.19060E-04
  629.00      4.16650E-04
  631.00      4.13690E-04
  633.00      4.11860E-04
  635.00      4.09420E-04
  637.00      4.07150E-04
  639.00      4.04800E-04
  641.00      4.01630E-04
  643.00      4.00240E-04
  645.00      3.97900E-04
  647.00      3.95570E-04
  649.00      3.93370E-04
  651.00      3.90630E-04
  653.00      3.86100E-04
  655.00      3.76460E-04
  657.00      3.47570E-04
  659.00      3.79850E-04
  661.00      3.80150E-04
  663.00      3.78410E-04
  665.00      3.76320E-04
  667.00      3.70830E-04
  669.00      3.67770E-04
  671.00      3.69570E-04
  673.00      3.67890E-04
  675.00      3.66020E-04
  677.00      3.64210E-04
  679.00      3.62240E-04
  681.00      3.60330E-04
  683.00      3.58370E-04
  685.00      3.56440E-04
  687.00      3.54480E-04
  689.00      3.50330E-04
  691.00      3.50440E-04
  693.00      3.48940E-04
  695.00      3.47090E-04
  697.00      3.45260E-04
  699.00      3.43420E-04
  701.00      3.41470E-04
  703.00      3.39550E-04
  705.00      3.37820E-04
  707.00      3.32940E-04
  709.00      3.34560E-04
  711.00      3.32780E-04
  713.00      3.31080E-04
  715.00      3.29400E-04
  717.00      3.26190E-04
  719.00      3.25040E-04
  721.00      3.24360E-04
  723.00      3.22510E-04
  725.00      3.20990E-04
  727.00      3.19430E-04
  729.00      3.16340E-04
  731.00      3.16120E-04
  733.00      3.14610E-04
  735.00      3.13020E-04
  737.00      3.11430E-04
  739.00      3.09900E-04
  741.00      3.08320E-04
  743.00      3.06820E-04
  745.00      3.05210E-04
  747.00      3.03710E-04
  749.00      3.01970E-04
  751.00      3.00730E-04
  753.00      2.99310E-04
  755.00      2.97860E-04
  757.00      2.96380E-04
  759.00      2.92360E-04
  761.00      2.93220E-04
  763.00      2.92050E-04
  765.00      2.90610E-04
  767.00      2.89270E-04
  769.00      2.87520E-04
  771.00      2.86390E-04
  773.00      2.84600E-04
  775.00      2.83730E-04
  777.00      2.82400E-04
  779.00      2.81050E-04
  781.00      2.79670E-04
  783.00      2.78390E-04
  785.00      2.77090E-04
  787.00      2.75670E-04
  789.00      2.74420E-04
  791.00      2.73270E-04
  793.00      2.72000E-04
  795.00      2.70730E-04
  797.00      2.69360E-04
  799.00      2.68180E-04
  801.00      2.66960E-04
  803.00      2.65660E-04
  805.00      2.64490E-04
  807.00      2.63270E-04
  809.00      2.62010E-04
  811.00      2.60620E-04
  813.00      2.59660E-04
  815.00      2.58380E-04
  817.00      2.57190E-04
  819.00      2.55390E-04
  821.00      2.49770E-04
  823.00      2.47450E-04
  825.00      2.47370E-04
  827.00      2.46290E-04
  829.00      2.45610E-04
  831.00      2.44630E-04
  833.00      2.43310E-04
  835.00      2.41980E-04
  837.00      2.41270E-04
  839.00      2.40400E-04
  841.00      2.39360E-04
  843.00      2.38350E-04
  845.00      2.36860E-04
  847.00      2.36400E-04
  849.00      2.35350E-04
  851.00      2.34240E-04
  853.00      2.33430E-04
  855.00      2.32520E-04
  857.00      2.31960E-04
  859.00      2.29750E-04
  861.00      2.29720E-04
  863.00      2.29800E-04
  865.00      2.27810E-04
  867.00      2.25540E-04
  869.00      2.27350E-04
  871.00      2.27290E-04
  873.00      2.24750E-04
  875.00      2.19730E-04
  877.00      2.22200E-04
  879.00      2.24490E-04
  881.00      2.24330E-04
  883.00      2.22810E-04
  885.00      2.16610E-04
  887.00      2.11460E-04
  889.00      2.18980E-04
  891.00      2.20410E-04
  893.00      2.20030E-04
  895.00      2.19310E-04
  897.00      2.18080E-04
  899.00      2.14130E-04
  901.00      2.03020E-04
  903.00      2.06680E-04
  905.00      2.13120E-04
  907.00      2.12810E-04
  909.00      2.13190E-04
  911.00      2.12730E-04
  913.00      2.12230E-04
  915.00      2.11130E-04
  917.00      2.09670E-04
  919.00      2.07970E-04
  921.00      2.01950E-04
  923.00      1.89650E-04
  925.00      2.00020E-04
  927.00      2.04350E-04
  929.00      2.04690E-04
  931.00      2.03920E-04
  933.00      2.03470E-04
  935.00      1.99820E-04
  937.00      2.01840E-04
  939.00      2.01300E-04
  941.00      2.00430E-04
  943.00      1.99660E-04
  945.00      1.98870E-04
  947.00      1.97230E-04
  949.00      1.96590E-04
  951.00      1.93780E-04
  953.00      1.87730E-04
  955.00      1.76140E-04
  957.00      1.88560E-04
  959.00      1.91890E-04
  961.00      1.91880E-04
  963.00      1.91150E-04
  965.00      1.91200E-04
  967.00      1.90460E-04
  969.00      1.89660E-04
  971.00      1.87700E-04
  973.00      1.88090E-04
  975.00      1.87490E-04
  977.00      1.86550E-04
  979.00      1.86040E-04
  981.00      1.85310E-04
  983.00      1.84590E-04
  985.00      1.83880E-04
  987.00      1.83200E-04
  989.00      1.82440E-04
  991.00      1.81660E-04
  993.00      1.81090E-04
  995.00      1.80410E-04
  997.00      1.79610E-04
  999.00      1.78450E-04
  1002.5      1.71850E-04
  1007.5      1.68530E-04
  1012.5      1.72020E-04
  1017.5      1.72890E-04
  1022.5      1.71240E-04
  1027.5      1.69680E-04
  1032.5      1.67680E-04
  1037.5      1.66600E-04
  1042.5      1.64880E-04
  1047.5      1.63580E-04
  1052.5      1.62100E-04
  1057.5      1.60640E-04
  1062.5      1.59200E-04
  1067.5      1.57660E-04
  1072.5      1.56380E-04
  1077.5      1.55000E-04
  1082.5      1.52670E-04
  1087.5      1.51700E-04
  1092.5      1.41980E-04
  1097.5      1.46590E-04
  1102.5      1.47760E-04
  1107.5      1.46990E-04
  1112.5      1.45810E-04
  1117.5      1.44590E-04
  1122.5      1.43320E-04
  1127.5      1.42140E-04
  1132.5      1.40910E-04
  1137.5      1.39740E-04
  1142.5      1.38580E-04
  1147.5      1.37430E-04
  1152.5      1.36300E-04
  1157.5      1.35170E-04
  1162.5      1.33210E-04
  1167.5      1.32560E-04
  1172.5      1.31870E-04
  1177.5      1.30800E-04
  1182.5      1.29720E-04
  1187.5      1.28680E-04
  1192.5      1.27650E-04
  1197.5      1.25730E-04
  1202.5      1.25630E-04
  1207.5      1.24620E-04
  1212.5      1.23620E-04
  1217.5      1.22680E-04
  1222.5      1.21710E-04
  1227.5      1.20760E-04
  1232.5      1.19820E-04
  1237.5      1.18890E-04
  1242.5      1.17980E-04
  1247.5      1.17070E-04
  1252.5      1.16040E-04
  1257.5      1.15280E-04
  1262.5      1.14400E-04
  1267.5      1.13540E-04
  1272.5      1.12580E-04
  1277.5      1.10200E-04
  1282.5      1.04160E-04
  1287.5      1.09410E-04
  1292.5      1.09310E-04
  1297.5      1.08140E-04
  1302.5      1.07720E-04
  1307.5      1.06950E-04
  1312.5      1.06160E-04
  1317.5      1.05390E-04
  1322.5      1.04620E-04
  1327.5      1.03860E-04
  1332.5      1.03110E-04
  1337.5      1.02370E-04
  1342.5      1.01590E-04
  1347.5      1.00900E-04
  1352.5      1.00180E-04
  1357.5      9.94790E-05
  1362.5      9.87630E-05
  1367.5      9.80790E-05
  1372.5      9.73680E-05
  1377.5      9.67090E-05
  1382.5      9.60350E-05
  1387.5      9.53670E-05
  1392.5      9.46970E-05
  1397.5      9.40520E-05
