 Castelli and Kurucz 2004-2012 Atmosphere
 T     38000.     G    4.50000 [0.2a] VTURB=2  L/H=1.25 NOVER NEW ODF          
 Wavelength  Eddington Hnu
   (nm)    (ergs/s/cm2/Hz/sr)
  9.0900      4.65030E-27
  9.3500      1.94240E-26
  9.6100      7.43120E-26
  9.7700      1.67860E-25
  9.9600      4.21000E-25
  10.200      1.28590E-24
  10.380      2.88260E-24
  10.560      6.29910E-24
  10.770      1.52110E-23
  11.040      4.51240E-23
  11.400      1.78740E-22
  11.780      7.02810E-22
  12.130      2.31820E-21
  12.480      7.17590E-21
  12.710      1.46150E-20
  12.840      2.16150E-20
  13.050      4.00070E-20
  13.240      6.86960E-20
  13.390      1.04550E-19
  13.660      2.16150E-19
  13.980      5.01210E-19
  14.330      1.19480E-18
  14.720      2.95140E-18
  15.100      7.15440E-18
  15.520      1.76850E-17
  15.880      3.71190E-17
  16.200      6.92400E-17
  16.600      1.49710E-16
  17.030      3.24610E-16
  17.340      5.59500E-16
  17.680      1.00790E-15
  18.020      1.75190E-15
  18.170      2.24530E-15
  18.610      4.45520E-15
  19.100      9.20250E-15
  19.390      1.39360E-14
  19.840      2.60350E-14
  20.180      4.06430E-14
  20.500      6.12740E-14
  21.050      1.20670E-13
  21.620      2.32590E-13
  21.980      3.53040E-13
  22.300      5.00260E-13
  22.680      7.81730E-13
  23.000      4.47550E-10
  23.400      1.12430E-09
  24.000      1.59820E-09
  24.650      2.44320E-09
  25.240      4.65900E-09
  25.680      6.69020E-09
  26.000      9.04060E-09
  26.400      1.81200E-08
  26.850      3.04020E-08
  27.350      3.87470E-08
  27.850      3.92790E-08
  28.400      8.46110E-08
  29.000      1.18710E-07
  29.600      1.35710E-07
  30.100      2.37710E-07
  30.800      7.18560E-07
  31.800      8.13390E-07
  32.800      1.30580E-06
  33.800      2.08790E-06
  34.800      2.99200E-06
  35.700      6.52000E-06
  36.600      1.65530E-05
  37.500      2.24960E-05
  38.500      3.07380E-05
  39.500      6.42330E-05
  40.500      1.15580E-04
  41.400      1.15320E-04
  42.200      1.19080E-04
  43.000      1.12540E-04
  44.100      1.36160E-04
  45.100      1.50130E-04
  46.000      1.22800E-04
  47.000      1.43870E-04
  48.000      1.77220E-04
  49.000      1.20040E-04
  50.000      1.94950E-04
  50.600      1.51230E-04
  51.200      4.71520E-04
  52.000      4.44670E-04
  53.000      4.11330E-04
  54.000      3.84830E-04
  55.000      3.40740E-04
  56.000      4.99040E-04
  57.000      6.52780E-04
  58.000      6.43380E-04
  59.000      6.70310E-04
  60.000      4.53560E-04
  61.000      5.20920E-04
  62.000      7.46220E-04
  63.000      7.23020E-04
  64.000      8.26070E-04
  65.000      7.66070E-04
  65.800      5.60660E-04
  66.500      7.84750E-04
  67.500      9.34920E-04
  68.500      7.35780E-04
  69.500      9.47120E-04
  70.500      6.70260E-04
  71.600      1.04350E-03
  72.600      1.06530E-03
  73.500      1.09400E-03
  74.500      9.80160E-04
  75.500      9.98560E-04
  76.500      9.79740E-04
  77.500      1.08230E-03
  78.500      9.54660E-04
  79.500      1.11300E-03
  80.500      1.09680E-03
  81.500      1.12510E-03
  82.500      1.19150E-03
  83.500      9.25010E-04
  84.500      1.17930E-03
  85.500      1.14390E-03
  86.500      1.23290E-03
  87.500      1.25390E-03
  88.500      1.26030E-03
  89.500      1.27280E-03
  90.500      1.24940E-03
  91.500      1.06790E-03
  92.500      1.99080E-03
  93.500      2.83230E-03
  94.500      3.35350E-03
  95.500      3.85630E-03
  96.500      4.28740E-03
  97.500      2.78080E-03
  98.500      3.77490E-03
  99.500      3.37950E-03
  100.50      3.41840E-03
  101.50      3.68260E-03
  102.50      3.28800E-03
  103.50      3.85430E-03
  104.50      4.21810E-03
  105.50      4.12170E-03
  106.50      3.78280E-03
  107.50      3.92790E-03
  108.50      3.65350E-03
  109.50      3.92730E-03
  110.50      3.82540E-03
  111.50      3.82170E-03
  112.50      3.39510E-03
  113.50      3.80520E-03
  114.50      3.81690E-03
  115.50      3.52520E-03
  116.50      3.48740E-03
  117.50      2.78990E-03
  118.50      3.35310E-03
  119.50      3.21180E-03
  120.50      3.20370E-03
  121.50      2.72170E-03
  122.50      3.13680E-03
  123.50      3.29030E-03
  124.50      3.24460E-03
  125.50      3.29420E-03
  126.50      3.38090E-03
  127.50      3.51390E-03
  128.50      3.53530E-03
  129.50      3.46870E-03
  130.50      3.42650E-03
  131.50      3.55430E-03
  132.50      3.51620E-03
  133.50      3.47050E-03
  134.50      3.46720E-03
  135.50      3.40030E-03
  136.50      3.31890E-03
  137.50      3.22960E-03
  138.50      3.22780E-03
  139.50      2.86620E-03
  140.50      2.82210E-03
  141.50      3.27120E-03
  142.50      2.98200E-03
  143.50      3.19170E-03
  144.20      3.10740E-03
  144.70      3.12770E-03
  145.50      3.02090E-03
  146.50      3.02710E-03
  147.50      3.06110E-03
  148.50      3.10930E-03
  149.50      3.04700E-03
  150.50      3.05490E-03
  151.20      3.06180E-03
  151.70      3.05330E-03
  152.50      3.00080E-03
  153.50      2.72840E-03
  154.50      2.24050E-03
  155.50      2.32690E-03
  156.50      2.63350E-03
  157.50      2.76280E-03
  158.50      2.74250E-03
  159.50      2.80020E-03
  160.50      2.66520E-03
  161.50      2.59470E-03
  162.50      2.66200E-03
  163.50      2.67930E-03
  164.50      2.65860E-03
  165.50      2.73580E-03
  166.50      2.67550E-03
  167.20      2.53490E-03
  167.70      2.88200E-03
  168.50      2.80830E-03
  169.50      2.77040E-03
  170.50      2.74140E-03
  171.50      2.64710E-03
  172.50      2.59860E-03
  173.50      2.70680E-03
  174.50      2.71350E-03
  175.50      2.67950E-03
  176.50      2.65630E-03
  177.50      2.61080E-03
  178.50      2.66460E-03
  179.50      2.60630E-03
  180.50      2.60830E-03
  181.50      2.58990E-03
  182.50      2.55500E-03
  183.50      2.57580E-03
  184.50      2.55760E-03
  185.50      2.56970E-03
  186.50      2.57410E-03
  187.50      2.51080E-03
  188.50      2.48330E-03
  189.50      2.51740E-03
  190.50      2.52760E-03
  191.50      2.50340E-03
  192.50      2.39240E-03
  193.50      2.50010E-03
  194.50      2.50600E-03
  195.50      2.38100E-03
  196.70      2.44800E-03
  197.60      2.44840E-03
  198.40      2.44520E-03
  199.50      2.41440E-03
  200.50      2.44510E-03
  201.50      2.43190E-03
  202.50      2.41970E-03
  203.50      2.38910E-03
  204.50      2.36190E-03
  205.50      1.78550E-03
  206.50      1.72370E-03
  207.40      1.79260E-03
  207.80      1.82870E-03
  208.50      1.98540E-03
  209.50      2.20310E-03
  210.50      2.26330E-03
  211.50      2.29630E-03
  212.50      2.25130E-03
  213.50      2.26790E-03
  214.50      2.25380E-03
  215.50      2.26310E-03
  216.50      2.14680E-03
  217.50      2.25070E-03
  218.50      2.17020E-03
  219.50      2.24810E-03
  220.50      2.22950E-03
  221.50      2.13210E-03
  222.50      2.20090E-03
  223.50      2.19020E-03
  224.50      2.16980E-03
  225.50      2.09520E-03
  226.50      2.14520E-03
  227.50      2.14720E-03
  228.50      2.09030E-03
  229.50      2.00730E-03
  230.50      2.02670E-03
  231.50      2.04750E-03
  232.50      2.06500E-03
  233.50      2.05860E-03
  234.50      2.03420E-03
  235.50      2.00760E-03
  236.50      1.98790E-03
  237.50      1.95550E-03
  238.50      1.86610E-03
  239.50      1.91830E-03
  240.50      1.93030E-03
  241.50      1.91660E-03
  242.50      1.92690E-03
  243.50      1.90720E-03
  244.50      1.89890E-03
  245.50      1.87960E-03
  246.50      1.87810E-03
  247.50      1.87600E-03
  248.50      1.82600E-03
  249.50      1.39820E-03
  250.50      1.77230E-03
  251.30      1.70460E-03
  251.80      1.75780E-03
  252.50      1.80490E-03
  253.50      1.81130E-03
  254.50      1.79700E-03
  255.50      1.78690E-03
  256.50      1.77500E-03
  257.50      1.77000E-03
  258.50      1.76180E-03
  259.50      1.72230E-03
  260.50      1.74180E-03
  261.50      1.71220E-03
  262.50      1.72220E-03
  263.50      1.71890E-03
  264.50      1.69680E-03
  265.50      1.69880E-03
  266.50      1.68080E-03
  267.50      1.64220E-03
  268.50      1.65760E-03
  269.50      1.64820E-03
  270.50      1.65450E-03
  271.50      1.63830E-03
  272.50      1.62740E-03
  273.50      1.58040E-03
  274.50      1.62040E-03
  275.50      1.60380E-03
  276.50      1.59640E-03
  277.50      1.59010E-03
  278.50      1.56610E-03
  279.50      1.53870E-03
  280.50      1.55640E-03
  281.50      1.55280E-03
  282.50      1.54170E-03
  283.50      1.53490E-03
  284.50      1.53540E-03
  285.50      1.52350E-03
  286.50      1.50700E-03
  287.50      1.49960E-03
  288.50      1.49710E-03
  289.50      1.48610E-03
  291.00      1.46760E-03
  293.00      1.46330E-03
  295.00      1.44700E-03
  297.00      1.42770E-03
  299.00      1.40120E-03
  301.00      1.38200E-03
  303.00      1.35680E-03
  305.00      1.35850E-03
  307.00      1.34390E-03
  309.00      1.33470E-03
  311.00      1.32840E-03
  313.00      1.30990E-03
  315.00      1.30540E-03
  317.00      1.29000E-03
  319.00      1.28080E-03
  321.00      1.24550E-03
  323.00      1.25330E-03
  325.00      1.24590E-03
  327.00      1.21740E-03
  329.00      1.21590E-03
  331.00      1.20190E-03
  333.00      1.18760E-03
  335.00      1.16670E-03
  337.00      1.16280E-03
  339.00      1.15700E-03
  341.00      1.14510E-03
  343.00      1.14180E-03
  345.00      1.11890E-03
  347.00      1.11900E-03
  349.00      1.11140E-03
  351.00      1.10230E-03
  353.00      1.08980E-03
  355.00      1.07960E-03
  357.00      1.07130E-03
  359.00      1.06140E-03
  361.00      1.04970E-03
  363.00      1.04000E-03
  364.00      1.02090E-03
  365.00      9.36580E-04
  367.00      9.30590E-04
  369.00      9.23300E-04
  371.00      9.11310E-04
  373.00      9.21340E-04
  375.00      9.34770E-04
  377.00      9.38980E-04
  379.00      9.69530E-04
  381.00      9.88730E-04
  383.00      9.32890E-04
  385.00      9.94220E-04
  387.00      9.77540E-04
  389.00      9.00710E-04
  391.00      9.88510E-04
  393.00      9.68930E-04
  395.00      9.55210E-04
  397.00      8.61280E-04
  399.00      9.54280E-04
  401.00      9.45080E-04
  403.00      9.20910E-04
  405.00      9.34900E-04
  407.00      9.11000E-04
  409.00      8.76080E-04
  411.00      8.28600E-04
  413.00      8.92690E-04
  415.00      8.89350E-04
  417.00      8.90140E-04
  419.00      8.77970E-04
  421.00      8.62030E-04
  423.00      8.69870E-04
  425.00      8.57260E-04
  427.00      8.50380E-04
  429.00      8.41350E-04
  431.00      8.29190E-04
  433.00      7.97560E-04
  435.00      7.59850E-04
  437.00      8.14040E-04
  439.00      8.02060E-04
  441.00      7.96810E-04
  443.00      7.97290E-04
  445.00      7.89850E-04
  447.00      7.76820E-04
  449.00      7.79990E-04
  451.00      7.67910E-04
  453.00      7.64880E-04
  455.00      7.48040E-04
  457.00      7.56870E-04
  459.00      7.48120E-04
  461.00      7.43100E-04
  463.00      7.32480E-04
  465.00      7.05750E-04
  467.00      7.23500E-04
  469.00      7.02860E-04
  471.00      7.13730E-04
  473.00      7.19130E-04
  475.00      7.13520E-04
  477.00      7.08720E-04
  479.00      7.03320E-04
  481.00      6.97340E-04
  483.00      6.91100E-04
  485.00      6.68830E-04
  487.00      6.24570E-04
  489.00      6.74370E-04
  491.00      6.70580E-04
  493.00      6.61840E-04
  495.00      6.60470E-04
  497.00      6.59310E-04
  499.00      6.54900E-04
  501.00      6.43430E-04
  503.00      6.42260E-04
  505.00      6.38530E-04
  507.00      6.36430E-04
  509.00      6.32020E-04
  511.00      6.27570E-04
  513.00      6.22950E-04
  515.00      6.18730E-04
  517.00      6.13980E-04
  519.00      6.10150E-04
  521.00      6.06170E-04
  523.00      6.02420E-04
  525.00      5.96650E-04
  527.00      5.91770E-04
  529.00      5.90260E-04
  531.00      5.86020E-04
  533.00      5.82170E-04
  535.00      5.78560E-04
  537.00      5.74600E-04
  539.00      5.70510E-04
  541.00      5.56410E-04
  543.00      5.63260E-04
  545.00      5.59660E-04
  547.00      5.55790E-04
  549.00      5.52290E-04
  551.00      5.47670E-04
  553.00      5.45130E-04
  555.00      5.41760E-04
  557.00      5.37790E-04
  559.00      5.32070E-04
  561.00      5.31390E-04
  563.00      5.27980E-04
  565.00      5.24550E-04
  567.00      5.21090E-04
  569.00      5.09350E-04
  571.00      4.84250E-04
  573.00      4.81510E-04
  575.00      4.78420E-04
  577.00      4.76110E-04
  579.00      4.73460E-04
  581.00      4.68990E-04
  583.00      4.68680E-04
  585.00      4.68600E-04
  587.00      4.61750E-04
  589.00      4.66980E-04
  591.00      4.66790E-04
  593.00      4.66740E-04
  595.00      4.67110E-04
  597.00      4.67760E-04
  599.00      4.68210E-04
  601.00      4.67290E-04
  603.00      4.65050E-04
  605.00      4.63400E-04
  607.00      4.60620E-04
  609.00      4.58510E-04
  611.00      4.55160E-04
  613.00      4.52590E-04
  615.00      4.49970E-04
  617.00      4.46350E-04
  619.00      4.45310E-04
  621.00      4.42950E-04
  623.00      4.38760E-04
  625.00      4.37140E-04
  627.00      4.35180E-04
  629.00      4.32600E-04
  631.00      4.27770E-04
  633.00      4.27540E-04
  635.00      4.24960E-04
  637.00      4.22850E-04
  639.00      4.20310E-04
  641.00      4.15460E-04
  643.00      4.15720E-04
  645.00      4.12940E-04
  647.00      4.10410E-04
  649.00      4.08180E-04
  651.00      4.04650E-04
  653.00      3.99970E-04
  655.00      3.94960E-04
  657.00      3.65380E-04
  659.00      3.95920E-04
  661.00      3.95030E-04
  663.00      3.93050E-04
  665.00      3.90730E-04
  667.00      3.84970E-04
  669.00      3.80390E-04
  671.00      3.83140E-04
  673.00      3.81310E-04
  675.00      3.79600E-04
  677.00      3.78050E-04
  679.00      3.76170E-04
  681.00      3.74220E-04
  683.00      3.72160E-04
  685.00      3.70060E-04
  687.00      3.67890E-04
  689.00      3.61560E-04
  691.00      3.63430E-04
  693.00      3.62400E-04
  695.00      3.60450E-04
  697.00      3.58570E-04
  699.00      3.56600E-04
  701.00      3.54180E-04
  703.00      3.52030E-04
  705.00      3.50280E-04
  707.00      3.45800E-04
  709.00      3.47420E-04
  711.00      3.45450E-04
  713.00      3.43700E-04
  715.00      3.42090E-04
  717.00      3.37440E-04
  719.00      3.36920E-04
  721.00      3.36840E-04
  723.00      3.34800E-04
  725.00      3.33260E-04
  727.00      3.31710E-04
  729.00      3.28750E-04
  731.00      3.27870E-04
  733.00      3.26680E-04
  735.00      3.25030E-04
  737.00      3.23160E-04
  739.00      3.21780E-04
  741.00      3.19920E-04
  743.00      3.18600E-04
  745.00      3.16490E-04
  747.00      3.15180E-04
  749.00      3.12760E-04
  751.00      3.12040E-04
  753.00      3.10630E-04
  755.00      3.09130E-04
  757.00      3.07560E-04
  759.00      3.01770E-04
  761.00      3.03920E-04
  763.00      3.02960E-04
  765.00      3.01450E-04
  767.00      3.00220E-04
  769.00      2.97680E-04
  771.00      2.96880E-04
  773.00      2.94580E-04
  775.00      2.94210E-04
  777.00      2.93170E-04
  779.00      2.91620E-04
  781.00      2.90340E-04
  783.00      2.88930E-04
  785.00      2.86760E-04
  787.00      2.85610E-04
  789.00      2.84570E-04
  791.00      2.83550E-04
  793.00      2.82290E-04
  795.00      2.81030E-04
  797.00      2.79160E-04
  799.00      2.78290E-04
  801.00      2.77050E-04
  803.00      2.75520E-04
  805.00      2.74530E-04
  807.00      2.73260E-04
  809.00      2.71960E-04
  811.00      2.70420E-04
  813.00      2.69510E-04
  815.00      2.68170E-04
  817.00      2.66660E-04
  819.00      2.64600E-04
  821.00      2.55550E-04
  823.00      2.52820E-04
  825.00      2.53060E-04
  827.00      2.51950E-04
  829.00      2.51250E-04
  831.00      2.50330E-04
  833.00      2.48510E-04
  835.00      2.47410E-04
  837.00      2.46820E-04
  839.00      2.46140E-04
  841.00      2.45110E-04
  843.00      2.44260E-04
  845.00      2.43010E-04
  847.00      2.42460E-04
  849.00      2.41600E-04
  851.00      2.40060E-04
  853.00      2.40080E-04
  855.00      2.38870E-04
  857.00      2.38860E-04
  859.00      2.36760E-04
  861.00      2.36480E-04
  863.00      2.37440E-04
  865.00      2.35590E-04
  867.00      2.31640E-04
  869.00      2.35490E-04
  871.00      2.35640E-04
  873.00      2.33610E-04
  875.00      2.26130E-04
  877.00      2.31220E-04
  879.00      2.33570E-04
  881.00      2.33360E-04
  883.00      2.32070E-04
  885.00      2.26120E-04
  887.00      2.18390E-04
  889.00      2.28460E-04
  891.00      2.29150E-04
  893.00      2.28210E-04
  895.00      2.27350E-04
  897.00      2.26550E-04
  899.00      2.23680E-04
  901.00      2.10740E-04
  903.00      2.15890E-04
  905.00      2.22120E-04
  907.00      2.21280E-04
  909.00      2.21100E-04
  911.00      2.20340E-04
  913.00      2.19800E-04
  915.00      2.19080E-04
  917.00      2.17630E-04
  919.00      2.16300E-04
  921.00      2.11590E-04
  923.00      1.97010E-04
  925.00      2.09540E-04
  927.00      2.12630E-04
  929.00      2.12390E-04
  931.00      2.11490E-04
  933.00      2.10710E-04
  935.00      2.06090E-04
  937.00      2.08370E-04
  939.00      2.08310E-04
  941.00      2.07200E-04
  943.00      2.06590E-04
  945.00      2.05840E-04
  947.00      2.04690E-04
  949.00      2.03940E-04
  951.00      2.01740E-04
  953.00      1.97130E-04
  955.00      1.83510E-04
  957.00      1.97530E-04
  959.00      1.99590E-04
  961.00      1.99110E-04
  963.00      1.98010E-04
  965.00      1.97960E-04
  967.00      1.97290E-04
  969.00      1.96470E-04
  971.00      1.92620E-04
  973.00      1.94420E-04
  975.00      1.94030E-04
  977.00      1.92580E-04
  979.00      1.92660E-04
  981.00      1.91900E-04
  983.00      1.91020E-04
  985.00      1.90400E-04
  987.00      1.89730E-04
  989.00      1.88830E-04
  991.00      1.88000E-04
  993.00      1.87540E-04
  995.00      1.86850E-04
  997.00      1.86110E-04
  999.00      1.85320E-04
  1002.5      1.79430E-04
  1007.5      1.75800E-04
  1012.5      1.77500E-04
  1017.5      1.79050E-04
  1022.5      1.77300E-04
  1027.5      1.75560E-04
  1032.5      1.73620E-04
  1037.5      1.72500E-04
  1042.5      1.70360E-04
  1047.5      1.69400E-04
  1052.5      1.67830E-04
  1057.5      1.66340E-04
  1062.5      1.64850E-04
  1067.5      1.63300E-04
  1072.5      1.61930E-04
  1077.5      1.60490E-04
  1082.5      1.58030E-04
  1087.5      1.57410E-04
  1092.5      1.48210E-04
  1097.5      1.52850E-04
  1102.5      1.53290E-04
  1107.5      1.52250E-04
  1112.5      1.50940E-04
  1117.5      1.49730E-04
  1122.5      1.48390E-04
  1127.5      1.47130E-04
  1132.5      1.45830E-04
  1137.5      1.44640E-04
  1142.5      1.43470E-04
  1147.5      1.42270E-04
  1152.5      1.41120E-04
  1157.5      1.39880E-04
  1162.5      1.37530E-04
  1167.5      1.36750E-04
  1172.5      1.36530E-04
  1177.5      1.35420E-04
  1182.5      1.34170E-04
  1187.5      1.33170E-04
  1192.5      1.32100E-04
  1197.5      1.30240E-04
  1202.5      1.30050E-04
  1207.5      1.28960E-04
  1212.5      1.27870E-04
  1217.5      1.26970E-04
  1222.5      1.25970E-04
  1227.5      1.25000E-04
  1232.5      1.23990E-04
  1237.5      1.23040E-04
  1242.5      1.22100E-04
  1247.5      1.21150E-04
  1252.5      1.20090E-04
  1257.5      1.19270E-04
  1262.5      1.18380E-04
  1267.5      1.17500E-04
  1272.5      1.16590E-04
  1277.5      1.14520E-04
  1282.5      1.08620E-04
  1287.5      1.13630E-04
  1292.5      1.13150E-04
  1297.5      1.12000E-04
  1302.5      1.11410E-04
  1307.5      1.10650E-04
  1312.5      1.09840E-04
  1317.5      1.09030E-04
  1322.5      1.08240E-04
  1327.5      1.07450E-04
  1332.5      1.06660E-04
  1337.5      1.05880E-04
  1342.5      1.05090E-04
  1347.5      1.04360E-04
  1352.5      1.03600E-04
  1357.5      1.02900E-04
  1362.5      1.02140E-04
  1367.5      1.01440E-04
  1372.5      1.00650E-04
  1377.5      1.00020E-04
  1382.5      9.93230E-05
  1387.5      9.86280E-05
  1392.5      9.79100E-05
  1397.5      9.72640E-05
