 Castelli and Kurucz 2004-2012 Atmosphere
 T     32000.     G    4.50000 [0.2a] VTURB=2  L/H=1.25 NOVER NEW ODF          
 Wavelength  Eddington Hnu
   (nm)    (ergs/s/cm2/Hz/sr)
  9.0900      1.41590E-33
  9.3500      8.60270E-33
  9.6100      4.76690E-32
  9.7700      1.31230E-31
  9.9600      4.19590E-31
  10.200      1.72100E-30
  10.380      4.77250E-30
  10.560      1.28200E-29
  10.770      3.90860E-29
  11.040      1.54720E-28
  11.400      8.83280E-28
  11.780      5.01120E-27
  12.130      2.27060E-26
  12.480      9.52190E-26
  12.710      2.34860E-25
  12.840      3.86120E-25
  13.050      8.45230E-25
  13.240      1.68570E-24
  13.390      2.86930E-24
  13.660      7.28300E-24
  13.980      2.10550E-23
  14.330      6.39430E-23
  14.720      2.08080E-22
  15.100      6.22450E-22
  15.520      1.97100E-21
  15.880      5.06160E-21
  16.200      1.13380E-20
  16.600      2.98490E-20
  17.030      8.01530E-20
  17.340      1.59990E-19
  17.680      3.32350E-19
  18.020      6.69820E-19
  18.170      9.10030E-19
  18.610      2.14630E-18
  19.100      5.35290E-18
  19.390      8.99600E-18
  19.840      1.96360E-17
  20.180      3.45620E-17
  20.500      5.78910E-17
  21.050      1.35910E-16
  21.620      3.13310E-16
  21.980      5.24450E-16
  22.300      8.14830E-16
  22.680      1.43000E-15
  23.000      1.88380E-13
  23.400      4.07380E-13
  24.000      7.39950E-13
  24.650      1.40590E-12
  25.240      2.52690E-12
  25.680      3.70210E-12
  26.000      5.90780E-12
  26.400      8.55630E-12
  26.850      1.34130E-11
  27.350      2.01790E-11
  27.850      2.83440E-11
  28.400      6.63020E-11
  29.000      1.03110E-10
  29.600      1.50350E-10
  30.100      2.11230E-10
  30.800      5.85530E-10
  31.800      1.26460E-09
  32.800      2.05100E-09
  33.800      3.82460E-09
  34.800      6.36560E-09
  35.700      1.80830E-08
  36.600      4.08280E-08
  37.500      5.36860E-08
  38.500      8.69060E-08
  39.500      1.99090E-07
  40.500      2.62430E-07
  41.400      4.15130E-07
  42.200      4.89320E-07
  43.000      6.03770E-07
  44.100      7.94110E-07
  45.100      9.64430E-07
  46.000      1.07920E-06
  47.000      1.38010E-06
  48.000      1.70080E-06
  49.000      1.98860E-06
  50.000      2.52680E-06
  50.600      4.14670E-06
  51.200      3.51270E-05
  52.000      3.37840E-05
  53.000      3.26630E-05
  54.000      3.24750E-05
  55.000      4.09600E-05
  56.000      5.41580E-05
  57.000      5.91980E-05
  58.000      5.53800E-05
  59.000      6.29430E-05
  60.000      4.91740E-05
  61.000      6.67770E-05
  62.000      8.09410E-05
  63.000      8.13310E-05
  64.000      7.96310E-05
  65.000      8.10640E-05
  65.800      6.71620E-05
  66.500      8.48600E-05
  67.500      9.80060E-05
  68.500      8.10070E-05
  69.500      1.13380E-04
  70.500      8.86290E-05
  71.600      1.29840E-04
  72.600      1.28370E-04
  73.500      1.33410E-04
  74.500      1.31640E-04
  75.500      1.36130E-04
  76.500      1.47980E-04
  77.500      1.57900E-04
  78.500      1.66990E-04
  79.500      1.70620E-04
  80.500      1.66880E-04
  81.500      1.69540E-04
  82.500      1.87270E-04
  83.500      1.47660E-04
  84.500      1.87710E-04
  85.500      1.90200E-04
  86.500      2.01590E-04
  87.500      2.08290E-04
  88.500      2.18990E-04
  89.500      2.26220E-04
  90.500      2.23470E-04
  91.500      2.45840E-04
  92.500      8.03610E-04
  93.500      1.36420E-03
  94.500      1.96360E-03
  95.500      2.23750E-03
  96.500      2.63120E-03
  97.500      9.33920E-04
  98.500      2.18350E-03
  99.500      1.99740E-03
  100.50      2.14290E-03
  101.50      2.33100E-03
  102.50      1.73730E-03
  103.50      2.27970E-03
  104.50      2.80540E-03
  105.50      2.67860E-03
  106.50      2.21360E-03
  107.50      2.43030E-03
  108.50      2.28270E-03
  109.50      2.51130E-03
  110.50      2.40350E-03
  111.50      2.38490E-03
  112.50      1.76550E-03
  113.50      2.36150E-03
  114.50      2.26750E-03
  115.50      2.18630E-03
  116.50      2.21140E-03
  117.50      1.41790E-03
  118.50      2.07910E-03
  119.50      2.01890E-03
  120.50      1.86880E-03
  121.50      1.48020E-03
  122.50      1.97910E-03
  123.50      2.17230E-03
  124.50      2.11470E-03
  125.50      2.14100E-03
  126.50      2.22210E-03
  127.50      2.32910E-03
  128.50      2.35640E-03
  129.50      2.08890E-03
  130.50      2.17470E-03
  131.50      2.40640E-03
  132.50      2.32870E-03
  133.50      2.29600E-03
  134.50      2.28330E-03
  135.50      2.30360E-03
  136.50      2.20410E-03
  137.50      2.15680E-03
  138.50      2.08080E-03
  139.50      1.39620E-03
  140.50      1.56360E-03
  141.50      2.06000E-03
  142.50      1.89420E-03
  143.50      2.05180E-03
  144.20      2.06980E-03
  144.70      2.06790E-03
  145.50      1.98200E-03
  146.50      1.92900E-03
  147.50      1.98300E-03
  148.50      1.99330E-03
  149.50      1.95570E-03
  150.50      1.86940E-03
  151.20      1.82700E-03
  151.70      1.86140E-03
  152.50      1.83100E-03
  153.50      1.58850E-03
  154.50      1.40530E-03
  155.50      1.41110E-03
  156.50      1.59430E-03
  157.50      1.70380E-03
  158.50      1.71550E-03
  159.50      1.74400E-03
  160.50      1.69340E-03
  161.50      1.62770E-03
  162.50      1.67670E-03
  163.50      1.72780E-03
  164.50      1.74970E-03
  165.50      1.76070E-03
  166.50      1.74830E-03
  167.20      1.63750E-03
  167.70      1.92380E-03
  168.50      1.84360E-03
  169.50      1.78560E-03
  170.50      1.77670E-03
  171.50      1.71480E-03
  172.50      1.65060E-03
  173.50      1.73330E-03
  174.50      1.73920E-03
  175.50      1.73650E-03
  176.50      1.72690E-03
  177.50      1.66840E-03
  178.50      1.71350E-03
  179.50      1.70600E-03
  180.50      1.72450E-03
  181.50      1.66650E-03
  182.50      1.67520E-03
  183.50      1.67590E-03
  184.50      1.57360E-03
  185.50      1.62600E-03
  186.50      1.65270E-03
  187.50      1.63580E-03
  188.50      1.54750E-03
  189.50      1.50540E-03
  190.50      1.58390E-03
  191.50      1.53690E-03
  192.50      1.45550E-03
  193.50      1.56780E-03
  194.50      1.61140E-03
  195.50      1.46330E-03
  196.70      1.56050E-03
  197.60      1.63390E-03
  198.40      1.55670E-03
  199.50      1.54290E-03
  200.50      1.58300E-03
  201.50      1.59490E-03
  202.50      1.61190E-03
  203.50      1.53930E-03
  204.50      1.54280E-03
  205.50      1.32090E-03
  206.50      1.29700E-03
  207.40      1.35140E-03
  207.80      1.32010E-03
  208.50      1.38320E-03
  209.50      1.42850E-03
  210.50      1.50800E-03
  211.50      1.53410E-03
  212.50      1.52140E-03
  213.50      1.51910E-03
  214.50      1.49540E-03
  215.50      1.52150E-03
  216.50      1.47820E-03
  217.50      1.50460E-03
  218.50      1.47730E-03
  219.50      1.51100E-03
  220.50      1.50270E-03
  221.50      1.46490E-03
  222.50      1.47660E-03
  223.50      1.46480E-03
  224.50      1.46290E-03
  225.50      1.42770E-03
  226.50      1.44850E-03
  227.50      1.44400E-03
  228.50      1.41050E-03
  229.50      1.27340E-03
  230.50      1.38050E-03
  231.50      1.37930E-03
  232.50      1.38700E-03
  233.50      1.37480E-03
  234.50      1.37970E-03
  235.50      1.36430E-03
  236.50      1.35460E-03
  237.50      1.33390E-03
  238.50      1.29930E-03
  239.50      1.30860E-03
  240.50      1.31840E-03
  241.50      1.30200E-03
  242.50      1.30610E-03
  243.50      1.29000E-03
  244.50      1.28900E-03
  245.50      1.28240E-03
  246.50      1.27720E-03
  247.50      1.26490E-03
  248.50      1.22610E-03
  249.50      8.75890E-04
  250.50      1.17230E-03
  251.30      1.16680E-03
  251.80      1.18650E-03
  252.50      1.23050E-03
  253.50      1.23400E-03
  254.50      1.20280E-03
  255.50      1.20910E-03
  256.50      1.19770E-03
  257.50      1.20260E-03
  258.50      1.19900E-03
  259.50      1.18740E-03
  260.50      1.19040E-03
  261.50      1.17480E-03
  262.50      1.17510E-03
  263.50      1.16900E-03
  264.50      1.15970E-03
  265.50      1.15470E-03
  266.50      1.12920E-03
  267.50      1.11760E-03
  268.50      1.13280E-03
  269.50      1.10960E-03
  270.50      1.10420E-03
  271.50      1.10200E-03
  272.50      1.09790E-03
  273.50      1.08530E-03
  274.50      1.09300E-03
  275.50      1.08780E-03
  276.50      1.07720E-03
  277.50      1.08730E-03
  278.50      1.07260E-03
  279.50      1.03760E-03
  280.50      1.05710E-03
  281.50      1.06340E-03
  282.50      1.05460E-03
  283.50      1.03520E-03
  284.50      1.04770E-03
  285.50      1.03460E-03
  286.50      1.02950E-03
  287.50      1.02250E-03
  288.50      1.01860E-03
  289.50      1.01180E-03
  291.00      9.92790E-04
  293.00      9.99050E-04
  295.00      9.82040E-04
  297.00      9.75570E-04
  299.00      9.58160E-04
  301.00      9.34440E-04
  303.00      9.26970E-04
  305.00      9.30320E-04
  307.00      9.30360E-04
  309.00      9.03150E-04
  311.00      9.12620E-04
  313.00      8.95290E-04
  315.00      8.92920E-04
  317.00      8.80910E-04
  319.00      8.74970E-04
  321.00      8.65320E-04
  323.00      8.55170E-04
  325.00      8.54370E-04
  327.00      8.38530E-04
  329.00      8.34860E-04
  331.00      8.25990E-04
  333.00      8.14670E-04
  335.00      8.06750E-04
  337.00      7.99010E-04
  339.00      7.99580E-04
  341.00      7.91280E-04
  343.00      7.88040E-04
  345.00      7.74820E-04
  347.00      7.70200E-04
  349.00      7.62740E-04
  351.00      7.56950E-04
  353.00      7.55300E-04
  355.00      7.46430E-04
  357.00      7.40930E-04
  359.00      7.30000E-04
  361.00      7.26640E-04
  363.00      7.18940E-04
  364.00      7.17060E-04
  365.00      6.99460E-04
  367.00      6.97200E-04
  369.00      6.91230E-04
  371.00      6.70050E-04
  373.00      6.61970E-04
  375.00      6.66960E-04
  377.00      6.55450E-04
  379.00      6.86530E-04
  381.00      7.10000E-04
  383.00      6.43540E-04
  385.00      7.23500E-04
  387.00      7.07900E-04
  389.00      6.23560E-04
  391.00      7.31680E-04
  393.00      7.15770E-04
  395.00      7.01200E-04
  397.00      5.97920E-04
  399.00      7.02990E-04
  401.00      7.01320E-04
  403.00      6.77370E-04
  405.00      6.92480E-04
  407.00      6.62770E-04
  409.00      6.26880E-04
  411.00      5.79290E-04
  413.00      6.55420E-04
  415.00      6.55120E-04
  417.00      6.61450E-04
  419.00      6.55030E-04
  421.00      6.51080E-04
  423.00      6.46410E-04
  425.00      6.30880E-04
  427.00      6.22190E-04
  429.00      6.13830E-04
  431.00      6.01010E-04
  433.00      5.69100E-04
  435.00      5.33600E-04
  437.00      5.92120E-04
  439.00      5.90050E-04
  441.00      5.89010E-04
  443.00      5.91580E-04
  445.00      5.84370E-04
  447.00      5.68160E-04
  449.00      5.78730E-04
  451.00      5.74200E-04
  453.00      5.73990E-04
  455.00      5.67550E-04
  457.00      5.65940E-04
  459.00      5.59410E-04
  461.00      5.50670E-04
  463.00      5.44260E-04
  465.00      5.22850E-04
  467.00      5.37950E-04
  469.00      5.34330E-04
  471.00      5.23640E-04
  473.00      5.35790E-04
  475.00      5.30110E-04
  477.00      5.31850E-04
  479.00      5.27360E-04
  481.00      5.20530E-04
  483.00      5.12980E-04
  485.00      4.87900E-04
  487.00      4.45850E-04
  489.00      5.02240E-04
  491.00      5.00560E-04
  493.00      4.89890E-04
  495.00      4.91580E-04
  497.00      4.94650E-04
  499.00      4.90770E-04
  501.00      4.75200E-04
  503.00      4.80080E-04
  505.00      4.76490E-04
  507.00      4.77430E-04
  509.00      4.72630E-04
  511.00      4.68950E-04
  513.00      4.64820E-04
  515.00      4.62160E-04
  517.00      4.58820E-04
  519.00      4.56870E-04
  521.00      4.54010E-04
  523.00      4.51300E-04
  525.00      4.47400E-04
  527.00      4.43510E-04
  529.00      4.42320E-04
  531.00      4.39100E-04
  533.00      4.36420E-04
  535.00      4.33420E-04
  537.00      4.30690E-04
  539.00      4.26910E-04
  541.00      4.22370E-04
  543.00      4.22360E-04
  545.00      4.19150E-04
  547.00      4.16400E-04
  549.00      4.13830E-04
  551.00      4.11400E-04
  553.00      4.08480E-04
  555.00      4.06380E-04
  557.00      4.03640E-04
  559.00      4.00320E-04
  561.00      3.98620E-04
  563.00      3.96270E-04
  565.00      3.93200E-04
  567.00      3.89600E-04
  569.00      3.83390E-04
  571.00      3.81020E-04
  573.00      3.79560E-04
  575.00      3.75810E-04
  577.00      3.75390E-04
  579.00      3.72800E-04
  581.00      3.70270E-04
  583.00      3.67270E-04
  585.00      3.66240E-04
  587.00      3.55460E-04
  589.00      3.60340E-04
  591.00      3.59480E-04
  593.00      3.57710E-04
  595.00      3.55840E-04
  597.00      3.55340E-04
  599.00      3.52610E-04
  601.00      3.51710E-04
  603.00      3.49130E-04
  605.00      3.47420E-04
  607.00      3.45740E-04
  609.00      3.43780E-04
  611.00      3.41550E-04
  613.00      3.39730E-04
  615.00      3.36500E-04
  617.00      3.34840E-04
  619.00      3.33680E-04
  621.00      3.32020E-04
  623.00      3.30070E-04
  625.00      3.27550E-04
  627.00      3.26050E-04
  629.00      3.24310E-04
  631.00      3.21940E-04
  633.00      3.20700E-04
  635.00      3.18310E-04
  637.00      3.17170E-04
  639.00      3.15300E-04
  641.00      3.13440E-04
  643.00      3.11850E-04
  645.00      3.09960E-04
  647.00      3.07030E-04
  649.00      3.05450E-04
  651.00      3.03280E-04
  653.00      3.00790E-04
  655.00      2.92490E-04
  657.00      2.63990E-04
  659.00      2.94590E-04
  661.00      2.95670E-04
  663.00      2.94690E-04
  665.00      2.92710E-04
  667.00      2.88260E-04
  669.00      2.86670E-04
  671.00      2.87820E-04
  673.00      2.85660E-04
  675.00      2.85210E-04
  677.00      2.83960E-04
  679.00      2.81070E-04
  681.00      2.80720E-04
  683.00      2.78860E-04
  685.00      2.77800E-04
  687.00      2.76190E-04
  689.00      2.73950E-04
  691.00      2.71910E-04
  693.00      2.72170E-04
  695.00      2.70740E-04
  697.00      2.69340E-04
  699.00      2.67830E-04
  701.00      2.66200E-04
  703.00      2.64630E-04
  705.00      2.63380E-04
  707.00      2.58450E-04
  709.00      2.60970E-04
  711.00      2.58670E-04
  713.00      2.57520E-04
  715.00      2.57010E-04
  717.00      2.55500E-04
  719.00      2.54350E-04
  721.00      2.53160E-04
  723.00      2.49380E-04
  725.00      2.49860E-04
  727.00      2.49320E-04
  729.00      2.46270E-04
  731.00      2.46720E-04
  733.00      2.45500E-04
  735.00      2.44280E-04
  737.00      2.43130E-04
  739.00      2.41940E-04
  741.00      2.40720E-04
  743.00      2.39530E-04
  745.00      2.38260E-04
  747.00      2.35700E-04
  749.00      2.35380E-04
  751.00      2.34740E-04
  753.00      2.33390E-04
  755.00      2.32590E-04
  757.00      2.31420E-04
  759.00      2.29890E-04
  761.00      2.28520E-04
  763.00      2.27940E-04
  765.00      2.26770E-04
  767.00      2.25900E-04
  769.00      2.24380E-04
  771.00      2.23560E-04
  773.00      2.21930E-04
  775.00      2.21550E-04
  777.00      2.20430E-04
  779.00      2.19550E-04
  781.00      2.18450E-04
  783.00      2.17490E-04
  785.00      2.16500E-04
  787.00      2.14790E-04
  789.00      2.13670E-04
  791.00      2.13320E-04
  793.00      2.12290E-04
  795.00      2.11450E-04
  797.00      2.10270E-04
  799.00      2.09410E-04
  801.00      2.08440E-04
  803.00      2.07430E-04
  805.00      2.06580E-04
  807.00      2.05650E-04
  809.00      2.04520E-04
  811.00      2.02010E-04
  813.00      2.02810E-04
  815.00      2.01740E-04
  817.00      2.01020E-04
  819.00      1.98600E-04
  821.00      1.97700E-04
  823.00      1.96550E-04
  825.00      1.96580E-04
  827.00      1.93730E-04
  829.00      1.94590E-04
  831.00      1.94130E-04
  833.00      1.93060E-04
  835.00      1.91410E-04
  837.00      1.91000E-04
  839.00      1.90740E-04
  841.00      1.89660E-04
  843.00      1.89050E-04
  845.00      1.87240E-04
  847.00      1.87400E-04
  849.00      1.86230E-04
  851.00      1.85000E-04
  853.00      1.84600E-04
  855.00      1.83200E-04
  857.00      1.83930E-04
  859.00      1.80030E-04
  861.00      1.80410E-04
  863.00      1.82440E-04
  865.00      1.79280E-04
  867.00      1.74170E-04
  869.00      1.79990E-04
  871.00      1.80570E-04
  873.00      1.77110E-04
  875.00      1.67270E-04
  877.00      1.73970E-04
  879.00      1.78050E-04
  881.00      1.78210E-04
  883.00      1.76220E-04
  885.00      1.68480E-04
  887.00      1.60280E-04
  889.00      1.72850E-04
  891.00      1.74500E-04
  893.00      1.74120E-04
  895.00      1.73590E-04
  897.00      1.72600E-04
  899.00      1.68940E-04
  901.00      1.54660E-04
  903.00      1.60650E-04
  905.00      1.68690E-04
  907.00      1.67870E-04
  909.00      1.68310E-04
  911.00      1.68550E-04
  913.00      1.67930E-04
  915.00      1.67300E-04
  917.00      1.65810E-04
  919.00      1.64620E-04
  921.00      1.58690E-04
  923.00      1.43550E-04
  925.00      1.57090E-04
  927.00      1.61610E-04
  929.00      1.61870E-04
  931.00      1.61020E-04
  933.00      1.60500E-04
  935.00      1.59950E-04
  937.00      1.59730E-04
  939.00      1.59180E-04
  941.00      1.58290E-04
  943.00      1.57760E-04
  945.00      1.57050E-04
  947.00      1.55740E-04
  949.00      1.55300E-04
  951.00      1.52940E-04
  953.00      1.47420E-04
  955.00      1.33930E-04
  957.00      1.48810E-04
  959.00      1.52020E-04
  961.00      1.51450E-04
  963.00      1.50540E-04
  965.00      1.51300E-04
  967.00      1.50810E-04
  969.00      1.50110E-04
  971.00      1.47550E-04
  973.00      1.48720E-04
  975.00      1.48460E-04
  977.00      1.47860E-04
  979.00      1.47260E-04
  981.00      1.46460E-04
  983.00      1.46130E-04
  985.00      1.45420E-04
  987.00      1.44950E-04
  989.00      1.43970E-04
  991.00      1.43010E-04
  993.00      1.43320E-04
  995.00      1.42770E-04
  997.00      1.42100E-04
  999.00      1.41310E-04
  1002.5      1.34980E-04
  1007.5      1.31900E-04
  1012.5      1.36820E-04
  1017.5      1.36920E-04
  1022.5      1.35530E-04
  1027.5      1.34360E-04
  1032.5      1.32650E-04
  1037.5      1.31950E-04
  1042.5      1.30760E-04
  1047.5      1.29570E-04
  1052.5      1.28340E-04
  1057.5      1.27250E-04
  1062.5      1.26080E-04
  1067.5      1.24810E-04
  1072.5      1.23880E-04
  1077.5      1.22760E-04
  1082.5      1.20520E-04
  1087.5      1.20150E-04
  1092.5      1.10640E-04
  1097.5      1.15820E-04
  1102.5      1.16780E-04
  1107.5      1.16410E-04
  1112.5      1.15460E-04
  1117.5      1.14530E-04
  1122.5      1.13520E-04
  1127.5      1.12560E-04
  1132.5      1.11390E-04
  1137.5      1.10620E-04
  1142.5      1.09700E-04
  1147.5      1.08820E-04
  1152.5      1.07980E-04
  1157.5      1.07020E-04
  1162.5      1.06010E-04
  1167.5      1.05070E-04
  1172.5      1.04490E-04
  1177.5      1.03620E-04
  1182.5      1.02740E-04
  1187.5      1.01950E-04
  1192.5      1.01130E-04
  1197.5      9.92940E-05
  1202.5      9.95440E-05
  1207.5      9.87440E-05
  1212.5      9.79350E-05
  1217.5      9.71980E-05
  1222.5      9.64340E-05
  1227.5      9.56910E-05
  1232.5      9.48960E-05
  1237.5      9.41710E-05
  1242.5      9.34900E-05
  1247.5      9.26950E-05
  1252.5      9.17480E-05
  1257.5      9.12680E-05
  1262.5      9.05810E-05
  1267.5      8.99700E-05
  1272.5      8.92380E-05
  1277.5      8.70710E-05
  1282.5      8.13290E-05
  1287.5      8.67010E-05
  1292.5      8.66390E-05
  1297.5      8.54240E-05
  1302.5      8.52600E-05
  1307.5      8.47530E-05
  1312.5      8.41380E-05
  1317.5      8.35220E-05
  1322.5      8.29160E-05
  1327.5      8.23150E-05
  1332.5      8.16880E-05
  1337.5      8.10130E-05
  1342.5      8.04350E-05
  1347.5      7.99370E-05
  1352.5      7.92730E-05
  1357.5      7.88100E-05
  1362.5      7.81030E-05
  1367.5      7.77100E-05
  1372.5      7.70510E-05
  1377.5      7.66460E-05
  1382.5      7.61160E-05
  1387.5      7.55780E-05
  1392.5      7.49580E-05
  1397.5      7.45270E-05
