 Castelli and Kurucz 2004-2012 Atmosphere
 T     32000.     G    4.00000 [0.2a] VTURB=2  L/H=1.25 NOVER NEW ODF          
 Wavelength  Eddington Hnu
   (nm)    (ergs/s/cm2/Hz/sr)
  9.0900      1.16940E-33
  9.3500      7.09730E-33
  9.6100      3.93860E-32
  9.7700      1.08850E-31
  9.9600      3.49810E-31
  10.200      1.44510E-30
  10.380      4.03600E-30
  10.560      1.09210E-29
  10.770      3.35870E-29
  11.040      1.34600E-28
  11.400      7.81050E-28
  11.780      4.50610E-27
  12.130      2.07200E-26
  12.480      8.80340E-26
  12.710      2.18890E-25
  12.840      3.61390E-25
  13.050      7.95960E-25
  13.240      1.59560E-24
  13.390      2.72630E-24
  13.660      6.96070E-24
  13.980      2.02460E-23
  14.330      6.17990E-23
  14.720      2.01810E-22
  15.100      6.05860E-22
  15.520      1.92190E-21
  15.880      4.93830E-21
  16.200      1.10570E-20
  16.600      2.90940E-20
  17.030      7.79970E-20
  17.340      1.55570E-19
  17.680      3.24240E-19
  18.020      6.52170E-19
  18.170      8.91740E-19
  18.610      2.09750E-18
  19.100      5.21720E-18
  19.390      8.74940E-18
  19.840      1.91130E-17
  20.180      3.35560E-17
  20.500      5.60840E-17
  21.050      1.31210E-16
  21.620      3.00490E-16
  21.980      5.03710E-16
  22.300      7.81340E-16
  22.680      1.36670E-15
  23.000      3.81160E-13
  23.400      8.30050E-13
  24.000      1.44630E-12
  24.650      2.66600E-12
  25.240      4.78290E-12
  25.680      6.98280E-12
  26.000      1.19670E-11
  26.400      1.87290E-11
  26.850      2.99100E-11
  27.350      4.38690E-11
  27.850      5.86870E-11
  28.400      1.47160E-10
  29.000      2.26440E-10
  29.600      3.18820E-10
  30.100      4.80210E-10
  30.800      1.53520E-09
  31.800      3.49480E-09
  32.800      5.47420E-09
  33.800      1.05660E-08
  34.800      1.74740E-08
  35.700      4.32590E-08
  36.600      1.02110E-07
  37.500      1.28390E-07
  38.500      2.07600E-07
  39.500      4.74480E-07
  40.500      6.23370E-07
  41.400      9.70590E-07
  42.200      1.12940E-06
  43.000      1.32820E-06
  44.100      1.72230E-06
  45.100      2.01670E-06
  46.000      2.14010E-06
  47.000      2.71660E-06
  48.000      3.32290E-06
  49.000      3.56520E-06
  50.000      4.74270E-06
  50.600      6.49890E-06
  51.200      5.27270E-05
  52.000      5.12050E-05
  53.000      4.86040E-05
  54.000      4.91690E-05
  55.000      5.62690E-05
  56.000      8.09550E-05
  57.000      9.48000E-05
  58.000      8.91640E-05
  59.000      9.79420E-05
  60.000      6.60750E-05
  61.000      9.64370E-05
  62.000      1.26550E-04
  63.000      1.25710E-04
  64.000      1.27120E-04
  65.000      1.19740E-04
  65.800      8.60880E-05
  66.500      1.24060E-04
  67.500      1.56390E-04
  68.500      1.17810E-04
  69.500      1.71120E-04
  70.500      1.18540E-04
  71.600      1.99350E-04
  72.600      1.98400E-04
  73.500      2.04710E-04
  74.500      1.84630E-04
  75.500      1.93340E-04
  76.500      2.10450E-04
  77.500      2.29400E-04
  78.500      2.36110E-04
  79.500      2.48300E-04
  80.500      2.35160E-04
  81.500      2.38000E-04
  82.500      2.67930E-04
  83.500      1.98250E-04
  84.500      2.65730E-04
  85.500      2.68300E-04
  86.500      2.85150E-04
  87.500      2.93230E-04
  88.500      3.06090E-04
  89.500      3.14520E-04
  90.500      3.09390E-04
  91.500      3.57270E-04
  92.500      1.03780E-03
  93.500      1.59030E-03
  94.500      1.94160E-03
  95.500      2.13660E-03
  96.500      2.36160E-03
  97.500      9.97130E-04
  98.500      1.92130E-03
  99.500      1.79820E-03
  100.50      1.90380E-03
  101.50      2.08050E-03
  102.50      1.80630E-03
  103.50      2.09480E-03
  104.50      2.47400E-03
  105.50      2.38060E-03
  106.50      2.05270E-03
  107.50      2.19270E-03
  108.50      2.08500E-03
  109.50      2.24930E-03
  110.50      2.18020E-03
  111.50      2.16450E-03
  112.50      1.64210E-03
  113.50      2.14290E-03
  114.50      2.10550E-03
  115.50      2.00390E-03
  116.50      2.02500E-03
  117.50      1.32270E-03
  118.50      1.89860E-03
  119.50      1.85650E-03
  120.50      1.78310E-03
  121.50      1.54870E-03
  122.50      1.84000E-03
  123.50      1.99500E-03
  124.50      1.93790E-03
  125.50      1.97030E-03
  126.50      2.04850E-03
  127.50      2.15490E-03
  128.50      2.18060E-03
  129.50      2.02040E-03
  130.50      2.06160E-03
  131.50      2.23380E-03
  132.50      2.18430E-03
  133.50      2.14610E-03
  134.50      2.15930E-03
  135.50      2.15230E-03
  136.50      2.08890E-03
  137.50      2.04370E-03
  138.50      1.98260E-03
  139.50      1.37180E-03
  140.50      1.51240E-03
  141.50      1.99320E-03
  142.50      1.82050E-03
  143.50      1.97530E-03
  144.20      1.97030E-03
  144.70      1.97500E-03
  145.50      1.89240E-03
  146.50      1.86130E-03
  147.50      1.91640E-03
  148.50      1.93380E-03
  149.50      1.89740E-03
  150.50      1.85010E-03
  151.20      1.83130E-03
  151.70      1.86270E-03
  152.50      1.81200E-03
  153.50      1.59440E-03
  154.50      1.34830E-03
  155.50      1.37450E-03
  156.50      1.58460E-03
  157.50      1.69280E-03
  158.50      1.70840E-03
  159.50      1.73070E-03
  160.50      1.66080E-03
  161.50      1.60170E-03
  162.50      1.65580E-03
  163.50      1.69940E-03
  164.50      1.72070E-03
  165.50      1.73180E-03
  166.50      1.71630E-03
  167.20      1.59540E-03
  167.70      1.89200E-03
  168.50      1.81310E-03
  169.50      1.76440E-03
  170.50      1.76560E-03
  171.50      1.69540E-03
  172.50      1.64830E-03
  173.50      1.72630E-03
  174.50      1.73170E-03
  175.50      1.72560E-03
  176.50      1.71950E-03
  177.50      1.67120E-03
  178.50      1.71560E-03
  179.50      1.69660E-03
  180.50      1.71310E-03
  181.50      1.67690E-03
  182.50      1.67410E-03
  183.50      1.68590E-03
  184.50      1.60770E-03
  185.50      1.65550E-03
  186.50      1.67450E-03
  187.50      1.64750E-03
  188.50      1.58060E-03
  189.50      1.55880E-03
  190.50      1.62180E-03
  191.50      1.58520E-03
  192.50      1.50400E-03
  193.50      1.61230E-03
  194.50      1.64590E-03
  195.50      1.50620E-03
  196.70      1.59650E-03
  197.60      1.65200E-03
  198.40      1.59990E-03
  199.50      1.57810E-03
  200.50      1.62060E-03
  201.50      1.63150E-03
  202.50      1.64410E-03
  203.50      1.58580E-03
  204.50      1.58150E-03
  205.50      1.31090E-03
  206.50      1.28190E-03
  207.40      1.35530E-03
  207.80      1.34470E-03
  208.50      1.44670E-03
  209.50      1.50320E-03
  210.50      1.54200E-03
  211.50      1.57330E-03
  212.50      1.55500E-03
  213.50      1.56010E-03
  214.50      1.54230E-03
  215.50      1.56060E-03
  216.50      1.50820E-03
  217.50      1.54500E-03
  218.50      1.51790E-03
  219.50      1.55420E-03
  220.50      1.54310E-03
  221.50      1.50300E-03
  222.50      1.52010E-03
  223.50      1.50970E-03
  224.50      1.50290E-03
  225.50      1.47220E-03
  226.50      1.48960E-03
  227.50      1.48830E-03
  228.50      1.45370E-03
  229.50      1.31080E-03
  230.50      1.42320E-03
  231.50      1.42160E-03
  232.50      1.43380E-03
  233.50      1.42320E-03
  234.50      1.42030E-03
  235.50      1.40330E-03
  236.50      1.39130E-03
  237.50      1.37160E-03
  238.50      1.33100E-03
  239.50      1.34510E-03
  240.50      1.35700E-03
  241.50      1.34240E-03
  242.50      1.34740E-03
  243.50      1.33400E-03
  244.50      1.33090E-03
  245.50      1.32220E-03
  246.50      1.31590E-03
  247.50      1.30380E-03
  248.50      1.25030E-03
  249.50      8.50040E-04
  250.50      1.18570E-03
  251.30      1.20700E-03
  251.80      1.22860E-03
  252.50      1.27130E-03
  253.50      1.27570E-03
  254.50      1.25140E-03
  255.50      1.25450E-03
  256.50      1.24530E-03
  257.50      1.24700E-03
  258.50      1.24260E-03
  259.50      1.22680E-03
  260.50      1.23320E-03
  261.50      1.21510E-03
  262.50      1.21720E-03
  263.50      1.21350E-03
  264.50      1.20290E-03
  265.50      1.19930E-03
  266.50      1.17850E-03
  267.50      1.15960E-03
  268.50      1.17630E-03
  269.50      1.15920E-03
  270.50      1.15770E-03
  271.50      1.15100E-03
  272.50      1.14650E-03
  273.50      1.13070E-03
  274.50      1.14300E-03
  275.50      1.13510E-03
  276.50      1.12640E-03
  277.50      1.13210E-03
  278.50      1.11630E-03
  279.50      1.08440E-03
  280.50      1.10450E-03
  281.50      1.10720E-03
  282.50      1.10060E-03
  283.50      1.08550E-03
  284.50      1.09330E-03
  285.50      1.08160E-03
  286.50      1.07360E-03
  287.50      1.06750E-03
  288.50      1.06460E-03
  289.50      1.05920E-03
  291.00      1.04040E-03
  293.00      1.04430E-03
  295.00      1.02940E-03
  297.00      1.02010E-03
  299.00      1.00150E-03
  301.00      9.80910E-04
  303.00      9.68920E-04
  305.00      9.73130E-04
  307.00      9.70480E-04
  309.00      9.48940E-04
  311.00      9.55360E-04
  313.00      9.38740E-04
  315.00      9.36830E-04
  317.00      9.25290E-04
  319.00      9.19270E-04
  321.00      9.05050E-04
  323.00      8.97930E-04
  325.00      8.96630E-04
  327.00      8.78650E-04
  329.00      8.76080E-04
  331.00      8.66410E-04
  333.00      8.55180E-04
  335.00      8.44530E-04
  337.00      8.38340E-04
  339.00      8.39040E-04
  341.00      8.30450E-04
  343.00      8.27830E-04
  345.00      8.13340E-04
  347.00      8.09990E-04
  349.00      8.02820E-04
  351.00      7.96750E-04
  353.00      7.93480E-04
  355.00      7.84790E-04
  357.00      7.78300E-04
  359.00      7.69220E-04
  361.00      7.63370E-04
  363.00      7.56370E-04
  364.00      7.50990E-04
  365.00      7.20570E-04
  367.00      7.17470E-04
  369.00      7.10950E-04
  371.00      6.93200E-04
  373.00      6.88900E-04
  375.00      7.04930E-04
  377.00      7.01100E-04
  379.00      7.28960E-04
  381.00      7.48220E-04
  383.00      6.92040E-04
  385.00      7.55290E-04
  387.00      7.33840E-04
  389.00      6.74760E-04
  391.00      7.52680E-04
  393.00      7.33940E-04
  395.00      7.22840E-04
  397.00      6.45420E-04
  399.00      7.25430E-04
  401.00      7.19300E-04
  403.00      7.01590E-04
  405.00      7.10050E-04
  407.00      6.84830E-04
  409.00      6.58140E-04
  411.00      6.19080E-04
  413.00      6.74820E-04
  415.00      6.73360E-04
  417.00      6.77760E-04
  419.00      6.70950E-04
  421.00      6.64580E-04
  423.00      6.62590E-04
  425.00      6.49390E-04
  427.00      6.41150E-04
  429.00      6.33250E-04
  431.00      6.22710E-04
  433.00      6.01560E-04
  435.00      5.68250E-04
  437.00      6.14120E-04
  439.00      6.09870E-04
  441.00      6.06040E-04
  443.00      6.08040E-04
  445.00      6.01260E-04
  447.00      5.90380E-04
  449.00      5.95610E-04
  451.00      5.87720E-04
  453.00      5.88000E-04
  455.00      5.80320E-04
  457.00      5.80490E-04
  459.00      5.73830E-04
  461.00      5.67290E-04
  463.00      5.60630E-04
  465.00      5.36770E-04
  467.00      5.53130E-04
  469.00      5.47340E-04
  471.00      5.42030E-04
  473.00      5.52080E-04
  475.00      5.46550E-04
  477.00      5.46450E-04
  479.00      5.42350E-04
  481.00      5.36500E-04
  483.00      5.30570E-04
  485.00      5.14530E-04
  487.00      4.75500E-04
  489.00      5.19330E-04
  491.00      5.16400E-04
  493.00      5.07700E-04
  495.00      5.07010E-04
  497.00      5.09180E-04
  499.00      5.05490E-04
  501.00      4.91980E-04
  503.00      4.94840E-04
  505.00      4.91710E-04
  507.00      4.91820E-04
  509.00      4.87630E-04
  511.00      4.84030E-04
  513.00      4.80300E-04
  515.00      4.77290E-04
  517.00      4.73480E-04
  519.00      4.71240E-04
  521.00      4.68460E-04
  523.00      4.65620E-04
  525.00      4.61200E-04
  527.00      4.57480E-04
  529.00      4.56520E-04
  531.00      4.53190E-04
  533.00      4.50470E-04
  535.00      4.47620E-04
  537.00      4.44630E-04
  539.00      4.41000E-04
  541.00      4.35150E-04
  543.00      4.36250E-04
  545.00      4.33180E-04
  547.00      4.30280E-04
  549.00      4.27580E-04
  551.00      4.24730E-04
  553.00      4.22130E-04
  555.00      4.19860E-04
  557.00      4.16940E-04
  559.00      4.13160E-04
  561.00      4.12020E-04
  563.00      4.09490E-04
  565.00      4.06660E-04
  567.00      4.03280E-04
  569.00      3.95790E-04
  571.00      3.89630E-04
  573.00      3.87850E-04
  575.00      3.84420E-04
  577.00      3.83620E-04
  579.00      3.81160E-04
  581.00      3.78350E-04
  583.00      3.76080E-04
  585.00      3.75650E-04
  587.00      3.67000E-04
  589.00      3.71480E-04
  591.00      3.70600E-04
  593.00      3.69210E-04
  595.00      3.67950E-04
  597.00      3.67580E-04
  599.00      3.65570E-04
  601.00      3.64380E-04
  603.00      3.61730E-04
  605.00      3.59830E-04
  607.00      3.57970E-04
  609.00      3.56050E-04
  611.00      3.53670E-04
  613.00      3.51740E-04
  615.00      3.48850E-04
  617.00      3.46880E-04
  619.00      3.45740E-04
  621.00      3.43980E-04
  623.00      3.41560E-04
  625.00      3.39410E-04
  627.00      3.37910E-04
  629.00      3.36040E-04
  631.00      3.33240E-04
  633.00      3.32340E-04
  635.00      3.30000E-04
  637.00      3.28690E-04
  639.00      3.26820E-04
  641.00      3.24500E-04
  643.00      3.23230E-04
  645.00      3.21210E-04
  647.00      3.18620E-04
  649.00      3.16850E-04
  651.00      3.14430E-04
  653.00      3.12320E-04
  655.00      3.07230E-04
  657.00      2.80860E-04
  659.00      3.06980E-04
  661.00      3.07020E-04
  663.00      3.05720E-04
  665.00      3.03690E-04
  667.00      2.99300E-04
  669.00      2.97340E-04
  671.00      2.98340E-04
  673.00      2.96210E-04
  675.00      2.95580E-04
  677.00      2.94440E-04
  679.00      2.92080E-04
  681.00      2.91290E-04
  683.00      2.89500E-04
  685.00      2.88180E-04
  687.00      2.86490E-04
  689.00      2.83750E-04
  691.00      2.82350E-04
  693.00      2.82380E-04
  695.00      2.80880E-04
  697.00      2.79450E-04
  699.00      2.77940E-04
  701.00      2.76110E-04
  703.00      2.74430E-04
  705.00      2.73170E-04
  707.00      2.68540E-04
  709.00      2.70850E-04
  711.00      2.68690E-04
  713.00      2.67510E-04
  715.00      2.66780E-04
  717.00      2.64830E-04
  719.00      2.63810E-04
  721.00      2.62750E-04
  723.00      2.59440E-04
  725.00      2.59460E-04
  727.00      2.58800E-04
  729.00      2.55850E-04
  731.00      2.56030E-04
  733.00      2.54880E-04
  735.00      2.53600E-04
  737.00      2.52360E-04
  739.00      2.51170E-04
  741.00      2.49870E-04
  743.00      2.48690E-04
  745.00      2.47290E-04
  747.00      2.45190E-04
  749.00      2.44240E-04
  751.00      2.43700E-04
  753.00      2.42420E-04
  755.00      2.41470E-04
  757.00      2.40250E-04
  759.00      2.38120E-04
  761.00      2.37340E-04
  763.00      2.36630E-04
  765.00      2.35440E-04
  767.00      2.34580E-04
  769.00      2.32800E-04
  771.00      2.32080E-04
  773.00      2.30340E-04
  775.00      2.30010E-04
  777.00      2.29030E-04
  779.00      2.27990E-04
  781.00      2.26880E-04
  783.00      2.25860E-04
  785.00      2.24650E-04
  787.00      2.23120E-04
  789.00      2.22110E-04
  791.00      2.21600E-04
  793.00      2.20530E-04
  795.00      2.19680E-04
  797.00      2.18400E-04
  799.00      2.17550E-04
  801.00      2.16550E-04
  803.00      2.15420E-04
  805.00      2.14610E-04
  807.00      2.13630E-04
  809.00      2.12480E-04
  811.00      2.10240E-04
  813.00      2.10730E-04
  815.00      2.09580E-04
  817.00      2.08800E-04
  819.00      2.06700E-04
  821.00      2.04480E-04
  823.00      2.03120E-04
  825.00      2.03110E-04
  827.00      2.00750E-04
  829.00      2.01200E-04
  831.00      2.00640E-04
  833.00      1.99350E-04
  835.00      1.97830E-04
  837.00      1.97480E-04
  839.00      1.97170E-04
  841.00      1.96110E-04
  843.00      1.95440E-04
  845.00      1.93870E-04
  847.00      1.93690E-04
  849.00      1.92810E-04
  851.00      1.90990E-04
  853.00      1.91400E-04
  855.00      1.89060E-04
  857.00      1.90960E-04
  859.00      1.86660E-04
  861.00      1.86550E-04
  863.00      1.89700E-04
  865.00      1.86740E-04
  867.00      1.79540E-04
  869.00      1.87500E-04
  871.00      1.87900E-04
  873.00      1.84960E-04
  875.00      1.73360E-04
  877.00      1.82070E-04
  879.00      1.85430E-04
  881.00      1.85200E-04
  883.00      1.83630E-04
  885.00      1.77030E-04
  887.00      1.67630E-04
  889.00      1.80700E-04
  891.00      1.81280E-04
  893.00      1.80660E-04
  895.00      1.80090E-04
  897.00      1.79230E-04
  899.00      1.76600E-04
  901.00      1.62750E-04
  903.00      1.69360E-04
  905.00      1.75810E-04
  907.00      1.74530E-04
  909.00      1.74620E-04
  911.00      1.74580E-04
  913.00      1.73890E-04
  915.00      1.73330E-04
  917.00      1.72100E-04
  919.00      1.71140E-04
  921.00      1.66680E-04
  923.00      1.51900E-04
  925.00      1.65380E-04
  927.00      1.68240E-04
  929.00      1.68010E-04
  931.00      1.66990E-04
  933.00      1.66360E-04
  935.00      1.65260E-04
  937.00      1.65340E-04
  939.00      1.64830E-04
  941.00      1.63880E-04
  943.00      1.63390E-04
  945.00      1.62710E-04
  947.00      1.61640E-04
  949.00      1.61260E-04
  951.00      1.59260E-04
  953.00      1.55370E-04
  955.00      1.42180E-04
  957.00      1.56310E-04
  959.00      1.58080E-04
  961.00      1.57280E-04
  963.00      1.56250E-04
  965.00      1.56700E-04
  967.00      1.56200E-04
  969.00      1.55490E-04
  971.00      1.52060E-04
  973.00      1.53880E-04
  975.00      1.53780E-04
  977.00      1.53100E-04
  979.00      1.52550E-04
  981.00      1.51790E-04
  983.00      1.51340E-04
  985.00      1.50670E-04
  987.00      1.50190E-04
  989.00      1.49250E-04
  991.00      1.48360E-04
  993.00      1.48500E-04
  995.00      1.47960E-04
  997.00      1.47320E-04
  999.00      1.46780E-04
  1002.5      1.41550E-04
  1007.5      1.38520E-04
  1012.5      1.41690E-04
  1017.5      1.41870E-04
  1022.5      1.40430E-04
  1027.5      1.39190E-04
  1032.5      1.37510E-04
  1037.5      1.36730E-04
  1042.5      1.35430E-04
  1047.5      1.34270E-04
  1052.5      1.33010E-04
  1057.5      1.31870E-04
  1062.5      1.30660E-04
  1067.5      1.29380E-04
  1072.5      1.28390E-04
  1077.5      1.27230E-04
  1082.5      1.24980E-04
  1087.5      1.24810E-04
  1092.5      1.16630E-04
  1097.5      1.21130E-04
  1102.5      1.21320E-04
  1107.5      1.20730E-04
  1112.5      1.19690E-04
  1117.5      1.18730E-04
  1122.5      1.17680E-04
  1127.5      1.16700E-04
  1132.5      1.15540E-04
  1137.5      1.14680E-04
  1142.5      1.13750E-04
  1147.5      1.12820E-04
  1152.5      1.11950E-04
  1157.5      1.10960E-04
  1162.5      1.09790E-04
  1167.5      1.08890E-04
  1172.5      1.08340E-04
  1177.5      1.07450E-04
  1182.5      1.06500E-04
  1187.5      1.05690E-04
  1192.5      1.04850E-04
  1197.5      1.03150E-04
  1202.5      1.03220E-04
  1207.5      1.02380E-04
  1212.5      1.01520E-04
  1217.5      1.00790E-04
  1222.5      1.00000E-04
  1227.5      9.92330E-05
  1232.5      9.84130E-05
  1237.5      9.76670E-05
  1242.5      9.69540E-05
  1247.5      9.61610E-05
  1252.5      9.52020E-05
  1257.5      9.46680E-05
  1262.5      9.39640E-05
  1267.5      9.33100E-05
  1272.5      9.26030E-05
  1277.5      9.07640E-05
  1282.5      8.58590E-05
  1287.5      9.02640E-05
  1292.5      8.98720E-05
  1297.5      8.87490E-05
  1302.5      8.84450E-05
  1307.5      8.79070E-05
  1312.5      8.72660E-05
  1317.5      8.66290E-05
  1322.5      8.60000E-05
  1327.5      8.53780E-05
  1332.5      8.47350E-05
  1337.5      8.40620E-05
  1342.5      8.34520E-05
  1347.5      8.29210E-05
  1352.5      8.22550E-05
  1357.5      8.17580E-05
  1362.5      8.10690E-05
  1367.5      8.06140E-05
  1372.5      7.99360E-05
  1377.5      7.95040E-05
  1382.5      7.89540E-05
  1387.5      7.83990E-05
  1392.5      7.77740E-05
  1397.5      7.73140E-05
