 Castelli and Kurucz 2004-2012 Atmosphere
 T     46000.     G    5.00000 [0.2a] VTURB=2  L/H=1.25 NOVER NEW ODF          
 Wavelength  Eddington Hnu
   (nm)    (ergs/s/cm2/Hz/sr)
  9.0900      4.25480E-21
  9.3500      1.31200E-20
  9.6100      3.73000E-20
  9.7700      7.12730E-20
  9.9600      1.46550E-19
  10.200      3.51090E-19
  10.380      6.59540E-19
  10.560      1.21360E-18
  10.770      2.41120E-18
  11.040      5.61600E-18
  11.400      1.63200E-17
  11.780      4.67750E-17
  12.130      1.17790E-16
  12.480      2.80140E-16
  12.710      4.83380E-16
  12.840      6.58520E-16
  13.050      1.05180E-15
  13.240      1.58380E-15
  13.390      2.18740E-15
  13.660      3.78100E-15
  13.980      7.21430E-15
  14.330      1.38220E-14
  14.720      2.66070E-14
  15.100      5.35850E-14
  15.520      1.06100E-13
  15.880      1.87670E-13
  16.200      3.48690E-13
  16.600      6.28130E-13
  17.030      1.09730E-12
  17.340      1.63090E-12
  17.680      2.59890E-12
  18.020      3.95540E-12
  18.170      4.70940E-12
  18.610      8.07030E-12
  19.100      1.36490E-11
  19.390      1.91640E-11
  19.840      3.05970E-11
  20.180      4.14190E-11
  20.500      5.72820E-11
  21.050      9.38670E-11
  21.620      1.50440E-10
  21.980      2.06040E-10
  22.300      2.61750E-10
  22.680      3.67530E-10
  23.000      4.91110E-08
  23.400      1.68620E-07
  24.000      2.22940E-07
  24.650      3.94190E-07
  25.240      1.54910E-06
  25.680      4.74860E-06
  26.000      3.89070E-06
  26.400      2.35880E-05
  26.850      3.22800E-05
  27.350      4.33220E-05
  27.850      2.39100E-05
  28.400      6.29920E-05
  29.000      1.13000E-04
  29.600      8.70460E-05
  30.100      6.64630E-05
  30.800      1.33070E-04
  31.800      2.06890E-05
  32.800      3.55160E-05
  33.800      2.75250E-05
  34.800      3.29220E-05
  35.700      8.90700E-05
  36.600      2.29940E-04
  37.500      3.71450E-04
  38.500      3.92340E-04
  39.500      7.00680E-04
  40.500      1.32300E-03
  41.400      1.22550E-03
  42.200      1.13900E-03
  43.000      1.08540E-03
  44.100      1.32780E-03
  45.100      1.44900E-03
  46.000      1.10950E-03
  47.000      1.35940E-03
  48.000      1.68620E-03
  49.000      1.15620E-03
  50.000      2.05960E-03
  50.600      1.55030E-03
  51.200      2.28150E-03
  52.000      2.14660E-03
  53.000      2.01900E-03
  54.000      1.68480E-03
  55.000      1.32700E-03
  56.000      1.86780E-03
  57.000      2.49630E-03
  58.000      2.53830E-03
  59.000      2.59610E-03
  60.000      2.04190E-03
  61.000      1.74190E-03
  62.000      2.46500E-03
  63.000      2.25010E-03
  64.000      2.77660E-03
  65.000      2.54930E-03
  65.800      2.11060E-03
  66.500      2.73500E-03
  67.500      2.89650E-03
  68.500      2.54380E-03
  69.500      2.92840E-03
  70.500      2.39230E-03
  71.600      2.98010E-03
  72.600      3.10150E-03
  73.500      3.11540E-03
  74.500      2.94980E-03
  75.500      2.89890E-03
  76.500      2.67790E-03
  77.500      2.97320E-03
  78.500      2.45460E-03
  79.500      2.90340E-03
  80.500      3.02600E-03
  81.500      3.04420E-03
  82.500      3.11480E-03
  83.500      2.69280E-03
  84.500      3.06170E-03
  85.500      2.86270E-03
  86.500      3.11520E-03
  87.500      3.16500E-03
  88.500      3.10660E-03
  89.500      3.10790E-03
  90.500      3.03790E-03
  91.500      2.25560E-03
  92.500      3.56080E-03
  93.500      4.55100E-03
  94.500      5.28400E-03
  95.500      6.32940E-03
  96.500      6.87250E-03
  97.500      5.23190E-03
  98.500      6.23930E-03
  99.500      5.59200E-03
  100.50      5.70340E-03
  101.50      5.95020E-03
  102.50      5.45760E-03
  103.50      6.30260E-03
  104.50      6.71630E-03
  105.50      6.62480E-03
  106.50      6.14240E-03
  107.50      6.55870E-03
  108.50      5.88800E-03
  109.50      6.45510E-03
  110.50      6.34030E-03
  111.50      6.34630E-03
  112.50      6.08740E-03
  113.50      6.37810E-03
  114.50      6.43200E-03
  115.50      6.04620E-03
  116.50      5.70900E-03
  117.50      5.27720E-03
  118.50      5.78650E-03
  119.50      5.44010E-03
  120.50      5.43400E-03
  121.50      4.57340E-03
  122.50      5.31610E-03
  123.50      5.24270E-03
  124.50      5.12700E-03
  125.50      5.36010E-03
  126.50      5.41210E-03
  127.50      5.49090E-03
  128.50      5.49400E-03
  129.50      5.50450E-03
  130.50      5.37120E-03
  131.50      5.38480E-03
  132.50      5.33830E-03
  133.50      5.29640E-03
  134.50      5.20320E-03
  135.50      5.09790E-03
  136.50      4.90950E-03
  137.50      4.71390E-03
  138.50      4.84160E-03
  139.50      4.64450E-03
  140.50      4.45790E-03
  141.50      4.99050E-03
  142.50      4.68570E-03
  143.50      4.90930E-03
  144.20      4.68810E-03
  144.70      4.71670E-03
  145.50      4.62180E-03
  146.50      4.62740E-03
  147.50      4.65120E-03
  148.50      4.72110E-03
  149.50      4.63010E-03
  150.50      4.60890E-03
  151.20      4.61600E-03
  151.70      4.52500E-03
  152.50      4.56150E-03
  153.50      4.27060E-03
  154.50      3.64450E-03
  155.50      3.75600E-03
  156.50      4.12940E-03
  157.50      4.24400E-03
  158.50      4.14140E-03
  159.50      4.24730E-03
  160.50      4.10040E-03
  161.50      4.02680E-03
  162.50      4.08830E-03
  163.50      4.08460E-03
  164.50      3.95220E-03
  165.50      4.12250E-03
  166.50      4.04120E-03
  167.20      3.91420E-03
  167.70      4.19690E-03
  168.50      4.16120E-03
  169.50      4.15510E-03
  170.50      4.05230E-03
  171.50      3.91600E-03
  172.50      3.88260E-03
  173.50      4.02140E-03
  174.50      4.00860E-03
  175.50      3.96940E-03
  176.50      3.90750E-03
  177.50      3.87100E-03
  178.50      3.91440E-03
  179.50      3.83120E-03
  180.50      3.81010E-03
  181.50      3.77110E-03
  182.50      3.74370E-03
  183.50      3.73410E-03
  184.50      3.73120E-03
  185.50      3.70920E-03
  186.50      3.71300E-03
  187.50      3.63510E-03
  188.50      3.60480E-03
  189.50      3.64530E-03
  190.50      3.62180E-03
  191.50      3.59660E-03
  192.50      3.45840E-03
  193.50      3.56360E-03
  194.50      3.55380E-03
  195.50      3.46880E-03
  196.70      3.47850E-03
  197.60      3.43300E-03
  198.40      3.45490E-03
  199.50      3.42110E-03
  200.50      3.41860E-03
  201.50      3.39610E-03
  202.50      3.37900E-03
  203.50      3.33560E-03
  204.50      3.29500E-03
  205.50      2.43550E-03
  206.50      2.34190E-03
  207.40      2.39870E-03
  207.80      2.45660E-03
  208.50      2.61890E-03
  209.50      2.93800E-03
  210.50      3.11480E-03
  211.50      3.16160E-03
  212.50      3.10950E-03
  213.50      3.12430E-03
  214.50      3.09890E-03
  215.50      3.09930E-03
  216.50      2.92500E-03
  217.50      3.09020E-03
  218.50      2.95340E-03
  219.50      3.07240E-03
  220.50      3.04520E-03
  221.50      2.88370E-03
  222.50      3.01340E-03
  223.50      2.99640E-03
  224.50      2.97370E-03
  225.50      2.83320E-03
  226.50      2.92530E-03
  227.50      2.93410E-03
  228.50      2.86090E-03
  229.50      2.82200E-03
  230.50      2.74100E-03
  231.50      2.79610E-03
  232.50      2.81890E-03
  233.50      2.81030E-03
  234.50      2.77340E-03
  235.50      2.73880E-03
  236.50      2.71380E-03
  237.50      2.67150E-03
  238.50      2.52550E-03
  239.50      2.62280E-03
  240.50      2.61560E-03
  241.50      2.59750E-03
  242.50      2.62160E-03
  243.50      2.59030E-03
  244.50      2.57850E-03
  245.50      2.53780E-03
  246.50      2.54480E-03
  247.50      2.55440E-03
  248.50      2.51040E-03
  249.50      2.21690E-03
  250.50      2.46920E-03
  251.30      2.27730E-03
  251.80      2.39810E-03
  252.50      2.43000E-03
  253.50      2.44760E-03
  254.50      2.43710E-03
  255.50      2.42130E-03
  256.50      2.40770E-03
  257.50      2.39140E-03
  258.50      2.37830E-03
  259.50      2.30790E-03
  260.50      2.35040E-03
  261.50      2.29780E-03
  262.50      2.32530E-03
  263.50      2.31610E-03
  264.50      2.28170E-03
  265.50      2.28760E-03
  266.50      2.26780E-03
  267.50      2.21910E-03
  268.50      2.22930E-03
  269.50      2.21550E-03
  270.50      2.22700E-03
  271.50      2.20840E-03
  272.50      2.18880E-03
  273.50      2.10150E-03
  274.50      2.17360E-03
  275.50      2.15000E-03
  276.50      2.14540E-03
  277.50      2.12560E-03
  278.50      2.08790E-03
  279.50      2.07400E-03
  280.50      2.08270E-03
  281.50      2.07380E-03
  282.50      2.05210E-03
  283.50      2.05340E-03
  284.50      2.04770E-03
  285.50      2.03410E-03
  286.50      2.00870E-03
  287.50      1.99450E-03
  288.50      1.99660E-03
  289.50      1.97650E-03
  291.00      1.96320E-03
  293.00      1.95010E-03
  295.00      1.92960E-03
  297.00      1.90100E-03
  299.00      1.86780E-03
  301.00      1.84780E-03
  303.00      1.81230E-03
  305.00      1.80750E-03
  307.00      1.77380E-03
  309.00      1.77400E-03
  311.00      1.75890E-03
  313.00      1.73690E-03
  315.00      1.72760E-03
  317.00      1.70680E-03
  319.00      1.69260E-03
  321.00      1.63470E-03
  323.00      1.65870E-03
  325.00      1.64400E-03
  327.00      1.60670E-03
  329.00      1.60370E-03
  331.00      1.58620E-03
  333.00      1.56630E-03
  335.00      1.53650E-03
  337.00      1.53280E-03
  339.00      1.51420E-03
  341.00      1.49890E-03
  343.00      1.49790E-03
  345.00      1.46690E-03
  347.00      1.46620E-03
  349.00      1.45460E-03
  351.00      1.44500E-03
  353.00      1.42480E-03
  355.00      1.41280E-03
  357.00      1.39950E-03
  359.00      1.38880E-03
  361.00      1.37350E-03
  363.00      1.35850E-03
  364.00      1.32460E-03
  365.00      1.18710E-03
  367.00      1.17840E-03
  369.00      1.16920E-03
  371.00      1.15990E-03
  373.00      1.17470E-03
  375.00      1.19160E-03
  377.00      1.20660E-03
  379.00      1.23940E-03
  381.00      1.26370E-03
  383.00      1.20790E-03
  385.00      1.26520E-03
  387.00      1.25740E-03
  389.00      1.15700E-03
  391.00      1.25550E-03
  393.00      1.23570E-03
  395.00      1.22250E-03
  397.00      1.10550E-03
  399.00      1.21220E-03
  401.00      1.20490E-03
  403.00      1.17280E-03
  405.00      1.18990E-03
  407.00      1.17150E-03
  409.00      1.12300E-03
  411.00      1.06170E-03
  413.00      1.14230E-03
  415.00      1.13770E-03
  417.00      1.13150E-03
  419.00      1.11430E-03
  421.00      1.08900E-03
  423.00      1.10490E-03
  425.00      1.09410E-03
  427.00      1.08580E-03
  429.00      1.07580E-03
  431.00      1.06200E-03
  433.00      1.01390E-03
  435.00      9.72210E-04
  437.00      1.03520E-03
  439.00      1.02320E-03
  441.00      1.01460E-03
  443.00      1.01250E-03
  445.00      1.00190E-03
  447.00      9.90480E-04
  449.00      9.88990E-04
  451.00      9.77450E-04
  453.00      9.68240E-04
  455.00      9.40790E-04
  457.00      9.56910E-04
  459.00      9.48940E-04
  461.00      9.42510E-04
  463.00      9.27350E-04
  465.00      9.04410E-04
  467.00      9.17580E-04
  469.00      8.79900E-04
  471.00      9.08090E-04
  473.00      9.05200E-04
  475.00      8.98520E-04
  477.00      8.91320E-04
  479.00      8.82740E-04
  481.00      8.77150E-04
  483.00      8.69090E-04
  485.00      8.39200E-04
  487.00      7.89370E-04
  489.00      8.47790E-04
  491.00      8.43890E-04
  493.00      8.36740E-04
  495.00      8.32510E-04
  497.00      8.27370E-04
  499.00      8.21740E-04
  501.00      8.12120E-04
  503.00      8.07710E-04
  505.00      8.02500E-04
  507.00      7.97930E-04
  509.00      7.92540E-04
  511.00      7.86730E-04
  513.00      7.80810E-04
  515.00      7.75430E-04
  517.00      7.70280E-04
  519.00      7.64840E-04
  521.00      7.59130E-04
  523.00      7.54320E-04
  525.00      7.47820E-04
  527.00      7.41570E-04
  529.00      7.38780E-04
  531.00      7.33440E-04
  533.00      7.28440E-04
  535.00      7.23730E-04
  537.00      7.18600E-04
  539.00      7.13700E-04
  541.00      6.90580E-04
  543.00      7.03830E-04
  545.00      6.99570E-04
  547.00      6.94620E-04
  549.00      6.90180E-04
  551.00      6.84220E-04
  553.00      6.81040E-04
  555.00      6.76620E-04
  557.00      6.71470E-04
  559.00      6.64440E-04
  561.00      6.63370E-04
  563.00      6.59000E-04
  565.00      6.54690E-04
  567.00      6.50430E-04
  569.00      6.34940E-04
  571.00      5.91010E-04
  573.00      5.87520E-04
  575.00      5.83920E-04
  577.00      5.80780E-04
  579.00      5.77630E-04
  581.00      5.70880E-04
  583.00      5.72510E-04
  585.00      5.71610E-04
  587.00      5.67280E-04
  589.00      5.70470E-04
  591.00      5.70680E-04
  593.00      5.71300E-04
  595.00      5.72570E-04
  597.00      5.74070E-04
  599.00      5.76260E-04
  601.00      5.76350E-04
  603.00      5.76460E-04
  605.00      5.75830E-04
  607.00      5.72490E-04
  609.00      5.69760E-04
  611.00      5.66200E-04
  613.00      5.63130E-04
  615.00      5.60440E-04
  617.00      5.55520E-04
  619.00      5.54100E-04
  621.00      5.51210E-04
  623.00      5.45380E-04
  625.00      5.43710E-04
  627.00      5.41490E-04
  629.00      5.38120E-04
  631.00      5.31530E-04
  633.00      5.31460E-04
  635.00      5.28740E-04
  637.00      5.25900E-04
  639.00      5.21990E-04
  641.00      5.15140E-04
  643.00      5.16540E-04
  645.00      5.13470E-04
  647.00      5.10430E-04
  649.00      5.07710E-04
  651.00      5.03220E-04
  653.00      4.95270E-04
  655.00      4.89830E-04
  657.00      4.55860E-04
  659.00      4.91530E-04
  661.00      4.90820E-04
  663.00      4.88140E-04
  665.00      4.85370E-04
  667.00      4.79050E-04
  669.00      4.71440E-04
  671.00      4.75840E-04
  673.00      4.74210E-04
  675.00      4.71600E-04
  677.00      4.69230E-04
  679.00      4.66870E-04
  681.00      4.64300E-04
  683.00      4.61770E-04
  685.00      4.59130E-04
  687.00      4.56390E-04
  689.00      4.45790E-04
  691.00      4.50990E-04
  693.00      4.49370E-04
  695.00      4.46940E-04
  697.00      4.44550E-04
  699.00      4.42050E-04
  701.00      4.39240E-04
  703.00      4.36610E-04
  705.00      4.34240E-04
  707.00      4.30920E-04
  709.00      4.30510E-04
  711.00      4.27930E-04
  713.00      4.25660E-04
  715.00      4.23770E-04
  717.00      4.15660E-04
  719.00      4.15460E-04
  721.00      4.17140E-04
  723.00      4.14980E-04
  725.00      4.12830E-04
  727.00      4.10720E-04
  729.00      4.08190E-04
  731.00      4.05810E-04
  733.00      4.04420E-04
  735.00      4.02350E-04
  737.00      3.99900E-04
  739.00      3.97990E-04
  741.00      3.95810E-04
  743.00      3.94230E-04
  745.00      3.91490E-04
  747.00      3.90180E-04
  749.00      3.87460E-04
  751.00      3.85940E-04
  753.00      3.84390E-04
  755.00      3.82340E-04
  757.00      3.80310E-04
  759.00      3.70050E-04
  761.00      3.75470E-04
  763.00      3.74730E-04
  765.00      3.72890E-04
  767.00      3.71020E-04
  769.00      3.68250E-04
  771.00      3.66890E-04
  773.00      3.64400E-04
  775.00      3.63700E-04
  777.00      3.62300E-04
  779.00      3.60420E-04
  781.00      3.58770E-04
  783.00      3.56980E-04
  785.00      3.54160E-04
  787.00      3.53070E-04
  789.00      3.51690E-04
  791.00      3.50250E-04
  793.00      3.48650E-04
  795.00      3.46930E-04
  797.00      3.44540E-04
  799.00      3.43650E-04
  801.00      3.42050E-04
  803.00      3.40230E-04
  805.00      3.38880E-04
  807.00      3.37290E-04
  809.00      3.35720E-04
  811.00      3.34130E-04
  813.00      3.32600E-04
  815.00      3.31050E-04
  817.00      3.28910E-04
  819.00      3.26170E-04
  821.00      3.09730E-04
  823.00      3.05760E-04
  825.00      3.06340E-04
  827.00      3.05660E-04
  829.00      3.04430E-04
  831.00      3.03160E-04
  833.00      3.01210E-04
  835.00      3.00320E-04
  837.00      2.99210E-04
  839.00      2.98110E-04
  841.00      2.96990E-04
  843.00      2.95890E-04
  845.00      2.94740E-04
  847.00      2.93800E-04
  849.00      2.92950E-04
  851.00      2.91750E-04
  853.00      2.91280E-04
  855.00      2.90250E-04
  857.00      2.89570E-04
  859.00      2.88640E-04
  861.00      2.88010E-04
  863.00      2.88010E-04
  865.00      2.86930E-04
  867.00      2.84530E-04
  869.00      2.86210E-04
  871.00      2.86080E-04
  873.00      2.84920E-04
  875.00      2.80680E-04
  877.00      2.83170E-04
  879.00      2.84350E-04
  881.00      2.84200E-04
  883.00      2.83370E-04
  885.00      2.78800E-04
  887.00      2.73250E-04
  889.00      2.79600E-04
  891.00      2.80270E-04
  893.00      2.79410E-04
  895.00      2.78620E-04
  897.00      2.77440E-04
  899.00      2.74390E-04
  901.00      2.63400E-04
  903.00      2.66690E-04
  905.00      2.71920E-04
  907.00      2.71750E-04
  909.00      2.70980E-04
  911.00      2.69750E-04
  913.00      2.69100E-04
  915.00      2.68350E-04
  917.00      2.66430E-04
  919.00      2.64770E-04
  921.00      2.60110E-04
  923.00      2.46290E-04
  925.00      2.57030E-04
  927.00      2.60200E-04
  929.00      2.59990E-04
  931.00      2.59310E-04
  933.00      2.57650E-04
  935.00      2.49620E-04
  937.00      2.54820E-04
  939.00      2.54890E-04
  941.00      2.53990E-04
  943.00      2.53140E-04
  945.00      2.52130E-04
  947.00      2.51040E-04
  949.00      2.49640E-04
  951.00      2.47510E-04
  953.00      2.42100E-04
  955.00      2.28270E-04
  957.00      2.41700E-04
  959.00      2.44090E-04
  961.00      2.43910E-04
  963.00      2.42880E-04
  965.00      2.42320E-04
  967.00      2.41400E-04
  969.00      2.40440E-04
  971.00      2.37890E-04
  973.00      2.38230E-04
  975.00      2.37030E-04
  977.00      2.34910E-04
  979.00      2.35640E-04
  981.00      2.34780E-04
  983.00      2.33640E-04
  985.00      2.32980E-04
  987.00      2.32090E-04
  989.00      2.31160E-04
  991.00      2.30170E-04
  993.00      2.29400E-04
  995.00      2.28510E-04
  997.00      2.27630E-04
  999.00      2.26490E-04
  1002.5      2.19960E-04
  1007.5      2.15610E-04
  1012.5      2.15970E-04
  1017.5      2.18840E-04
  1022.5      2.16790E-04
  1027.5      2.14570E-04
  1032.5      2.12460E-04
  1037.5      2.10770E-04
  1042.5      2.07440E-04
  1047.5      2.06960E-04
  1052.5      2.05050E-04
  1057.5      2.03200E-04
  1062.5      2.01360E-04
  1067.5      1.99530E-04
  1072.5      1.97760E-04
  1077.5      1.95990E-04
  1082.5      1.93650E-04
  1087.5      1.92150E-04
  1092.5      1.81870E-04
  1097.5      1.86630E-04
  1102.5      1.87360E-04
  1107.5      1.85860E-04
  1112.5      1.84250E-04
  1117.5      1.82790E-04
  1122.5      1.81170E-04
  1127.5      1.79580E-04
  1132.5      1.78030E-04
  1137.5      1.76580E-04
  1142.5      1.75110E-04
  1147.5      1.73640E-04
  1152.5      1.72190E-04
  1157.5      1.70680E-04
  1162.5      1.66730E-04
  1167.5      1.66010E-04
  1172.5      1.66510E-04
  1177.5      1.65170E-04
  1182.5      1.63690E-04
  1187.5      1.62440E-04
  1192.5      1.61120E-04
  1197.5      1.59510E-04
  1202.5      1.58570E-04
  1207.5      1.57250E-04
  1212.5      1.55930E-04
  1217.5      1.54790E-04
  1222.5      1.53560E-04
  1227.5      1.52350E-04
  1232.5      1.51130E-04
  1237.5      1.49970E-04
  1242.5      1.48800E-04
  1247.5      1.47640E-04
  1252.5      1.46460E-04
  1257.5      1.45350E-04
  1262.5      1.44240E-04
  1267.5      1.43140E-04
  1272.5      1.42010E-04
  1277.5      1.39860E-04
  1282.5      1.32520E-04
  1287.5      1.38330E-04
  1292.5      1.37790E-04
  1297.5      1.36690E-04
  1302.5      1.35730E-04
  1307.5      1.34730E-04
  1312.5      1.33730E-04
  1317.5      1.32730E-04
  1322.5      1.31770E-04
  1327.5      1.30800E-04
  1332.5      1.29840E-04
  1337.5      1.28890E-04
  1342.5      1.27950E-04
  1347.5      1.27030E-04
  1352.5      1.26120E-04
  1357.5      1.25220E-04
  1362.5      1.24320E-04
  1367.5      1.23430E-04
  1372.5      1.22540E-04
  1377.5      1.21680E-04
  1382.5      1.20830E-04
  1387.5      1.19980E-04
  1392.5      1.19140E-04
  1397.5      1.18310E-04
