 Castelli and Kurucz 2004-2012 Atmosphere
 T     39000.     G    4.00000 [0.2a] VTURB=2  L/H=1.25 NOVER NEW ODF          
 Wavelength  Eddington Hnu
   (nm)    (ergs/s/cm2/Hz/sr)
  9.0900      1.50470E-26
  9.3500      6.11180E-26
  9.6100      2.25970E-25
  9.7700      5.02520E-25
  9.9600      1.23140E-24
  10.200      3.64840E-24
  10.380      7.98950E-24
  10.560      1.70530E-23
  10.770      4.00600E-23
  11.040      1.14780E-22
  11.400      4.34220E-22
  11.780      1.62650E-21
  12.130      5.16790E-21
  12.480      1.54140E-20
  12.710      3.07070E-20
  12.840      4.48640E-20
  13.050      8.14400E-20
  13.240      1.37450E-19
  13.390      2.07230E-19
  13.660      4.18990E-19
  13.980      9.57550E-19
  14.330      2.23410E-18
  14.720      5.36200E-18
  15.100      1.30200E-17
  15.520      3.17910E-17
  15.880      6.62170E-17
  16.200      1.28880E-16
  16.600      2.78330E-16
  17.030      5.95230E-16
  17.340      1.01370E-15
  17.680      1.84530E-15
  18.020      3.20260E-15
  18.170      4.04770E-15
  18.610      8.11460E-15
  19.100      1.66500E-14
  19.390      2.53270E-14
  19.840      4.69740E-14
  20.180      7.21810E-14
  20.500      1.09690E-13
  21.050      2.14010E-13
  21.620      4.07160E-13
  21.980      6.15490E-13
  22.300      8.59770E-13
  22.680      1.33290E-12
  23.000      1.05160E-09
  23.400      2.73230E-09
  24.000      3.68550E-09
  24.650      6.21820E-09
  25.240      1.56320E-08
  25.680      2.36440E-08
  26.000      3.02170E-08
  26.400      8.85920E-08
  26.850      1.44660E-07
  27.350      1.96070E-07
  27.850      1.42930E-07
  28.400      4.22620E-07
  29.000      7.60790E-07
  29.600      6.33560E-07
  30.100      1.01300E-06
  30.800      4.83940E-06
  31.800      1.62520E-06
  32.800      3.16830E-06
  33.800      3.69280E-06
  34.800      4.90620E-06
  35.700      1.21470E-05
  36.600      3.35850E-05
  37.500      5.15360E-05
  38.500      6.16440E-05
  39.500      1.29500E-04
  40.500      2.85440E-04
  41.400      2.75080E-04
  42.200      2.62060E-04
  43.000      2.57060E-04
  44.100      3.34860E-04
  45.100      3.63310E-04
  46.000      2.76910E-04
  47.000      3.44320E-04
  48.000      4.59220E-04
  49.000      2.59360E-04
  50.000      5.81130E-04
  50.600      3.66260E-04
  51.200      7.04360E-04
  52.000      6.69550E-04
  53.000      6.27750E-04
  54.000      5.36510E-04
  55.000      3.73470E-04
  56.000      5.75440E-04
  57.000      9.64360E-04
  58.000      9.75750E-04
  59.000      1.00670E-03
  60.000      6.44960E-04
  61.000      5.92770E-04
  62.000      9.84590E-04
  63.000      9.21240E-04
  64.000      1.19450E-03
  65.000      1.07920E-03
  65.800      7.77340E-04
  66.500      1.15780E-03
  67.500      1.33260E-03
  68.500      1.06410E-03
  69.500      1.34350E-03
  70.500      9.29360E-04
  71.600      1.44460E-03
  72.600      1.50780E-03
  73.500      1.53950E-03
  74.500      1.39390E-03
  75.500      1.38910E-03
  76.500      1.24370E-03
  77.500      1.47420E-03
  78.500      1.09690E-03
  79.500      1.44690E-03
  80.500      1.51140E-03
  81.500      1.54910E-03
  82.500      1.61490E-03
  83.500      1.24270E-03
  84.500      1.58690E-03
  85.500      1.46010E-03
  86.500      1.65080E-03
  87.500      1.69550E-03
  88.500      1.67880E-03
  89.500      1.68410E-03
  90.500      1.65090E-03
  91.500      1.38720E-03
  92.500      2.27500E-03
  93.500      2.96340E-03
  94.500      3.16880E-03
  95.500      3.65490E-03
  96.500      3.83230E-03
  97.500      2.96610E-03
  98.500      3.49500E-03
  99.500      3.19210E-03
  100.50      3.19370E-03
  101.50      3.40430E-03
  102.50      3.29910E-03
  103.50      3.61000E-03
  104.50      3.81720E-03
  105.50      3.77320E-03
  106.50      3.60270E-03
  107.50      3.70400E-03
  108.50      3.53840E-03
  109.50      3.68210E-03
  110.50      3.63970E-03
  111.50      3.61250E-03
  112.50      3.40880E-03
  113.50      3.65610E-03
  114.50      3.70100E-03
  115.50      3.46900E-03
  116.50      3.42060E-03
  117.50      2.93380E-03
  118.50      3.32880E-03
  119.50      3.16960E-03
  120.50      3.19710E-03
  121.50      2.89600E-03
  122.50      3.13640E-03
  123.50      3.17930E-03
  124.50      3.12260E-03
  125.50      3.21130E-03
  126.50      3.27750E-03
  127.50      3.36740E-03
  128.50      3.37020E-03
  129.50      3.37540E-03
  130.50      3.30320E-03
  131.50      3.35890E-03
  132.50      3.33850E-03
  133.50      3.30840E-03
  134.50      3.31430E-03
  135.50      3.22110E-03
  136.50      3.13680E-03
  137.50      3.03360E-03
  138.50      3.09570E-03
  139.50      2.90430E-03
  140.50      2.80090E-03
  141.50      3.17560E-03
  142.50      2.94980E-03
  143.50      3.11270E-03
  144.20      3.00520E-03
  144.70      3.02910E-03
  145.50      2.95150E-03
  146.50      2.97100E-03
  147.50      2.99990E-03
  148.50      3.04560E-03
  149.50      2.99160E-03
  150.50      3.01380E-03
  151.20      3.01960E-03
  151.70      2.98060E-03
  152.50      2.97680E-03
  153.50      2.75810E-03
  154.50      2.24060E-03
  155.50      2.35010E-03
  156.50      2.67480E-03
  157.50      2.79640E-03
  158.50      2.76170E-03
  159.50      2.81160E-03
  160.50      2.69260E-03
  161.50      2.64490E-03
  162.50      2.69370E-03
  163.50      2.72910E-03
  164.50      2.67340E-03
  165.50      2.75850E-03
  166.50      2.70920E-03
  167.20      2.59010E-03
  167.70      2.85620E-03
  168.50      2.81270E-03
  169.50      2.80120E-03
  170.50      2.75190E-03
  171.50      2.64530E-03
  172.50      2.64320E-03
  173.50      2.75120E-03
  174.50      2.74730E-03
  175.50      2.71680E-03
  176.50      2.69320E-03
  177.50      2.66820E-03
  178.50      2.70360E-03
  179.50      2.64690E-03
  180.50      2.64810E-03
  181.50      2.62380E-03
  182.50      2.60400E-03
  183.50      2.61470E-03
  184.50      2.61760E-03
  185.50      2.61040E-03
  186.50      2.61170E-03
  187.50      2.55840E-03
  188.50      2.54260E-03
  189.50      2.58200E-03
  190.50      2.57650E-03
  191.50      2.56250E-03
  192.50      2.46610E-03
  193.50      2.54750E-03
  194.50      2.54100E-03
  195.50      2.46430E-03
  196.70      2.49360E-03
  197.60      2.47410E-03
  198.40      2.48690E-03
  199.50      2.46580E-03
  200.50      2.47200E-03
  201.50      2.45780E-03
  202.50      2.44650E-03
  203.50      2.42030E-03
  204.50      2.39190E-03
  205.50      1.83390E-03
  206.50      1.79780E-03
  207.40      1.89260E-03
  207.80      1.96480E-03
  208.50      2.17500E-03
  209.50      2.31220E-03
  210.50      2.29070E-03
  211.50      2.31930E-03
  212.50      2.28400E-03
  213.50      2.29950E-03
  214.50      2.28130E-03
  215.50      2.28390E-03
  216.50      2.18400E-03
  217.50      2.26590E-03
  218.50      2.21100E-03
  219.50      2.25860E-03
  220.50      2.23920E-03
  221.50      2.17070E-03
  222.50      2.21460E-03
  223.50      2.20450E-03
  224.50      2.19140E-03
  225.50      2.13880E-03
  226.50      2.16140E-03
  227.50      2.16550E-03
  228.50      2.12160E-03
  229.50      2.07170E-03
  230.50      2.07420E-03
  231.50      2.07730E-03
  232.50      2.09290E-03
  233.50      2.08590E-03
  234.50      2.05990E-03
  235.50      2.03940E-03
  236.50      2.02170E-03
  237.50      1.99420E-03
  238.50      1.92140E-03
  239.50      1.96090E-03
  240.50      1.96140E-03
  241.50      1.94780E-03
  242.50      1.96080E-03
  243.50      1.94060E-03
  244.50      1.93300E-03
  245.50      1.90960E-03
  246.50      1.90830E-03
  247.50      1.91390E-03
  248.50      1.87120E-03
  249.50      1.48730E-03
  250.50      1.83720E-03
  251.30      1.76980E-03
  251.80      1.81260E-03
  252.50      1.83970E-03
  253.50      1.84710E-03
  254.50      1.84070E-03
  255.50      1.82990E-03
  256.50      1.81990E-03
  257.50      1.80960E-03
  258.50      1.80220E-03
  259.50      1.75560E-03
  260.50      1.78220E-03
  261.50      1.74870E-03
  262.50      1.76430E-03
  263.50      1.76080E-03
  264.50      1.73620E-03
  265.50      1.74050E-03
  266.50      1.72720E-03
  267.50      1.69280E-03
  268.50      1.70150E-03
  269.50      1.69430E-03
  270.50      1.70060E-03
  271.50      1.68620E-03
  272.50      1.67720E-03
  273.50      1.63440E-03
  274.50      1.66560E-03
  275.50      1.64790E-03
  276.50      1.64460E-03
  277.50      1.63200E-03
  278.50      1.60470E-03
  279.50      1.59250E-03
  280.50      1.60200E-03
  281.50      1.59530E-03
  282.50      1.58270E-03
  283.50      1.58060E-03
  284.50      1.57780E-03
  285.50      1.56780E-03
  286.50      1.55050E-03
  287.50      1.53970E-03
  288.50      1.54090E-03
  289.50      1.53180E-03
  291.00      1.51890E-03
  293.00      1.50960E-03
  295.00      1.49560E-03
  297.00      1.47490E-03
  299.00      1.44970E-03
  301.00      1.43540E-03
  303.00      1.40880E-03
  305.00      1.40730E-03
  307.00      1.38560E-03
  309.00      1.38470E-03
  311.00      1.37410E-03
  313.00      1.35820E-03
  315.00      1.35240E-03
  317.00      1.33770E-03
  319.00      1.32820E-03
  321.00      1.29190E-03
  323.00      1.30190E-03
  325.00      1.29220E-03
  327.00      1.26420E-03
  329.00      1.26220E-03
  331.00      1.24910E-03
  333.00      1.23470E-03
  335.00      1.21290E-03
  337.00      1.21040E-03
  339.00      1.19970E-03
  341.00      1.18740E-03
  343.00      1.18590E-03
  345.00      1.16350E-03
  347.00      1.16300E-03
  349.00      1.15420E-03
  351.00      1.14690E-03
  353.00      1.13190E-03
  355.00      1.12300E-03
  357.00      1.11340E-03
  359.00      1.10510E-03
  361.00      1.09320E-03
  363.00      1.08240E-03
  364.00      1.05970E-03
  365.00      9.63510E-04
  367.00      9.57160E-04
  369.00      9.53910E-04
  371.00      9.50560E-04
  373.00      9.66830E-04
  375.00      9.89700E-04
  377.00      9.98080E-04
  379.00      1.01320E-03
  381.00      1.02510E-03
  383.00      9.87770E-04
  385.00      1.02300E-03
  387.00      1.00930E-03
  389.00      9.59310E-04
  391.00      1.00740E-03
  393.00      9.87490E-04
  395.00      9.80660E-04
  397.00      9.18810E-04
  399.00      9.74690E-04
  401.00      9.64430E-04
  403.00      9.45370E-04
  405.00      9.51330E-04
  407.00      9.36850E-04
  409.00      9.13850E-04
  411.00      8.76090E-04
  413.00      9.16360E-04
  415.00      9.11200E-04
  417.00      9.06890E-04
  419.00      8.97720E-04
  421.00      8.81670E-04
  423.00      8.86890E-04
  425.00      8.77920E-04
  427.00      8.71860E-04
  429.00      8.64750E-04
  431.00      8.54950E-04
  433.00      8.33350E-04
  435.00      8.03450E-04
  437.00      8.35800E-04
  439.00      8.25230E-04
  441.00      8.17140E-04
  443.00      8.16610E-04
  445.00      8.09490E-04
  447.00      8.01150E-04
  449.00      7.99200E-04
  451.00      7.89170E-04
  453.00      7.84460E-04
  455.00      7.69340E-04
  457.00      7.74940E-04
  459.00      7.67980E-04
  461.00      7.63490E-04
  463.00      7.53230E-04
  465.00      7.32690E-04
  467.00      7.45150E-04
  469.00      7.21040E-04
  471.00      7.36700E-04
  473.00      7.35340E-04
  475.00      7.30180E-04
  477.00      7.24620E-04
  479.00      7.18540E-04
  481.00      7.13850E-04
  483.00      7.08820E-04
  485.00      6.96630E-04
  487.00      6.59890E-04
  489.00      6.93210E-04
  491.00      6.88190E-04
  493.00      6.82280E-04
  495.00      6.78950E-04
  497.00      6.75240E-04
  499.00      6.71000E-04
  501.00      6.63230E-04
  503.00      6.59950E-04
  505.00      6.55800E-04
  507.00      6.52410E-04
  509.00      6.48230E-04
  511.00      6.43750E-04
  513.00      6.39020E-04
  515.00      6.34830E-04
  517.00      6.30860E-04
  519.00      6.26590E-04
  521.00      6.22230E-04
  523.00      6.18510E-04
  525.00      6.13150E-04
  527.00      6.08290E-04
  529.00      6.06310E-04
  531.00      6.02190E-04
  533.00      5.98130E-04
  535.00      5.94560E-04
  537.00      5.90510E-04
  539.00      5.86620E-04
  541.00      5.74090E-04
  543.00      5.79340E-04
  545.00      5.75580E-04
  547.00      5.71540E-04
  549.00      5.68160E-04
  551.00      5.63370E-04
  553.00      5.60960E-04
  555.00      5.57510E-04
  557.00      5.53220E-04
  559.00      5.47500E-04
  561.00      5.47020E-04
  563.00      5.43560E-04
  565.00      5.40170E-04
  567.00      5.36770E-04
  569.00      5.24770E-04
  571.00      4.94260E-04
  573.00      4.91430E-04
  575.00      4.88440E-04
  577.00      4.86220E-04
  579.00      4.84270E-04
  581.00      4.79950E-04
  583.00      4.82100E-04
  585.00      4.82420E-04
  587.00      4.78500E-04
  589.00      4.82750E-04
  591.00      4.83480E-04
  593.00      4.84690E-04
  595.00      4.86520E-04
  597.00      4.87010E-04
  599.00      4.86390E-04
  601.00      4.83980E-04
  603.00      4.81210E-04
  605.00      4.78550E-04
  607.00      4.75250E-04
  609.00      4.73550E-04
  611.00      4.69900E-04
  613.00      4.67260E-04
  615.00      4.65380E-04
  617.00      4.60660E-04
  619.00      4.60380E-04
  621.00      4.57790E-04
  623.00      4.52590E-04
  625.00      4.52160E-04
  627.00      4.49850E-04
  629.00      4.47390E-04
  631.00      4.41520E-04
  633.00      4.42280E-04
  635.00      4.39660E-04
  637.00      4.37340E-04
  639.00      4.34720E-04
  641.00      4.28740E-04
  643.00      4.30060E-04
  645.00      4.27320E-04
  647.00      4.24880E-04
  649.00      4.22700E-04
  651.00      4.19740E-04
  653.00      4.13780E-04
  655.00      4.12730E-04
  657.00      3.87170E-04
  659.00      4.11070E-04
  661.00      4.09160E-04
  663.00      4.06970E-04
  665.00      4.04710E-04
  667.00      4.00130E-04
  669.00      3.94520E-04
  671.00      3.97210E-04
  673.00      3.95530E-04
  675.00      3.93480E-04
  677.00      3.91660E-04
  679.00      3.89790E-04
  681.00      3.87700E-04
  683.00      3.85660E-04
  685.00      3.83520E-04
  687.00      3.81460E-04
  689.00      3.74800E-04
  691.00      3.77310E-04
  693.00      3.75630E-04
  695.00      3.73640E-04
  697.00      3.71720E-04
  699.00      3.69760E-04
  701.00      3.67410E-04
  703.00      3.65190E-04
  705.00      3.63390E-04
  707.00      3.60160E-04
  709.00      3.60320E-04
  711.00      3.58250E-04
  713.00      3.56420E-04
  715.00      3.54860E-04
  717.00      3.49900E-04
  719.00      3.49710E-04
  721.00      3.49490E-04
  723.00      3.47690E-04
  725.00      3.45940E-04
  727.00      3.44240E-04
  729.00      3.41990E-04
  731.00      3.40220E-04
  733.00      3.39100E-04
  735.00      3.37420E-04
  737.00      3.35390E-04
  739.00      3.33940E-04
  741.00      3.32060E-04
  743.00      3.30800E-04
  745.00      3.28540E-04
  747.00      3.27410E-04
  749.00      3.25150E-04
  751.00      3.24000E-04
  753.00      3.22720E-04
  755.00      3.21060E-04
  757.00      3.19490E-04
  759.00      3.13660E-04
  761.00      3.15960E-04
  763.00      3.14830E-04
  765.00      3.13330E-04
  767.00      3.11900E-04
  769.00      3.09680E-04
  771.00      3.08570E-04
  773.00      3.06600E-04
  775.00      3.05750E-04
  777.00      3.04680E-04
  779.00      3.03070E-04
  781.00      3.01780E-04
  783.00      3.00300E-04
  785.00      2.97890E-04
  787.00      2.97040E-04
  789.00      2.95960E-04
  791.00      2.94780E-04
  793.00      2.93490E-04
  795.00      2.92100E-04
  797.00      2.90100E-04
  799.00      2.89370E-04
  801.00      2.88070E-04
  803.00      2.86550E-04
  805.00      2.85460E-04
  807.00      2.84150E-04
  809.00      2.82860E-04
  811.00      2.81520E-04
  813.00      2.80300E-04
  815.00      2.79000E-04
  817.00      2.77270E-04
  819.00      2.75170E-04
  821.00      2.63060E-04
  823.00      2.60300E-04
  825.00      2.60590E-04
  827.00      2.59620E-04
  829.00      2.58630E-04
  831.00      2.57610E-04
  833.00      2.55900E-04
  835.00      2.55160E-04
  837.00      2.54420E-04
  839.00      2.53690E-04
  841.00      2.52900E-04
  843.00      2.52180E-04
  845.00      2.51380E-04
  847.00      2.50660E-04
  849.00      2.50160E-04
  851.00      2.48710E-04
  853.00      2.49020E-04
  855.00      2.47490E-04
  857.00      2.47920E-04
  859.00      2.46380E-04
  861.00      2.45730E-04
  863.00      2.47020E-04
  865.00      2.45910E-04
  867.00      2.41210E-04
  869.00      2.45860E-04
  871.00      2.45910E-04
  873.00      2.44870E-04
  875.00      2.36720E-04
  877.00      2.42870E-04
  879.00      2.43850E-04
  881.00      2.43070E-04
  883.00      2.42110E-04
  885.00      2.38040E-04
  887.00      2.29730E-04
  889.00      2.38690E-04
  891.00      2.38540E-04
  893.00      2.36860E-04
  895.00      2.36390E-04
  897.00      2.35750E-04
  899.00      2.33800E-04
  901.00      2.22710E-04
  903.00      2.27770E-04
  905.00      2.31540E-04
  907.00      2.30620E-04
  909.00      2.29850E-04
  911.00      2.28300E-04
  913.00      2.28100E-04
  915.00      2.27310E-04
  917.00      2.26090E-04
  919.00      2.25250E-04
  921.00      2.22490E-04
  923.00      2.09690E-04
  925.00      2.20370E-04
  927.00      2.21500E-04
  929.00      2.20750E-04
  931.00      2.19850E-04
  933.00      2.18950E-04
  935.00      2.14080E-04
  937.00      2.15860E-04
  939.00      2.16340E-04
  941.00      2.15300E-04
  943.00      2.14610E-04
  945.00      2.13820E-04
  947.00      2.12900E-04
  949.00      2.12120E-04
  951.00      2.10790E-04
  953.00      2.08030E-04
  955.00      1.96090E-04
  957.00      2.07420E-04
  959.00      2.07990E-04
  961.00      2.07190E-04
  963.00      2.06110E-04
  965.00      2.05660E-04
  967.00      2.04900E-04
  969.00      2.04100E-04
  971.00      2.01170E-04
  973.00      2.02140E-04
  975.00      2.01560E-04
  977.00      1.99310E-04
  979.00      2.00170E-04
  981.00      1.99390E-04
  983.00      1.98430E-04
  985.00      1.97880E-04
  987.00      1.97150E-04
  989.00      1.96350E-04
  991.00      1.95520E-04
  993.00      1.94900E-04
  995.00      1.94170E-04
  997.00      1.93440E-04
  999.00      1.92710E-04
  1002.5      1.88740E-04
  1007.5      1.85230E-04
  1012.5      1.84550E-04
  1017.5      1.86140E-04
  1022.5      1.84370E-04
  1027.5      1.82510E-04
  1032.5      1.80720E-04
  1037.5      1.79370E-04
  1042.5      1.76890E-04
  1047.5      1.76190E-04
  1052.5      1.74580E-04
  1057.5      1.73030E-04
  1062.5      1.71490E-04
  1067.5      1.69950E-04
  1072.5      1.68480E-04
  1077.5      1.66990E-04
  1082.5      1.64830E-04
  1087.5      1.64040E-04
  1092.5      1.57060E-04
  1097.5      1.60370E-04
  1102.5      1.59780E-04
  1107.5      1.58510E-04
  1112.5      1.57150E-04
  1117.5      1.55920E-04
  1122.5      1.54550E-04
  1127.5      1.53220E-04
  1132.5      1.51910E-04
  1137.5      1.50690E-04
  1142.5      1.49470E-04
  1147.5      1.48230E-04
  1152.5      1.47020E-04
  1157.5      1.45740E-04
  1162.5      1.43200E-04
  1167.5      1.42450E-04
  1172.5      1.42260E-04
  1177.5      1.41120E-04
  1182.5      1.39870E-04
  1187.5      1.38820E-04
  1192.5      1.37700E-04
  1197.5      1.36200E-04
  1202.5      1.35570E-04
  1207.5      1.34450E-04
  1212.5      1.33340E-04
  1217.5      1.32380E-04
  1222.5      1.31340E-04
  1227.5      1.30330E-04
  1232.5      1.29300E-04
  1237.5      1.28320E-04
  1242.5      1.27330E-04
  1247.5      1.26360E-04
  1252.5      1.25340E-04
  1257.5      1.24410E-04
  1262.5      1.23490E-04
  1267.5      1.22560E-04
  1272.5      1.21630E-04
  1277.5      1.20140E-04
  1282.5      1.15330E-04
  1287.5      1.18840E-04
  1292.5      1.18050E-04
  1297.5      1.17070E-04
  1302.5      1.16290E-04
  1307.5      1.15460E-04
  1312.5      1.14620E-04
  1317.5      1.13770E-04
  1322.5      1.12950E-04
  1327.5      1.12140E-04
  1332.5      1.11330E-04
  1337.5      1.10520E-04
  1342.5      1.09720E-04
  1347.5      1.08940E-04
  1352.5      1.08170E-04
  1357.5      1.07410E-04
  1362.5      1.06650E-04
  1367.5      1.05900E-04
  1372.5      1.05120E-04
  1377.5      1.04420E-04
  1382.5      1.03700E-04
  1387.5      1.02970E-04
  1392.5      1.02250E-04
  1397.5      1.01560E-04
