 Castelli and Kurucz 2004-2012 Atmosphere
 T     47000.     G    4.50000 [0.2a] VTURB=2  L/H=1.25 NOVER NEW ODF          
 Wavelength  Eddington Hnu
   (nm)    (ergs/s/cm2/Hz/sr)
  9.0900      1.12250E-20
  9.3500      3.43560E-20
  9.6100      9.64360E-20
  9.7700      1.83990E-19
  9.9600      3.76300E-19
  10.200      8.96390E-19
  10.380      1.67700E-18
  10.560      3.07450E-18
  10.770      6.08600E-18
  11.040      1.41160E-17
  11.400      4.08480E-17
  11.780      1.16080E-16
  12.130      2.92680E-16
  12.480      6.91940E-16
  12.710      1.19600E-15
  12.840      1.75520E-15
  13.050      2.81450E-15
  13.240      4.23090E-15
  13.390      5.85260E-15
  13.660      1.01790E-14
  13.980      1.93250E-14
  14.330      3.67340E-14
  14.720      6.89730E-14
  15.100      1.39610E-13
  15.520      2.75460E-13
  15.880      4.97770E-13
  16.200      1.37930E-12
  16.600      2.48950E-12
  17.030      4.22330E-12
  17.340      6.18090E-12
  17.680      1.01890E-11
  18.020      1.56420E-11
  18.170      1.87450E-11
  18.610      3.36920E-11
  19.100      5.61820E-11
  19.390      8.28160E-11
  19.840      1.37610E-10
  20.180      1.72770E-10
  20.500      2.50310E-10
  21.050      3.99470E-10
  21.620      6.26910E-10
  21.980      8.56180E-10
  22.300      1.04400E-09
  22.680      1.42850E-09
  23.000      9.09170E-08
  23.400      3.08270E-07
  24.000      3.81910E-07
  24.650      9.92900E-07
  25.240      7.81580E-06
  25.680      2.65370E-05
  26.000      1.73350E-05
  26.400      7.02280E-05
  26.850      8.45260E-05
  27.350      1.07960E-04
  27.850      6.09090E-05
  28.400      1.39690E-04
  29.000      2.50300E-04
  29.600      2.13360E-04
  30.100      1.49200E-04
  30.800      1.80010E-04
  31.800      2.71950E-05
  32.800      4.12550E-05
  33.800      3.07870E-05
  34.800      3.64690E-05
  35.700      9.55930E-05
  36.600      2.66780E-04
  37.500      4.18990E-04
  38.500      3.91760E-04
  39.500      7.48430E-04
  40.500      1.47030E-03
  41.400      1.39780E-03
  42.200      1.25360E-03
  43.000      1.24850E-03
  44.100      1.62560E-03
  45.100      1.70280E-03
  46.000      1.30940E-03
  47.000      1.61230E-03
  48.000      2.02210E-03
  49.000      1.50340E-03
  50.000      2.80990E-03
  50.600      2.16900E-03
  51.200      2.80380E-03
  52.000      2.70450E-03
  53.000      2.60350E-03
  54.000      2.00500E-03
  55.000      1.41240E-03
  56.000      2.01960E-03
  57.000      3.05470E-03
  58.000      3.23410E-03
  59.000      3.28430E-03
  60.000      2.59890E-03
  61.000      1.87720E-03
  62.000      2.83390E-03
  63.000      2.37730E-03
  64.000      3.36120E-03
  65.000      3.09040E-03
  65.800      2.58580E-03
  66.500      3.40350E-03
  67.500      3.50910E-03
  68.500      3.09800E-03
  69.500      3.56250E-03
  70.500      2.95290E-03
  71.600      3.50050E-03
  72.600      3.72520E-03
  73.500      3.70110E-03
  74.500      3.50650E-03
  75.500      3.37140E-03
  76.500      2.96710E-03
  77.500      3.48850E-03
  78.500      2.69970E-03
  79.500      3.35670E-03
  80.500      3.61670E-03
  81.500      3.60130E-03
  82.500      3.67550E-03
  83.500      3.23610E-03
  84.500      3.59080E-03
  85.500      3.26400E-03
  86.500      3.64050E-03
  87.500      3.72080E-03
  88.500      3.61400E-03
  89.500      3.59110E-03
  90.500      3.50570E-03
  91.500      2.68540E-03
  92.500      4.03290E-03
  93.500      4.78230E-03
  94.500      5.19550E-03
  95.500      6.25760E-03
  96.500      6.36030E-03
  97.500      5.35930E-03
  98.500      5.91180E-03
  99.500      5.31390E-03
  100.50      5.39680E-03
  101.50      5.56320E-03
  102.50      5.49190E-03
  103.50      5.96210E-03
  104.50      6.27500E-03
  105.50      6.22760E-03
  106.50      5.93940E-03
  107.50      6.27940E-03
  108.50      5.81640E-03
  109.50      6.14250E-03
  110.50      6.12180E-03
  111.50      6.12240E-03
  112.50      6.00460E-03
  113.50      6.19300E-03
  114.50      6.24990E-03
  115.50      6.02150E-03
  116.50      5.70740E-03
  117.50      5.42110E-03
  118.50      5.80500E-03
  119.50      5.41880E-03
  120.50      5.45930E-03
  121.50      4.84530E-03
  122.50      5.35930E-03
  123.50      5.11790E-03
  124.50      4.97290E-03
  125.50      5.28530E-03
  126.50      5.32180E-03
  127.50      5.35230E-03
  128.50      5.33800E-03
  129.50      5.39240E-03
  130.50      5.25510E-03
  131.50      5.22260E-03
  132.50      5.16040E-03
  133.50      5.11100E-03
  134.50      5.04450E-03
  135.50      4.91590E-03
  136.50      4.69220E-03
  137.50      4.46440E-03
  138.50      4.69290E-03
  139.50      4.57150E-03
  140.50      4.36150E-03
  141.50      4.90050E-03
  142.50      4.68560E-03
  143.50      4.85550E-03
  144.20      4.59740E-03
  144.70      4.63270E-03
  145.50      4.55880E-03
  146.50      4.55030E-03
  147.50      4.60850E-03
  148.50      4.66380E-03
  149.50      4.57030E-03
  150.50      4.51580E-03
  151.20      4.51830E-03
  151.70      4.41440E-03
  152.50      4.49850E-03
  153.50      4.27690E-03
  154.50      3.72470E-03
  155.50      3.81690E-03
  156.50      4.19020E-03
  157.50      4.29390E-03
  158.50      4.19310E-03
  159.50      4.28460E-03
  160.50      4.16620E-03
  161.50      4.12280E-03
  162.50      4.17190E-03
  163.50      4.19980E-03
  164.50      4.02490E-03
  165.50      4.18060E-03
  166.50      4.12790E-03
  167.20      4.01320E-03
  167.70      4.22060E-03
  168.50      4.20750E-03
  169.50      4.22770E-03
  170.50      4.10390E-03
  171.50      3.95810E-03
  172.50      3.94380E-03
  173.50      4.09930E-03
  174.50      4.07390E-03
  175.50      4.04840E-03
  176.50      3.98380E-03
  177.50      3.95120E-03
  178.50      3.97010E-03
  179.50      3.89740E-03
  180.50      3.88050E-03
  181.50      3.80800E-03
  182.50      3.81200E-03
  183.50      3.79480E-03
  184.50      3.80150E-03
  185.50      3.77260E-03
  186.50      3.78160E-03
  187.50      3.72000E-03
  188.50      3.68790E-03
  189.50      3.71290E-03
  190.50      3.69320E-03
  191.50      3.67360E-03
  192.50      3.54550E-03
  193.50      3.62640E-03
  194.50      3.61480E-03
  195.50      3.55820E-03
  196.70      3.54770E-03
  197.60      3.48790E-03
  198.40      3.52410E-03
  199.50      3.48360E-03
  200.50      3.47970E-03
  201.50      3.46170E-03
  202.50      3.44670E-03
  203.50      3.39600E-03
  204.50      3.35850E-03
  205.50      2.56340E-03
  206.50      2.49130E-03
  207.40      2.58210E-03
  207.80      2.66270E-03
  208.50      2.88200E-03
  209.50      3.17450E-03
  210.50      3.19810E-03
  211.50      3.21880E-03
  212.50      3.17750E-03
  213.50      3.18950E-03
  214.50      3.15900E-03
  215.50      3.15810E-03
  216.50      3.00870E-03
  217.50      3.13430E-03
  218.50      3.04070E-03
  219.50      3.11410E-03
  220.50      3.08550E-03
  221.50      2.96920E-03
  222.50      3.05780E-03
  223.50      3.03830E-03
  224.50      3.02220E-03
  225.50      2.92020E-03
  226.50      2.96880E-03
  227.50      2.97850E-03
  228.50      2.91580E-03
  229.50      2.88330E-03
  230.50      2.82450E-03
  231.50      2.84920E-03
  232.50      2.87040E-03
  233.50      2.85620E-03
  234.50      2.81950E-03
  235.50      2.78540E-03
  236.50      2.76220E-03
  237.50      2.73070E-03
  238.50      2.61390E-03
  239.50      2.68380E-03
  240.50      2.66290E-03
  241.50      2.64490E-03
  242.50      2.67010E-03
  243.50      2.63870E-03
  244.50      2.62710E-03
  245.50      2.58100E-03
  246.50      2.58620E-03
  247.50      2.60190E-03
  248.50      2.55730E-03
  249.50      2.33890E-03
  250.50      2.53650E-03
  251.30      2.37480E-03
  251.80      2.46270E-03
  252.50      2.48130E-03
  253.50      2.49790E-03
  254.50      2.49310E-03
  255.50      2.47810E-03
  256.50      2.46710E-03
  257.50      2.44420E-03
  258.50      2.43080E-03
  259.50      2.35890E-03
  260.50      2.40790E-03
  261.50      2.34930E-03
  262.50      2.38290E-03
  263.50      2.37160E-03
  264.50      2.33780E-03
  265.50      2.34060E-03
  266.50      2.32640E-03
  267.50      2.28130E-03
  268.50      2.28960E-03
  269.50      2.27250E-03
  270.50      2.28270E-03
  271.50      2.26680E-03
  272.50      2.24910E-03
  273.50      2.17780E-03
  274.50      2.22900E-03
  275.50      2.20260E-03
  276.50      2.20070E-03
  277.50      2.17870E-03
  278.50      2.13750E-03
  279.50      2.13490E-03
  280.50      2.13720E-03
  281.50      2.12550E-03
  282.50      2.10240E-03
  283.50      2.10700E-03
  284.50      2.09880E-03
  285.50      2.08370E-03
  286.50      2.04790E-03
  287.50      2.02740E-03
  288.50      2.04100E-03
  289.50      2.02290E-03
  291.00      2.01630E-03
  293.00      2.00350E-03
  295.00      1.98170E-03
  297.00      1.95450E-03
  299.00      1.92360E-03
  301.00      1.90410E-03
  303.00      1.86900E-03
  305.00      1.86160E-03
  307.00      1.81900E-03
  309.00      1.82620E-03
  311.00      1.80800E-03
  313.00      1.78710E-03
  315.00      1.77720E-03
  317.00      1.75690E-03
  319.00      1.74150E-03
  321.00      1.68970E-03
  323.00      1.71040E-03
  325.00      1.69360E-03
  327.00      1.65740E-03
  329.00      1.65330E-03
  331.00      1.63580E-03
  333.00      1.61660E-03
  335.00      1.58500E-03
  337.00      1.58100E-03
  339.00      1.55790E-03
  341.00      1.54170E-03
  343.00      1.54370E-03
  345.00      1.51430E-03
  347.00      1.51070E-03
  349.00      1.49680E-03
  351.00      1.48920E-03
  353.00      1.46830E-03
  355.00      1.45720E-03
  357.00      1.44100E-03
  359.00      1.43110E-03
  361.00      1.41750E-03
  363.00      1.40000E-03
  364.00      1.36930E-03
  365.00      1.23400E-03
  367.00      1.22470E-03
  369.00      1.21800E-03
  371.00      1.21500E-03
  373.00      1.23170E-03
  375.00      1.25550E-03
  377.00      1.27240E-03
  379.00      1.29580E-03
  381.00      1.30970E-03
  383.00      1.26160E-03
  385.00      1.30700E-03
  387.00      1.30120E-03
  389.00      1.21900E-03
  391.00      1.28820E-03
  393.00      1.26390E-03
  395.00      1.25980E-03
  397.00      1.16730E-03
  399.00      1.24480E-03
  401.00      1.23560E-03
  403.00      1.20630E-03
  405.00      1.21550E-03
  407.00      1.20310E-03
  409.00      1.16750E-03
  411.00      1.11300E-03
  413.00      1.17190E-03
  415.00      1.16570E-03
  417.00      1.15660E-03
  419.00      1.14370E-03
  421.00      1.11970E-03
  423.00      1.12980E-03
  425.00      1.11970E-03
  427.00      1.11110E-03
  429.00      1.10200E-03
  431.00      1.08980E-03
  433.00      1.05460E-03
  435.00      1.01660E-03
  437.00      1.06070E-03
  439.00      1.04900E-03
  441.00      1.03880E-03
  443.00      1.03700E-03
  445.00      1.02620E-03
  447.00      1.01850E-03
  449.00      1.01320E-03
  451.00      1.00350E-03
  453.00      9.94750E-04
  455.00      9.71320E-04
  457.00      9.80850E-04
  459.00      9.73690E-04
  461.00      9.67020E-04
  463.00      9.52710E-04
  465.00      9.34810E-04
  467.00      9.42190E-04
  469.00      9.06430E-04
  471.00      9.31820E-04
  473.00      9.26710E-04
  475.00      9.19890E-04
  477.00      9.12530E-04
  479.00      9.02060E-04
  481.00      8.98230E-04
  483.00      8.91510E-04
  485.00      8.71940E-04
  487.00      8.26340E-04
  489.00      8.71310E-04
  491.00      8.65430E-04
  493.00      8.59550E-04
  495.00      8.53880E-04
  497.00      8.47650E-04
  499.00      8.42130E-04
  501.00      8.34230E-04
  503.00      8.29060E-04
  505.00      8.22690E-04
  507.00      8.17820E-04
  509.00      8.12540E-04
  511.00      8.05970E-04
  513.00      7.99630E-04
  515.00      7.94790E-04
  517.00      7.90300E-04
  519.00      7.84610E-04
  521.00      7.78360E-04
  523.00      7.73820E-04
  525.00      7.67300E-04
  527.00      7.61350E-04
  529.00      7.57990E-04
  531.00      7.52620E-04
  533.00      7.47470E-04
  535.00      7.42810E-04
  537.00      7.37360E-04
  539.00      7.32590E-04
  541.00      7.13910E-04
  543.00      7.23020E-04
  545.00      7.18210E-04
  547.00      7.12930E-04
  549.00      7.08600E-04
  551.00      7.02670E-04
  553.00      6.99350E-04
  555.00      6.94860E-04
  557.00      6.89160E-04
  559.00      6.82460E-04
  561.00      6.81310E-04
  563.00      6.76810E-04
  565.00      6.72410E-04
  567.00      6.68030E-04
  569.00      6.53020E-04
  571.00      6.10070E-04
  573.00      6.06450E-04
  575.00      6.02600E-04
  577.00      5.99640E-04
  579.00      5.96790E-04
  581.00      5.89360E-04
  583.00      5.93280E-04
  585.00      5.93050E-04
  587.00      5.90880E-04
  589.00      5.93100E-04
  591.00      5.93790E-04
  593.00      5.95020E-04
  595.00      5.97110E-04
  597.00      5.98670E-04
  599.00      6.00350E-04
  601.00      5.98250E-04
  603.00      5.95990E-04
  605.00      5.93310E-04
  607.00      5.89290E-04
  609.00      5.86860E-04
  611.00      5.82430E-04
  613.00      5.79010E-04
  615.00      5.76680E-04
  617.00      5.70830E-04
  619.00      5.69980E-04
  621.00      5.66800E-04
  623.00      5.60380E-04
  625.00      5.59400E-04
  627.00      5.56710E-04
  629.00      5.53650E-04
  631.00      5.46170E-04
  633.00      5.46890E-04
  635.00      5.43890E-04
  637.00      5.40850E-04
  639.00      5.36990E-04
  641.00      5.29490E-04
  643.00      5.31550E-04
  645.00      5.28300E-04
  647.00      5.25210E-04
  649.00      5.22460E-04
  651.00      5.18720E-04
  653.00      5.10080E-04
  655.00      5.08330E-04
  657.00      4.76360E-04
  659.00      5.07130E-04
  661.00      5.05060E-04
  663.00      5.02240E-04
  665.00      4.99430E-04
  667.00      4.94620E-04
  669.00      4.86460E-04
  671.00      4.90110E-04
  673.00      4.88260E-04
  675.00      4.85540E-04
  677.00      4.82930E-04
  679.00      4.80460E-04
  681.00      4.77810E-04
  683.00      4.75240E-04
  685.00      4.72590E-04
  687.00      4.70000E-04
  689.00      4.60100E-04
  691.00      4.64710E-04
  693.00      4.62550E-04
  695.00      4.60060E-04
  697.00      4.57600E-04
  699.00      4.55120E-04
  701.00      4.52280E-04
  703.00      4.49480E-04
  705.00      4.47020E-04
  707.00      4.44670E-04
  709.00      4.43220E-04
  711.00      4.40270E-04
  713.00      4.37970E-04
  715.00      4.36320E-04
  717.00      4.28930E-04
  719.00      4.28950E-04
  721.00      4.29280E-04
  723.00      4.27340E-04
  725.00      4.25140E-04
  727.00      4.22950E-04
  729.00      4.20650E-04
  731.00      4.17980E-04
  733.00      4.16470E-04
  735.00      4.14380E-04
  737.00      4.11910E-04
  739.00      4.09680E-04
  741.00      4.07710E-04
  743.00      4.06050E-04
  745.00      4.03290E-04
  747.00      4.01900E-04
  749.00      3.99430E-04
  751.00      3.97580E-04
  753.00      3.95960E-04
  755.00      3.93910E-04
  757.00      3.91910E-04
  759.00      3.83000E-04
  761.00      3.87480E-04
  763.00      3.86140E-04
  765.00      3.84200E-04
  767.00      3.82090E-04
  769.00      3.79700E-04
  771.00      3.77870E-04
  773.00      3.75850E-04
  775.00      3.74800E-04
  777.00      3.73300E-04
  779.00      3.71360E-04
  781.00      3.69680E-04
  783.00      3.67830E-04
  785.00      3.65050E-04
  787.00      3.63920E-04
  789.00      3.62460E-04
  791.00      3.60910E-04
  793.00      3.59250E-04
  795.00      3.57420E-04
  797.00      3.55110E-04
  799.00      3.54160E-04
  801.00      3.52480E-04
  803.00      3.50660E-04
  805.00      3.49210E-04
  807.00      3.47590E-04
  809.00      3.45970E-04
  811.00      3.44360E-04
  813.00      3.42760E-04
  815.00      3.41180E-04
  817.00      3.39030E-04
  819.00      3.36240E-04
  821.00      3.19360E-04
  823.00      3.15600E-04
  825.00      3.16140E-04
  827.00      3.15190E-04
  829.00      3.13870E-04
  831.00      3.12550E-04
  833.00      3.10650E-04
  835.00      3.09810E-04
  837.00      3.08630E-04
  839.00      3.07530E-04
  841.00      3.06550E-04
  843.00      3.05560E-04
  845.00      3.04580E-04
  847.00      3.03680E-04
  849.00      3.02980E-04
  851.00      3.01860E-04
  853.00      3.01550E-04
  855.00      3.00320E-04
  857.00      3.00060E-04
  859.00      2.99010E-04
  861.00      2.98250E-04
  863.00      2.98740E-04
  865.00      2.97730E-04
  867.00      2.94320E-04
  869.00      2.97260E-04
  871.00      2.97230E-04
  873.00      2.96280E-04
  875.00      2.90030E-04
  877.00      2.94310E-04
  879.00      2.95410E-04
  881.00      2.95000E-04
  883.00      2.94090E-04
  885.00      2.89390E-04
  887.00      2.81780E-04
  889.00      2.89770E-04
  891.00      2.89700E-04
  893.00      2.88180E-04
  895.00      2.87650E-04
  897.00      2.86540E-04
  899.00      2.84030E-04
  901.00      2.72220E-04
  903.00      2.76590E-04
  905.00      2.81080E-04
  907.00      2.80740E-04
  909.00      2.79600E-04
  911.00      2.77640E-04
  913.00      2.77260E-04
  915.00      2.76310E-04
  917.00      2.74870E-04
  919.00      2.73480E-04
  921.00      2.70010E-04
  923.00      2.55510E-04
  925.00      2.66960E-04
  927.00      2.68850E-04
  929.00      2.68290E-04
  931.00      2.67240E-04
  933.00      2.65850E-04
  935.00      2.58620E-04
  937.00      2.62290E-04
  939.00      2.62730E-04
  941.00      2.61710E-04
  943.00      2.60760E-04
  945.00      2.59650E-04
  947.00      2.58700E-04
  949.00      2.57440E-04
  951.00      2.55980E-04
  953.00      2.51940E-04
  955.00      2.37940E-04
  957.00      2.51050E-04
  959.00      2.52210E-04
  961.00      2.51560E-04
  963.00      2.50370E-04
  965.00      2.49600E-04
  967.00      2.48610E-04
  969.00      2.47630E-04
  971.00      2.45730E-04
  973.00      2.45480E-04
  975.00      2.44290E-04
  977.00      2.41560E-04
  979.00      2.42790E-04
  981.00      2.41840E-04
  983.00      2.40680E-04
  985.00      2.39980E-04
  987.00      2.39050E-04
  989.00      2.38120E-04
  991.00      2.37110E-04
  993.00      2.36290E-04
  995.00      2.35380E-04
  997.00      2.34470E-04
  999.00      2.33570E-04
  1002.5      2.28430E-04
  1007.5      2.24050E-04
  1012.5      2.23200E-04
  1017.5      2.25480E-04
  1022.5      2.23350E-04
  1027.5      2.21060E-04
  1032.5      2.19010E-04
  1037.5      2.17160E-04
  1042.5      2.13810E-04
  1047.5      2.13230E-04
  1052.5      2.11270E-04
  1057.5      2.09360E-04
  1062.5      2.07480E-04
  1067.5      2.05600E-04
  1072.5      2.03770E-04
  1077.5      2.01950E-04
  1082.5      1.99860E-04
  1087.5      1.98300E-04
  1092.5      1.89560E-04
  1097.5      1.93550E-04
  1102.5      1.93210E-04
  1107.5      1.91530E-04
  1112.5      1.89870E-04
  1117.5      1.88370E-04
  1122.5      1.86710E-04
  1127.5      1.85080E-04
  1132.5      1.83480E-04
  1137.5      1.82000E-04
  1142.5      1.80470E-04
  1147.5      1.78960E-04
  1152.5      1.77470E-04
  1157.5      1.75940E-04
  1162.5      1.72350E-04
  1167.5      1.71520E-04
  1172.5      1.71640E-04
  1177.5      1.70250E-04
  1182.5      1.68760E-04
  1187.5      1.67440E-04
  1192.5      1.66090E-04
  1197.5      1.64620E-04
  1202.5      1.63450E-04
  1207.5      1.62100E-04
  1212.5      1.60760E-04
  1217.5      1.59560E-04
  1222.5      1.58300E-04
  1227.5      1.57050E-04
  1232.5      1.55800E-04
  1237.5      1.54600E-04
  1242.5      1.53390E-04
  1247.5      1.52200E-04
  1252.5      1.51020E-04
  1257.5      1.49850E-04
  1262.5      1.48700E-04
  1267.5      1.47570E-04
  1272.5      1.46430E-04
  1277.5      1.44850E-04
  1282.5      1.38300E-04
  1287.5      1.42940E-04
  1292.5      1.42060E-04
  1297.5      1.40990E-04
  1302.5      1.39950E-04
  1307.5      1.38910E-04
  1312.5      1.37880E-04
  1317.5      1.36850E-04
  1322.5      1.35860E-04
  1327.5      1.34860E-04
  1332.5      1.33880E-04
  1337.5      1.32900E-04
  1342.5      1.31930E-04
  1347.5      1.30980E-04
  1352.5      1.30040E-04
  1357.5      1.29110E-04
  1362.5      1.28190E-04
  1367.5      1.27270E-04
  1372.5      1.26360E-04
  1377.5      1.25470E-04
  1382.5      1.24590E-04
  1387.5      1.23720E-04
  1392.5      1.22850E-04
  1397.5      1.22000E-04
