 Castelli and Kurucz 2004-2012 Atmosphere
 T     33000.     G    4.50000 [0.2a] VTURB=2  L/H=1.25 NOVER NEW ODF          
 Wavelength  Eddington Hnu
   (nm)    (ergs/s/cm2/Hz/sr)
  9.0900      3.16230E-32
  9.3500      1.76260E-31
  9.6100      9.00350E-31
  9.7700      2.36760E-30
  9.9600      7.17990E-30
  10.200      2.76470E-29
  10.380      7.33080E-29
  10.560      1.88680E-28
  10.770      5.48560E-28
  11.040      2.04990E-27
  11.400      1.08960E-26
  11.780      5.76630E-26
  12.130      2.46170E-25
  12.480      9.76140E-25
  12.710      2.32470E-24
  12.840      3.74910E-24
  13.050      7.96150E-24
  13.240      1.54580E-23
  13.390      2.57750E-23
  13.660      6.30860E-23
  13.980      1.74960E-22
  14.330      5.08490E-22
  14.720      1.57720E-21
  15.100      4.51590E-21
  15.520      1.36380E-20
  15.880      3.36770E-20
  16.200      7.28810E-20
  16.600      1.84070E-19
  17.030      4.72870E-19
  17.340      9.15540E-19
  17.680      1.84750E-18
  18.020      3.60600E-18
  18.170      4.85780E-18
  18.610      1.10110E-17
  19.100      2.63180E-17
  19.390      4.31430E-17
  19.840      9.09780E-17
  20.180      1.55750E-16
  20.500      2.54360E-16
  21.050      5.72560E-16
  21.620      1.26230E-15
  21.980      2.06610E-15
  22.300      3.14060E-15
  22.680      5.36510E-15
  23.000      1.09000E-12
  23.400      2.36090E-12
  24.000      4.04650E-12
  24.650      7.29090E-12
  25.240      1.27590E-11
  25.680      1.83310E-11
  26.000      2.97680E-11
  26.400      4.43530E-11
  26.850      6.91510E-11
  27.350      1.00390E-10
  27.850      1.33840E-10
  28.400      3.14130E-10
  29.000      4.75700E-10
  29.600      6.64080E-10
  30.100      9.66960E-10
  30.800      2.70620E-09
  31.800      5.85270E-09
  32.800      9.05250E-09
  33.800      1.67870E-08
  34.800      2.71920E-08
  35.700      6.46060E-08
  36.600      1.43810E-07
  37.500      1.81450E-07
  38.500      2.86410E-07
  39.500      6.24050E-07
  40.500      8.06030E-07
  41.400      1.22600E-06
  42.200      1.41690E-06
  43.000      1.67500E-06
  44.100      2.15090E-06
  45.100      2.54210E-06
  46.000      2.73400E-06
  47.000      3.41550E-06
  48.000      4.14160E-06
  49.000      4.57240E-06
  50.000      5.86920E-06
  50.600      8.29910E-06
  51.200      6.55290E-05
  52.000      6.26900E-05
  53.000      5.96280E-05
  54.000      5.91440E-05
  55.000      7.02410E-05
  56.000      9.54010E-05
  57.000      1.06140E-04
  58.000      1.00160E-04
  59.000      1.10900E-04
  60.000      8.20650E-05
  61.000      1.12370E-04
  62.000      1.40290E-04
  63.000      1.39900E-04
  64.000      1.40690E-04
  65.000      1.40360E-04
  65.800      1.08520E-04
  66.500      1.42030E-04
  67.500      1.68760E-04
  68.500      1.34500E-04
  69.500      1.87140E-04
  70.500      1.40590E-04
  71.600      2.13390E-04
  72.600      2.11870E-04
  73.500      2.18280E-04
  74.500      2.06780E-04
  75.500      2.13960E-04
  76.500      2.31060E-04
  77.500      2.46480E-04
  78.500      2.56730E-04
  79.500      2.64930E-04
  80.500      2.55430E-04
  81.500      2.59360E-04
  82.500      2.86270E-04
  83.500      2.23790E-04
  84.500      2.85170E-04
  85.500      2.87960E-04
  86.500      3.04540E-04
  87.500      3.12680E-04
  88.500      3.25760E-04
  89.500      3.34790E-04
  90.500      3.30000E-04
  91.500      3.51180E-04
  92.500      9.99200E-04
  93.500      1.61950E-03
  94.500      2.21960E-03
  95.500      2.51740E-03
  96.500      2.93080E-03
  97.500      1.18720E-03
  98.500      2.44990E-03
  99.500      2.22440E-03
  100.50      2.35380E-03
  101.50      2.56030E-03
  102.50      2.00070E-03
  103.50      2.55040E-03
  104.50      3.05030E-03
  105.50      2.92870E-03
  106.50      2.47120E-03
  107.50      2.67170E-03
  108.50      2.50440E-03
  109.50      2.74300E-03
  110.50      2.64030E-03
  111.50      2.62760E-03
  112.50      1.99800E-03
  113.50      2.58950E-03
  114.50      2.51000E-03
  115.50      2.39340E-03
  116.50      2.41400E-03
  117.50      1.60560E-03
  118.50      2.27210E-03
  119.50      2.20760E-03
  120.50      2.09980E-03
  121.50      1.68130E-03
  122.50      2.16270E-03
  123.50      2.35690E-03
  124.50      2.29890E-03
  125.50      2.32810E-03
  126.50      2.41400E-03
  127.50      2.52880E-03
  128.50      2.55860E-03
  129.50      2.34000E-03
  130.50      2.40090E-03
  131.50      2.60920E-03
  132.50      2.53850E-03
  133.50      2.50040E-03
  134.50      2.49160E-03
  135.50      2.50100E-03
  136.50      2.40890E-03
  137.50      2.36170E-03
  138.50      2.29090E-03
  139.50      1.62110E-03
  140.50      1.76960E-03
  141.50      2.28190E-03
  142.50      2.08180E-03
  143.50      2.25530E-03
  144.20      2.25900E-03
  144.70      2.26080E-03
  145.50      2.16670E-03
  146.50      2.12560E-03
  147.50      2.17720E-03
  148.50      2.19450E-03
  149.50      2.15170E-03
  150.50      2.08190E-03
  151.20      2.05640E-03
  151.70      2.08730E-03
  152.50      2.03930E-03
  153.50      1.78710E-03
  154.50      1.54840E-03
  155.50      1.56650E-03
  156.50      1.77470E-03
  157.50      1.88830E-03
  158.50      1.90020E-03
  159.50      1.93260E-03
  160.50      1.86180E-03
  161.50      1.79080E-03
  162.50      1.84890E-03
  163.50      1.89230E-03
  164.50      1.91140E-03
  165.50      1.93070E-03
  166.50      1.90910E-03
  167.20      1.78620E-03
  167.70      2.09870E-03
  168.50      2.01460E-03
  169.50      1.95830E-03
  170.50      1.95080E-03
  171.50      1.88440E-03
  172.50      1.81610E-03
  173.50      1.90470E-03
  174.50      1.91140E-03
  175.50      1.90350E-03
  176.50      1.89080E-03
  177.50      1.83620E-03
  178.50      1.88360E-03
  179.50      1.86530E-03
  180.50      1.88190E-03
  181.50      1.83680E-03
  182.50      1.83390E-03
  183.50      1.84210E-03
  184.50      1.74860E-03
  185.50      1.79760E-03
  186.50      1.82120E-03
  187.50      1.79320E-03
  188.50      1.71480E-03
  189.50      1.68530E-03
  190.50      1.75580E-03
  191.50      1.71110E-03
  192.50      1.62160E-03
  193.50      1.73920E-03
  194.50      1.77820E-03
  195.50      1.62610E-03
  196.70      1.72180E-03
  197.60      1.78690E-03
  198.40      1.72140E-03
  199.50      1.70050E-03
  200.50      1.74280E-03
  201.50      1.75380E-03
  202.50      1.76590E-03
  203.50      1.70080E-03
  204.50      1.69750E-03
  205.50      1.41610E-03
  206.50      1.38240E-03
  207.40      1.43960E-03
  207.80      1.42140E-03
  208.50      1.49570E-03
  209.50      1.57140E-03
  210.50      1.65140E-03
  211.50      1.68170E-03
  212.50      1.65940E-03
  213.50      1.66230E-03
  214.50      1.64330E-03
  215.50      1.66240E-03
  216.50      1.60580E-03
  217.50      1.64570E-03
  218.50      1.61110E-03
  219.50      1.65240E-03
  220.50      1.64140E-03
  221.50      1.59210E-03
  222.50      1.61540E-03
  223.50      1.60410E-03
  224.50      1.59650E-03
  225.50      1.55550E-03
  226.50      1.58110E-03
  227.50      1.57750E-03
  228.50      1.53780E-03
  229.50      1.39850E-03
  230.50      1.50210E-03
  231.50      1.50570E-03
  232.50      1.51580E-03
  233.50      1.50510E-03
  234.50      1.50380E-03
  235.50      1.48580E-03
  236.50      1.47350E-03
  237.50      1.45160E-03
  238.50      1.40560E-03
  239.50      1.42230E-03
  240.50      1.43500E-03
  241.50      1.41830E-03
  242.50      1.42290E-03
  243.50      1.40690E-03
  244.50      1.40440E-03
  245.50      1.39540E-03
  246.50      1.39030E-03
  247.50      1.37840E-03
  248.50      1.33530E-03
  249.50      9.55150E-04
  250.50      1.27740E-03
  251.30      1.26810E-03
  251.80      1.29010E-03
  252.50      1.33980E-03
  253.50      1.34310E-03
  254.50      1.31450E-03
  255.50      1.31750E-03
  256.50      1.30640E-03
  257.50      1.30950E-03
  258.50      1.30510E-03
  259.50      1.28950E-03
  260.50      1.29450E-03
  261.50      1.27670E-03
  262.50      1.27790E-03
  263.50      1.27210E-03
  264.50      1.26140E-03
  265.50      1.25670E-03
  266.50      1.23270E-03
  267.50      1.21460E-03
  268.50      1.23180E-03
  269.50      1.21100E-03
  270.50      1.20800E-03
  271.50      1.20230E-03
  272.50      1.19640E-03
  273.50      1.17890E-03
  274.50      1.19230E-03
  275.50      1.18480E-03
  276.50      1.17420E-03
  277.50      1.18240E-03
  278.50      1.16640E-03
  279.50      1.13020E-03
  280.50      1.15080E-03
  281.50      1.15560E-03
  282.50      1.14670E-03
  283.50      1.12900E-03
  284.50      1.13950E-03
  285.50      1.12650E-03
  286.50      1.11880E-03
  287.50      1.11190E-03
  288.50      1.10800E-03
  289.50      1.10090E-03
  291.00      1.08080E-03
  293.00      1.08610E-03
  295.00      1.06860E-03
  297.00      1.06010E-03
  299.00      1.04060E-03
  301.00      1.01750E-03
  303.00      1.00620E-03
  305.00      1.00980E-03
  307.00      1.00830E-03
  309.00      9.82870E-04
  311.00      9.90270E-04
  313.00      9.72340E-04
  315.00      9.69570E-04
  317.00      9.56920E-04
  319.00      9.50440E-04
  321.00      9.36800E-04
  323.00      9.28860E-04
  325.00      9.27140E-04
  327.00      9.08840E-04
  329.00      9.05700E-04
  331.00      8.95650E-04
  333.00      8.83650E-04
  335.00      8.73440E-04
  337.00      8.66120E-04
  339.00      8.66460E-04
  341.00      8.57280E-04
  343.00      8.54050E-04
  345.00      8.39030E-04
  347.00      8.34920E-04
  349.00      8.27240E-04
  351.00      8.20570E-04
  353.00      8.17730E-04
  355.00      8.08340E-04
  357.00      8.02150E-04
  359.00      7.91280E-04
  361.00      7.86490E-04
  363.00      7.78430E-04
  364.00      7.74500E-04
  365.00      7.48560E-04
  367.00      7.45550E-04
  369.00      7.39040E-04
  371.00      7.17920E-04
  373.00      7.12510E-04
  375.00      7.17610E-04
  377.00      7.06750E-04
  379.00      7.38840E-04
  381.00      7.62080E-04
  383.00      6.95450E-04
  385.00      7.74830E-04
  387.00      7.56980E-04
  389.00      6.73430E-04
  391.00      7.80530E-04
  393.00      7.63840E-04
  395.00      7.48050E-04
  397.00      6.44940E-04
  399.00      7.50580E-04
  401.00      7.47030E-04
  403.00      7.23370E-04
  405.00      7.38200E-04
  407.00      7.08860E-04
  409.00      6.72380E-04
  411.00      6.24150E-04
  413.00      6.99690E-04
  415.00      6.98770E-04
  417.00      7.04710E-04
  419.00      6.97130E-04
  421.00      6.91030E-04
  423.00      6.88520E-04
  425.00      6.72980E-04
  427.00      6.64340E-04
  429.00      6.55720E-04
  431.00      6.43020E-04
  433.00      6.10920E-04
  435.00      5.74280E-04
  437.00      6.33660E-04
  439.00      6.29160E-04
  441.00      6.27710E-04
  443.00      6.29980E-04
  445.00      6.22830E-04
  447.00      6.06700E-04
  449.00      6.16410E-04
  451.00      6.09940E-04
  453.00      6.09940E-04
  455.00      6.01830E-04
  457.00      6.01760E-04
  459.00      5.94790E-04
  461.00      5.86550E-04
  463.00      5.78960E-04
  465.00      5.55310E-04
  467.00      5.72100E-04
  469.00      5.66450E-04
  471.00      5.58790E-04
  473.00      5.70640E-04
  475.00      5.64760E-04
  477.00      5.65290E-04
  479.00      5.60720E-04
  481.00      5.54030E-04
  483.00      5.46370E-04
  485.00      5.21450E-04
  487.00      4.78100E-04
  489.00      5.34500E-04
  491.00      5.32520E-04
  493.00      5.21870E-04
  495.00      5.23150E-04
  497.00      5.25720E-04
  499.00      5.21750E-04
  501.00      5.06350E-04
  503.00      5.10310E-04
  505.00      5.06900E-04
  507.00      5.07440E-04
  509.00      5.02680E-04
  511.00      4.98870E-04
  513.00      4.94810E-04
  515.00      4.91790E-04
  517.00      4.87920E-04
  519.00      4.85640E-04
  521.00      4.82680E-04
  523.00      4.79720E-04
  525.00      4.75290E-04
  527.00      4.71340E-04
  529.00      4.70160E-04
  531.00      4.66680E-04
  533.00      4.63790E-04
  535.00      4.60690E-04
  537.00      4.57670E-04
  539.00      4.53850E-04
  541.00      4.47700E-04
  543.00      4.48790E-04
  545.00      4.45560E-04
  547.00      4.42520E-04
  549.00      4.39750E-04
  551.00      4.36920E-04
  553.00      4.34050E-04
  555.00      4.31690E-04
  557.00      4.28740E-04
  559.00      4.24950E-04
  561.00      4.23440E-04
  563.00      4.20860E-04
  565.00      4.17820E-04
  567.00      4.14200E-04
  569.00      4.06970E-04
  571.00      4.02440E-04
  573.00      4.00700E-04
  575.00      3.97000E-04
  577.00      3.96250E-04
  579.00      3.93580E-04
  581.00      3.90700E-04
  583.00      3.87800E-04
  585.00      3.86930E-04
  587.00      3.76330E-04
  589.00      3.81490E-04
  591.00      3.80550E-04
  593.00      3.78890E-04
  595.00      3.77190E-04
  597.00      3.76590E-04
  599.00      3.74170E-04
  601.00      3.73190E-04
  603.00      3.70720E-04
  605.00      3.68960E-04
  607.00      3.67100E-04
  609.00      3.65010E-04
  611.00      3.62600E-04
  613.00      3.60640E-04
  615.00      3.57430E-04
  617.00      3.55520E-04
  619.00      3.54270E-04
  621.00      3.52450E-04
  623.00      3.50250E-04
  625.00      3.47740E-04
  627.00      3.46130E-04
  629.00      3.44210E-04
  631.00      3.41610E-04
  633.00      3.40360E-04
  635.00      3.37900E-04
  637.00      3.36590E-04
  639.00      3.34630E-04
  641.00      3.32550E-04
  643.00      3.30910E-04
  645.00      3.28870E-04
  647.00      3.26040E-04
  649.00      3.24220E-04
  651.00      3.21770E-04
  653.00      3.19250E-04
  655.00      3.11080E-04
  657.00      2.81950E-04
  659.00      3.13000E-04
  661.00      3.13850E-04
  663.00      3.12720E-04
  665.00      3.10660E-04
  667.00      3.05780E-04
  669.00      3.03980E-04
  671.00      3.05150E-04
  673.00      3.03020E-04
  675.00      3.02390E-04
  677.00      3.01150E-04
  679.00      2.98470E-04
  681.00      2.97810E-04
  683.00      2.95920E-04
  685.00      2.94630E-04
  687.00      2.92910E-04
  689.00      2.90330E-04
  691.00      2.88530E-04
  693.00      2.88640E-04
  695.00      2.87100E-04
  697.00      2.85610E-04
  699.00      2.84030E-04
  701.00      2.82190E-04
  703.00      2.80500E-04
  705.00      2.79160E-04
  707.00      2.74170E-04
  709.00      2.76720E-04
  711.00      2.74550E-04
  713.00      2.73300E-04
  715.00      2.72510E-04
  717.00      2.70710E-04
  719.00      2.69520E-04
  721.00      2.68370E-04
  723.00      2.64790E-04
  725.00      2.64970E-04
  727.00      2.64290E-04
  729.00      2.61160E-04
  731.00      2.61480E-04
  733.00      2.60240E-04
  735.00      2.58930E-04
  737.00      2.57680E-04
  739.00      2.56430E-04
  741.00      2.55110E-04
  743.00      2.53870E-04
  745.00      2.52470E-04
  747.00      2.50120E-04
  749.00      2.49340E-04
  751.00      2.48760E-04
  753.00      2.47380E-04
  755.00      2.46460E-04
  757.00      2.45210E-04
  759.00      2.43260E-04
  761.00      2.42180E-04
  763.00      2.41490E-04
  765.00      2.40250E-04
  767.00      2.39340E-04
  769.00      2.37560E-04
  771.00      2.36780E-04
  773.00      2.34970E-04
  775.00      2.34670E-04
  777.00      2.33600E-04
  779.00      2.32580E-04
  781.00      2.31420E-04
  783.00      2.30390E-04
  785.00      2.29250E-04
  787.00      2.27560E-04
  789.00      2.26480E-04
  791.00      2.25970E-04
  793.00      2.24900E-04
  795.00      2.24030E-04
  797.00      2.22750E-04
  799.00      2.21840E-04
  801.00      2.20820E-04
  803.00      2.19690E-04
  805.00      2.18830E-04
  807.00      2.17810E-04
  809.00      2.16650E-04
  811.00      2.14210E-04
  813.00      2.14820E-04
  815.00      2.13660E-04
  817.00      2.12880E-04
  819.00      2.10520E-04
  821.00      2.08930E-04
  823.00      2.07580E-04
  825.00      2.07550E-04
  827.00      2.04960E-04
  829.00      2.05570E-04
  831.00      2.05040E-04
  833.00      2.03780E-04
  835.00      2.02150E-04
  837.00      2.01780E-04
  839.00      2.01460E-04
  841.00      2.00350E-04
  843.00      1.99690E-04
  845.00      1.97930E-04
  847.00      1.97960E-04
  849.00      1.96800E-04
  851.00      1.95390E-04
  853.00      1.95100E-04
  855.00      1.93710E-04
  857.00      1.94300E-04
  859.00      1.90560E-04
  861.00      1.90850E-04
  863.00      1.92720E-04
  865.00      1.89660E-04
  867.00      1.84660E-04
  869.00      1.90230E-04
  871.00      1.90700E-04
  873.00      1.87350E-04
  875.00      1.77680E-04
  877.00      1.84200E-04
  879.00      1.88110E-04
  881.00      1.88200E-04
  883.00      1.86240E-04
  885.00      1.78570E-04
  887.00      1.70360E-04
  889.00      1.82770E-04
  891.00      1.84320E-04
  893.00      1.83890E-04
  895.00      1.83230E-04
  897.00      1.82270E-04
  899.00      1.78670E-04
  901.00      1.64350E-04
  903.00      1.70290E-04
  905.00      1.78240E-04
  907.00      1.77360E-04
  909.00      1.77730E-04
  911.00      1.77920E-04
  913.00      1.77250E-04
  915.00      1.76630E-04
  917.00      1.75070E-04
  919.00      1.73860E-04
  921.00      1.67970E-04
  923.00      1.52710E-04
  925.00      1.66320E-04
  927.00      1.70780E-04
  929.00      1.70880E-04
  931.00      1.70030E-04
  933.00      1.69490E-04
  935.00      1.68490E-04
  937.00      1.68550E-04
  939.00      1.67990E-04
  941.00      1.67030E-04
  943.00      1.66510E-04
  945.00      1.65780E-04
  947.00      1.64490E-04
  949.00      1.63970E-04
  951.00      1.61590E-04
  953.00      1.56080E-04
  955.00      1.42410E-04
  957.00      1.57380E-04
  959.00      1.60510E-04
  961.00      1.59930E-04
  963.00      1.58990E-04
  965.00      1.59640E-04
  967.00      1.59130E-04
  969.00      1.58400E-04
  971.00      1.55270E-04
  973.00      1.56840E-04
  975.00      1.56640E-04
  977.00      1.56000E-04
  979.00      1.55380E-04
  981.00      1.54580E-04
  983.00      1.54160E-04
  985.00      1.53450E-04
  987.00      1.52950E-04
  989.00      1.51960E-04
  991.00      1.51000E-04
  993.00      1.51210E-04
  995.00      1.50650E-04
  997.00      1.49970E-04
  999.00      1.49130E-04
  1002.5      1.42750E-04
  1007.5      1.39570E-04
  1012.5      1.44150E-04
  1017.5      1.44430E-04
  1022.5      1.42960E-04
  1027.5      1.41710E-04
  1032.5      1.39920E-04
  1037.5      1.39170E-04
  1042.5      1.37890E-04
  1047.5      1.36660E-04
  1052.5      1.35360E-04
  1057.5      1.34200E-04
  1062.5      1.32960E-04
  1067.5      1.31630E-04
  1072.5      1.30630E-04
  1077.5      1.29450E-04
  1082.5      1.27140E-04
  1087.5      1.26750E-04
  1092.5      1.17140E-04
  1097.5      1.22300E-04
  1102.5      1.23210E-04
  1107.5      1.22750E-04
  1112.5      1.21740E-04
  1117.5      1.20760E-04
  1122.5      1.19680E-04
  1127.5      1.18680E-04
  1132.5      1.17480E-04
  1137.5      1.16620E-04
  1142.5      1.15660E-04
  1147.5      1.14720E-04
  1152.5      1.13830E-04
  1157.5      1.12810E-04
  1162.5      1.11660E-04
  1167.5      1.10740E-04
  1172.5      1.10140E-04
  1177.5      1.09230E-04
  1182.5      1.08270E-04
  1187.5      1.07440E-04
  1192.5      1.06580E-04
  1197.5      1.04680E-04
  1202.5      1.04910E-04
  1207.5      1.04060E-04
  1212.5      1.03190E-04
  1217.5      1.02430E-04
  1222.5      1.01630E-04
  1227.5      1.00840E-04
  1232.5      1.00010E-04
  1237.5      9.92420E-05
  1242.5      9.85150E-05
  1247.5      9.76970E-05
  1252.5      9.67110E-05
  1257.5      9.61830E-05
  1262.5      9.54600E-05
  1267.5      9.47980E-05
  1272.5      9.40270E-05
  1277.5      9.18420E-05
  1282.5      8.60270E-05
  1287.5      9.13980E-05
  1292.5      9.12820E-05
  1297.5      9.00650E-05
  1302.5      8.98360E-05
  1307.5      8.92900E-05
  1312.5      8.86370E-05
  1317.5      8.79870E-05
  1322.5      8.73470E-05
  1327.5      8.67120E-05
  1332.5      8.60560E-05
  1337.5      8.53600E-05
  1342.5      8.47410E-05
  1347.5      8.42050E-05
  1352.5      8.35220E-05
  1357.5      8.30190E-05
  1362.5      8.22940E-05
  1367.5      8.18560E-05
  1372.5      8.11670E-05
  1377.5      8.07280E-05
  1382.5      8.01680E-05
  1387.5      7.96020E-05
  1392.5      7.89620E-05
  1397.5      7.84960E-05
