 Castelli and Kurucz 2004-2012 Atmosphere
 T     34000.     G    5.00000 [0.2a] VTURB=2  L/H=1.25 NOVER NEW ODF          
 Wavelength  Eddington Hnu
   (nm)    (ergs/s/cm2/Hz/sr)
  9.0900      1.26510E-30
  9.3500      6.47010E-30
  9.6100      3.04080E-29
  9.7700      7.60500E-29
  9.9600      2.17590E-28
  10.200      7.79730E-28
  10.380      1.96160E-27
  10.560      4.79530E-27
  10.770      1.31410E-26
  11.040      4.56340E-26
  11.400      2.20730E-25
  11.780      1.06230E-24
  12.130      4.17380E-24
  12.480      1.52920E-23
  12.710      3.46540E-23
  12.840      5.43800E-23
  13.050      1.10600E-22
  13.240      2.06790E-22
  13.390      3.34950E-22
  13.660      7.79320E-22
  13.980      2.04120E-21
  14.330      5.58960E-21
  14.720      1.62810E-20
  15.100      4.40230E-20
  15.520      1.25240E-19
  15.880      2.94670E-19
  16.200      6.11630E-19
  16.600      1.47050E-18
  17.030      3.59260E-18
  17.340      6.71980E-18
  17.680      1.30720E-17
  18.020      2.46340E-17
  18.170      3.26820E-17
  18.610      7.09730E-17
  19.100      1.62090E-16
  19.390      2.58890E-16
  19.840      5.25010E-16
  20.180      8.73600E-16
  20.500      1.39010E-15
  21.050      2.99720E-15
  21.620      6.33160E-15
  21.980      1.00970E-14
  22.300      1.50080E-14
  22.680      2.49470E-14
  23.000      4.10740E-12
  23.400      8.98370E-12
  24.000      1.49940E-11
  24.650      2.61610E-11
  25.240      4.45690E-11
  25.680      6.29000E-11
  26.000      9.78360E-11
  26.400      1.41070E-10
  26.850      2.15260E-10
  27.350      3.07070E-10
  27.850      4.02930E-10
  28.400      8.82900E-10
  29.000      1.30910E-09
  29.600      1.79580E-09
  30.100      2.56600E-09
  30.800      6.28540E-09
  31.800      1.30180E-08
  32.800      1.97270E-08
  33.800      3.52990E-08
  34.800      5.57910E-08
  35.700      1.23800E-07
  36.600      2.63150E-07
  37.500      3.28800E-07
  38.500      5.05790E-07
  39.500      1.05820E-06
  40.500      1.33940E-06
  41.400      1.98830E-06
  42.200      2.26710E-06
  43.000      2.65720E-06
  44.100      3.35790E-06
  45.100      3.96860E-06
  46.000      4.26360E-06
  47.000      5.22970E-06
  48.000      6.26990E-06
  49.000      6.95210E-06
  50.000      8.69830E-06
  50.600      1.19390E-05
  51.200      9.06200E-05
  52.000      8.58280E-05
  53.000      8.24780E-05
  54.000      7.99690E-05
  55.000      9.61650E-05
  56.000      1.25700E-04
  57.000      1.36220E-04
  58.000      1.29280E-04
  59.000      1.43170E-04
  60.000      1.12200E-04
  61.000      1.46010E-04
  62.000      1.77360E-04
  63.000      1.77470E-04
  64.000      1.78650E-04
  65.000      1.82760E-04
  65.800      1.47770E-04
  66.500      1.82590E-04
  67.500      2.08500E-04
  68.500      1.70980E-04
  69.500      2.30120E-04
  70.500      1.82180E-04
  71.600      2.57890E-04
  72.600      2.55880E-04
  73.500      2.62830E-04
  74.500      2.55250E-04
  75.500      2.61880E-04
  76.500      2.80070E-04
  77.500      2.94650E-04
  78.500      3.07280E-04
  79.500      3.14230E-04
  80.500      3.06030E-04
  81.500      3.11260E-04
  82.500      3.38520E-04
  83.500      2.75150E-04
  84.500      3.38010E-04
  85.500      3.40860E-04
  86.500      3.59020E-04
  87.500      3.67640E-04
  88.500      3.81440E-04
  89.500      3.91460E-04
  90.500      3.86160E-04
  91.500      3.88720E-04
  92.500      9.56380E-04
  93.500      1.58200E-03
  94.500      2.38520E-03
  95.500      2.78820E-03
  96.500      3.42440E-03
  97.500      1.36550E-03
  98.500      2.97870E-03
  99.500      2.65170E-03
  100.50      2.82050E-03
  101.50      3.02930E-03
  102.50      2.11250E-03
  103.50      2.98850E-03
  104.50      3.61150E-03
  105.50      3.47260E-03
  106.50      2.87570E-03
  107.50      3.14660E-03
  108.50      2.91610E-03
  109.50      3.24340E-03
  110.50      3.10470E-03
  111.50      3.09300E-03
  112.50      2.36310E-03
  113.50      3.04180E-03
  114.50      2.91050E-03
  115.50      2.78560E-03
  116.50      2.80140E-03
  117.50      1.91080E-03
  118.50      2.65320E-03
  119.50      2.56890E-03
  120.50      2.42450E-03
  121.50      1.78060E-03
  122.50      2.47920E-03
  123.50      2.72050E-03
  124.50      2.66450E-03
  125.50      2.69490E-03
  126.50      2.78350E-03
  127.50      2.89460E-03
  128.50      2.92980E-03
  129.50      2.66200E-03
  130.50      2.74230E-03
  131.50      2.97310E-03
  132.50      2.88010E-03
  133.50      2.84630E-03
  134.50      2.80820E-03
  135.50      2.84060E-03
  136.50      2.72020E-03
  137.50      2.67500E-03
  138.50      2.59590E-03
  139.50      1.88570E-03
  140.50      2.03880E-03
  141.50      2.57340E-03
  142.50      2.34800E-03
  143.50      2.53410E-03
  144.20      2.54930E-03
  144.70      2.54750E-03
  145.50      2.44610E-03
  146.50      2.40050E-03
  147.50      2.43970E-03
  148.50      2.45900E-03
  149.50      2.41260E-03
  150.50      2.32490E-03
  151.20      2.29770E-03
  151.70      2.32550E-03
  152.50      2.27960E-03
  153.50      1.99860E-03
  154.50      1.75820E-03
  155.50      1.77370E-03
  156.50      1.97980E-03
  157.50      2.09470E-03
  158.50      2.10280E-03
  159.50      2.14660E-03
  160.50      2.07130E-03
  161.50      1.98920E-03
  162.50      2.05030E-03
  163.50      2.08710E-03
  164.50      2.10360E-03
  165.50      2.13620E-03
  166.50      2.10780E-03
  167.20      1.98680E-03
  167.70      2.30200E-03
  168.50      2.21750E-03
  169.50      2.15590E-03
  170.50      2.13850E-03
  171.50      2.07990E-03
  172.50      1.99010E-03
  173.50      2.09070E-03
  174.50      2.09810E-03
  175.50      2.08680E-03
  176.50      2.06730E-03
  177.50      2.01110E-03
  178.50      2.05870E-03
  179.50      2.03980E-03
  180.50      2.05590E-03
  181.50      2.00710E-03
  182.50      2.00200E-03
  183.50      2.00770E-03
  184.50      1.90420E-03
  185.50      1.94890E-03
  186.50      1.97530E-03
  187.50      1.94590E-03
  188.50      1.86160E-03
  189.50      1.82900E-03
  190.50      1.90220E-03
  191.50      1.85150E-03
  192.50      1.75470E-03
  193.50      1.87750E-03
  194.50      1.91900E-03
  195.50      1.76190E-03
  196.70      1.85700E-03
  197.60      1.92600E-03
  198.40      1.85240E-03
  199.50      1.83120E-03
  200.50      1.87210E-03
  201.50      1.88260E-03
  202.50      1.89150E-03
  203.50      1.82580E-03
  204.50      1.82160E-03
  205.50      1.53100E-03
  206.50      1.49520E-03
  207.40      1.53860E-03
  207.80      1.51470E-03
  208.50      1.56860E-03
  209.50      1.62430E-03
  210.50      1.75290E-03
  211.50      1.79540E-03
  212.50      1.76850E-03
  213.50      1.77270E-03
  214.50      1.75320E-03
  215.50      1.76730E-03
  216.50      1.71000E-03
  217.50      1.74890E-03
  218.50      1.71220E-03
  219.50      1.75200E-03
  220.50      1.74150E-03
  221.50      1.68590E-03
  222.50      1.71390E-03
  223.50      1.70260E-03
  224.50      1.69340E-03
  225.50      1.64370E-03
  226.50      1.67620E-03
  227.50      1.67060E-03
  228.50      1.62580E-03
  229.50      1.49600E-03
  230.50      1.58570E-03
  231.50      1.59580E-03
  232.50      1.60340E-03
  233.50      1.59360E-03
  234.50      1.59230E-03
  235.50      1.57380E-03
  236.50      1.56130E-03
  237.50      1.53790E-03
  238.50      1.48510E-03
  239.50      1.50550E-03
  240.50      1.51900E-03
  241.50      1.50150E-03
  242.50      1.50510E-03
  243.50      1.48680E-03
  244.50      1.48450E-03
  245.50      1.47430E-03
  246.50      1.47060E-03
  247.50      1.45870E-03
  248.50      1.42390E-03
  249.50      1.07090E-03
  250.50      1.37090E-03
  251.30      1.33530E-03
  251.80      1.35720E-03
  252.50      1.41470E-03
  253.50      1.41710E-03
  254.50      1.38650E-03
  255.50      1.38840E-03
  256.50      1.37620E-03
  257.50      1.37970E-03
  258.50      1.37540E-03
  259.50      1.35950E-03
  260.50      1.36340E-03
  261.50      1.34610E-03
  262.50      1.34620E-03
  263.50      1.33890E-03
  264.50      1.32800E-03
  265.50      1.32230E-03
  266.50      1.29720E-03
  267.50      1.27900E-03
  268.50      1.29560E-03
  269.50      1.27310E-03
  270.50      1.26940E-03
  271.50      1.26380E-03
  272.50      1.25530E-03
  273.50      1.23550E-03
  274.50      1.25130E-03
  275.50      1.24420E-03
  276.50      1.23170E-03
  277.50      1.24110E-03
  278.50      1.22520E-03
  279.50      1.18590E-03
  280.50      1.20660E-03
  281.50      1.21260E-03
  282.50      1.20180E-03
  283.50      1.18270E-03
  284.50      1.19530E-03
  285.50      1.18120E-03
  286.50      1.17330E-03
  287.50      1.16590E-03
  288.50      1.16140E-03
  289.50      1.15200E-03
  291.00      1.13170E-03
  293.00      1.13750E-03
  295.00      1.11770E-03
  297.00      1.10990E-03
  299.00      1.08970E-03
  301.00      1.06490E-03
  303.00      1.05360E-03
  305.00      1.05650E-03
  307.00      1.05530E-03
  309.00      1.02760E-03
  311.00      1.03480E-03
  313.00      1.01590E-03
  315.00      1.01210E-03
  317.00      9.98610E-04
  319.00      9.91060E-04
  321.00      9.77770E-04
  323.00      9.69810E-04
  325.00      9.67490E-04
  327.00      9.48620E-04
  329.00      9.45180E-04
  331.00      9.34710E-04
  333.00      9.22140E-04
  335.00      9.11920E-04
  337.00      9.03810E-04
  339.00      9.03490E-04
  341.00      8.93670E-04
  343.00      8.89880E-04
  345.00      8.74310E-04
  347.00      8.69570E-04
  349.00      8.61510E-04
  351.00      8.54540E-04
  353.00      8.51140E-04
  355.00      8.41310E-04
  357.00      8.35300E-04
  359.00      8.22650E-04
  361.00      8.18800E-04
  363.00      8.09380E-04
  364.00      8.06640E-04
  365.00      7.82990E-04
  367.00      7.79830E-04
  369.00      7.73390E-04
  371.00      7.50670E-04
  373.00      7.47850E-04
  375.00      7.43840E-04
  377.00      7.26020E-04
  379.00      7.51320E-04
  381.00      7.76020E-04
  383.00      7.05070E-04
  385.00      7.92350E-04
  387.00      7.79970E-04
  389.00      6.77610E-04
  391.00      8.05520E-04
  393.00      7.94300E-04
  395.00      7.72420E-04
  397.00      6.49200E-04
  399.00      7.73570E-04
  401.00      7.74580E-04
  403.00      7.45130E-04
  405.00      7.67320E-04
  407.00      7.34470E-04
  409.00      6.87310E-04
  411.00      6.32860E-04
  413.00      7.25670E-04
  415.00      7.25860E-04
  417.00      7.33000E-04
  419.00      7.24700E-04
  421.00      7.19110E-04
  423.00      7.16150E-04
  425.00      6.98400E-04
  427.00      6.89780E-04
  429.00      6.81240E-04
  431.00      6.66160E-04
  433.00      6.22570E-04
  435.00      5.83670E-04
  437.00      6.55600E-04
  439.00      6.50480E-04
  441.00      6.52020E-04
  443.00      6.54610E-04
  445.00      6.46830E-04
  447.00      6.24480E-04
  449.00      6.39240E-04
  451.00      6.34550E-04
  453.00      6.33990E-04
  455.00      6.25370E-04
  457.00      6.25250E-04
  459.00      6.18030E-04
  461.00      6.08480E-04
  463.00      5.99670E-04
  465.00      5.76420E-04
  467.00      5.93900E-04
  469.00      5.87560E-04
  471.00      5.78350E-04
  473.00      5.91780E-04
  475.00      5.85720E-04
  477.00      5.86290E-04
  479.00      5.81360E-04
  481.00      5.73410E-04
  483.00      5.64060E-04
  485.00      5.29680E-04
  487.00      4.84000E-04
  489.00      5.51220E-04
  491.00      5.50660E-04
  493.00      5.38050E-04
  495.00      5.41930E-04
  497.00      5.44710E-04
  499.00      5.40500E-04
  501.00      5.23770E-04
  503.00      5.28450E-04
  505.00      5.24770E-04
  507.00      5.25580E-04
  509.00      5.20430E-04
  511.00      5.16480E-04
  513.00      5.12260E-04
  515.00      5.09010E-04
  517.00      5.05100E-04
  519.00      5.02760E-04
  521.00      4.99610E-04
  523.00      4.96530E-04
  525.00      4.92080E-04
  527.00      4.87940E-04
  529.00      4.86530E-04
  531.00      4.82940E-04
  533.00      4.79860E-04
  535.00      4.76550E-04
  537.00      4.73460E-04
  539.00      4.69530E-04
  541.00      4.62820E-04
  543.00      4.64130E-04
  545.00      4.60730E-04
  547.00      4.57580E-04
  549.00      4.54720E-04
  551.00      4.51830E-04
  553.00      4.48760E-04
  555.00      4.46270E-04
  557.00      4.43260E-04
  559.00      4.39420E-04
  561.00      4.37660E-04
  563.00      4.34980E-04
  565.00      4.31790E-04
  567.00      4.28040E-04
  569.00      4.21010E-04
  571.00      4.17130E-04
  573.00      4.15350E-04
  575.00      4.11500E-04
  577.00      4.10650E-04
  579.00      4.07860E-04
  581.00      4.04960E-04
  583.00      4.01740E-04
  585.00      4.00500E-04
  587.00      3.87870E-04
  589.00      3.94010E-04
  591.00      3.93170E-04
  593.00      3.91350E-04
  595.00      3.89360E-04
  597.00      3.88520E-04
  599.00      3.85820E-04
  601.00      3.84550E-04
  603.00      3.82280E-04
  605.00      3.80770E-04
  607.00      3.78920E-04
  609.00      3.76740E-04
  611.00      3.74280E-04
  613.00      3.72250E-04
  615.00      3.68890E-04
  617.00      3.67020E-04
  619.00      3.65600E-04
  621.00      3.63690E-04
  623.00      3.61520E-04
  625.00      3.58840E-04
  627.00      3.57120E-04
  629.00      3.55150E-04
  631.00      3.52690E-04
  633.00      3.51130E-04
  635.00      3.48580E-04
  637.00      3.47200E-04
  639.00      3.45160E-04
  641.00      3.43110E-04
  643.00      3.41300E-04
  645.00      3.39200E-04
  647.00      3.36170E-04
  649.00      3.34300E-04
  651.00      3.31810E-04
  653.00      3.28610E-04
  655.00      3.16960E-04
  657.00      2.86020E-04
  659.00      3.21400E-04
  661.00      3.23050E-04
  663.00      3.22320E-04
  665.00      3.20290E-04
  667.00      3.14680E-04
  669.00      3.13070E-04
  671.00      3.14520E-04
  673.00      3.12480E-04
  675.00      3.11770E-04
  677.00      3.10430E-04
  679.00      3.07590E-04
  681.00      3.06930E-04
  683.00      3.04960E-04
  685.00      3.03680E-04
  687.00      3.01890E-04
  689.00      2.99380E-04
  691.00      2.97350E-04
  693.00      2.97420E-04
  695.00      2.95840E-04
  697.00      2.94290E-04
  699.00      2.92640E-04
  701.00      2.90790E-04
  703.00      2.89050E-04
  705.00      2.87620E-04
  707.00      2.82290E-04
  709.00      2.85080E-04
  711.00      2.83050E-04
  713.00      2.81770E-04
  715.00      2.80720E-04
  717.00      2.78980E-04
  719.00      2.77690E-04
  721.00      2.76420E-04
  723.00      2.72740E-04
  725.00      2.72950E-04
  727.00      2.72200E-04
  729.00      2.68890E-04
  731.00      2.69330E-04
  733.00      2.68010E-04
  735.00      2.66650E-04
  737.00      2.65360E-04
  739.00      2.64060E-04
  741.00      2.62700E-04
  743.00      2.61420E-04
  745.00      2.59990E-04
  747.00      2.57530E-04
  749.00      2.56770E-04
  751.00      2.56140E-04
  753.00      2.54720E-04
  755.00      2.53750E-04
  757.00      2.52460E-04
  759.00      2.50610E-04
  761.00      2.49330E-04
  763.00      2.48640E-04
  765.00      2.47350E-04
  767.00      2.46360E-04
  769.00      2.44570E-04
  771.00      2.43740E-04
  773.00      2.41860E-04
  775.00      2.41590E-04
  777.00      2.40430E-04
  779.00      2.39390E-04
  781.00      2.38190E-04
  783.00      2.37120E-04
  785.00      2.36010E-04
  787.00      2.34210E-04
  789.00      2.33070E-04
  791.00      2.32610E-04
  793.00      2.31460E-04
  795.00      2.30540E-04
  797.00      2.29260E-04
  799.00      2.28290E-04
  801.00      2.27290E-04
  803.00      2.26130E-04
  805.00      2.25220E-04
  807.00      2.24150E-04
  809.00      2.22950E-04
  811.00      2.20330E-04
  813.00      2.21030E-04
  815.00      2.19870E-04
  817.00      2.19030E-04
  819.00      2.16530E-04
  821.00      2.15220E-04
  823.00      2.13840E-04
  825.00      2.13720E-04
  827.00      2.11090E-04
  829.00      2.11710E-04
  831.00      2.11180E-04
  833.00      2.09910E-04
  835.00      2.08280E-04
  837.00      2.07840E-04
  839.00      2.07500E-04
  841.00      2.06350E-04
  843.00      2.05670E-04
  845.00      2.03880E-04
  847.00      2.03920E-04
  849.00      2.02740E-04
  851.00      2.01440E-04
  853.00      2.00870E-04
  855.00      2.00000E-04
  857.00      1.99630E-04
  859.00      1.96610E-04
  861.00      1.97080E-04
  863.00      1.97670E-04
  865.00      1.94990E-04
  867.00      1.92070E-04
  869.00      1.95030E-04
  871.00      1.95200E-04
  873.00      1.91930E-04
  875.00      1.85300E-04
  877.00      1.88980E-04
  879.00      1.92320E-04
  881.00      1.92570E-04
  883.00      1.90300E-04
  885.00      1.82830E-04
  887.00      1.76680E-04
  889.00      1.86600E-04
  891.00      1.88680E-04
  893.00      1.88540E-04
  895.00      1.87890E-04
  897.00      1.86600E-04
  899.00      1.82170E-04
  901.00      1.69080E-04
  903.00      1.73780E-04
  905.00      1.81930E-04
  907.00      1.81640E-04
  909.00      1.82410E-04
  911.00      1.82560E-04
  913.00      1.81840E-04
  915.00      1.81100E-04
  917.00      1.79540E-04
  919.00      1.77790E-04
  921.00      1.70800E-04
  923.00      1.56570E-04
  925.00      1.68930E-04
  927.00      1.74510E-04
  929.00      1.75210E-04
  931.00      1.74430E-04
  933.00      1.74050E-04
  935.00      1.73110E-04
  937.00      1.73220E-04
  939.00      1.72630E-04
  941.00      1.71660E-04
  943.00      1.71080E-04
  945.00      1.70250E-04
  947.00      1.68690E-04
  949.00      1.68100E-04
  951.00      1.65100E-04
  953.00      1.58290E-04
  955.00      1.45220E-04
  957.00      1.59710E-04
  959.00      1.64070E-04
  961.00      1.64000E-04
  963.00      1.63080E-04
  965.00      1.63970E-04
  967.00      1.63460E-04
  969.00      1.62730E-04
  971.00      1.59810E-04
  973.00      1.61190E-04
  975.00      1.60920E-04
  977.00      1.60270E-04
  979.00      1.59620E-04
  981.00      1.58800E-04
  983.00      1.58370E-04
  985.00      1.57630E-04
  987.00      1.57110E-04
  989.00      1.56090E-04
  991.00      1.55050E-04
  993.00      1.55310E-04
  995.00      1.54690E-04
  997.00      1.53730E-04
  999.00      1.52850E-04
  1002.5      1.45280E-04
  1007.5      1.41990E-04
  1012.5      1.47850E-04
  1017.5      1.48310E-04
  1022.5      1.46820E-04
  1027.5      1.45540E-04
  1032.5      1.43650E-04
  1037.5      1.42930E-04
  1042.5      1.41620E-04
  1047.5      1.40330E-04
  1052.5      1.38990E-04
  1057.5      1.37790E-04
  1062.5      1.36520E-04
  1067.5      1.35150E-04
  1072.5      1.34120E-04
  1077.5      1.32900E-04
  1082.5      1.30470E-04
  1087.5      1.29760E-04
  1092.5      1.18970E-04
  1097.5      1.24480E-04
  1102.5      1.26300E-04
  1107.5      1.25940E-04
  1112.5      1.24970E-04
  1117.5      1.23950E-04
  1122.5      1.22850E-04
  1127.5      1.21810E-04
  1132.5      1.20580E-04
  1137.5      1.19700E-04
  1142.5      1.18710E-04
  1147.5      1.17740E-04
  1152.5      1.16820E-04
  1157.5      1.15790E-04
  1162.5      1.14610E-04
  1167.5      1.13670E-04
  1172.5      1.13020E-04
  1177.5      1.12090E-04
  1182.5      1.11110E-04
  1187.5      1.10250E-04
  1192.5      1.09360E-04
  1197.5      1.07230E-04
  1202.5      1.07650E-04
  1207.5      1.06770E-04
  1212.5      1.05890E-04
  1217.5      1.05100E-04
  1222.5      1.04270E-04
  1227.5      1.03460E-04
  1232.5      1.02600E-04
  1237.5      1.01820E-04
  1242.5      1.01070E-04
  1247.5      1.00220E-04
  1252.5      9.92100E-05
  1257.5      9.86720E-05
  1262.5      9.79250E-05
  1267.5      9.72420E-05
  1272.5      9.63230E-05
  1277.5      9.37620E-05
  1282.5      8.71970E-05
  1287.5      9.33810E-05
  1292.5      9.35100E-05
  1297.5      9.22830E-05
  1302.5      9.21460E-05
  1307.5      9.15820E-05
  1312.5      9.09100E-05
  1317.5      9.02430E-05
  1322.5      8.95840E-05
  1327.5      8.89330E-05
  1332.5      8.82600E-05
  1337.5      8.75410E-05
  1342.5      8.69060E-05
  1347.5      8.63550E-05
  1352.5      8.56580E-05
  1357.5      8.51380E-05
  1362.5      8.43720E-05
  1367.5      8.39410E-05
  1372.5      8.32390E-05
  1377.5      8.27830E-05
  1382.5      8.22070E-05
  1387.5      8.16260E-05
  1392.5      8.09730E-05
  1397.5      8.04890E-05
