 Castelli and Kurucz 2004-2012 Atmosphere
 T     43000.     G    5.00000 [0.2a] VTURB=2  L/H=1.25 NOVER NEW ODF          
 Wavelength  Eddington Hnu
   (nm)    (ergs/s/cm2/Hz/sr)
  9.0900      4.68080E-23
  9.3500      1.58690E-22
  9.6100      4.95300E-22
  9.7700      9.95490E-22
  9.9600      2.17480E-21
  10.200      5.60580E-21
  10.380      1.11000E-20
  10.560      2.14850E-20
  10.770      4.51880E-20
  11.040      1.12860E-19
  11.400      3.58260E-19
  11.780      1.12430E-18
  12.130      3.05220E-18
  12.480      7.82440E-18
  12.710      1.41500E-17
  12.840      1.95930E-17
  13.050      3.26650E-17
  13.240      5.11370E-17
  13.390      7.26770E-17
  13.660      1.32470E-16
  13.980      2.68180E-16
  14.330      5.50480E-16
  14.720      1.15280E-15
  15.100      2.45350E-15
  15.520      5.21990E-15
  15.880      9.70740E-15
  16.200      1.68000E-14
  16.600      3.21910E-14
  17.030      6.10210E-14
  17.340      9.57140E-14
  17.680      1.58420E-13
  18.020      2.51930E-13
  18.170      3.07150E-13
  18.610      5.51360E-13
  19.100      1.00930E-12
  19.390      1.43880E-12
  19.840      2.42160E-12
  20.180      3.49130E-12
  20.500      4.94910E-12
  21.050      8.70300E-12
  21.620      1.49680E-11
  21.980      2.12560E-11
  22.300      2.82630E-11
  22.680      4.12630E-11
  23.000      1.12280E-08
  23.400      3.51200E-08
  24.000      4.80270E-08
  24.650      7.58720E-08
  25.240      1.74640E-07
  25.680      2.70190E-07
  26.000      3.22680E-07
  26.400      1.46210E-06
  26.850      2.15660E-06
  27.350      2.93570E-06
  27.850      1.75610E-06
  28.400      5.36130E-06
  29.000      9.59860E-06
  29.600      7.08360E-06
  30.100      8.60830E-06
  30.800      3.59300E-05
  31.800      8.04830E-06
  32.800      1.45890E-05
  33.800      1.39490E-05
  34.800      1.75240E-05
  35.700      4.49140E-05
  36.600      1.12610E-04
  37.500      1.78940E-04
  38.500      2.08100E-04
  39.500      3.74020E-04
  40.500      6.96880E-04
  41.400      6.45710E-04
  42.200      6.20230E-04
  43.000      5.84550E-04
  44.100      6.99870E-04
  45.100      7.79570E-04
  46.000      6.04060E-04
  47.000      7.24850E-04
  48.000      8.98800E-04
  49.000      5.90660E-04
  50.000      1.02270E-03
  50.600      7.49270E-04
  51.200      1.37410E-03
  52.000      1.28060E-03
  53.000      1.18970E-03
  54.000      1.04660E-03
  55.000      8.69640E-04
  56.000      1.23750E-03
  57.000      1.60080E-03
  58.000      1.60110E-03
  59.000      1.65120E-03
  60.000      1.23880E-03
  61.000      1.19280E-03
  62.000      1.67610E-03
  63.000      1.58100E-03
  64.000      1.86010E-03
  65.000      1.71370E-03
  65.800      1.37520E-03
  66.500      1.80810E-03
  67.500      1.99130E-03
  68.500      1.69730E-03
  69.500      2.00930E-03
  70.500      1.57050E-03
  71.600      2.10810E-03
  72.600      2.16930E-03
  73.500      2.20360E-03
  74.500      2.05980E-03
  75.500      2.04890E-03
  76.500      1.94130E-03
  77.500      2.12640E-03
  78.500      1.81070E-03
  79.500      2.11470E-03
  80.500      2.15720E-03
  81.500      2.19100E-03
  82.500      2.25870E-03
  83.500      1.88770E-03
  84.500      2.23040E-03
  85.500      2.12070E-03
  86.500      2.28850E-03
  87.500      2.32240E-03
  88.500      2.29990E-03
  89.500      2.30940E-03
  90.500      2.26180E-03
  91.500      1.72600E-03
  92.500      2.85410E-03
  93.500      3.83840E-03
  94.500      4.58710E-03
  95.500      5.42520E-03
  96.500      6.07890E-03
  97.500      4.31440E-03
  98.500      5.46730E-03
  99.500      4.88550E-03
  100.50      4.97100E-03
  101.50      5.25900E-03
  102.50      4.63990E-03
  103.50      5.52830E-03
  104.50      5.94660E-03
  105.50      5.84220E-03
  106.50      5.36900E-03
  107.50      5.68370E-03
  108.50      5.13180E-03
  109.50      5.63080E-03
  110.50      5.49020E-03
  111.50      5.49700E-03
  112.50      5.13610E-03
  113.50      5.49920E-03
  114.50      5.53210E-03
  115.50      5.12880E-03
  116.50      4.92900E-03
  117.50      4.32990E-03
  118.50      4.89330E-03
  119.50      4.63950E-03
  120.50      4.62350E-03
  121.50      3.83190E-03
  122.50      4.50980E-03
  123.50      4.58290E-03
  124.50      4.50920E-03
  125.50      4.64240E-03
  126.50      4.71230E-03
  127.50      4.82590E-03
  128.50      4.84040E-03
  129.50      4.80380E-03
  130.50      4.71200E-03
  131.50      4.78540E-03
  132.50      4.74350E-03
  133.50      4.70370E-03
  134.50      4.63800E-03
  135.50      4.55120E-03
  136.50      4.41220E-03
  137.50      4.26700E-03
  138.50      4.31690E-03
  139.50      4.05370E-03
  140.50      3.91570E-03
  141.50      4.40760E-03
  142.50      4.07870E-03
  143.50      4.31390E-03
  144.20      4.15560E-03
  144.70      4.18020E-03
  145.50      4.07150E-03
  146.50      4.08580E-03
  147.50      4.09980E-03
  148.50      4.16790E-03
  149.50      4.08770E-03
  150.50      4.09250E-03
  151.20      4.10130E-03
  151.70      4.04300E-03
  152.50      4.03260E-03
  153.50      3.72670E-03
  154.50      3.12970E-03
  155.50      3.23910E-03
  156.50      3.58330E-03
  157.50      3.70950E-03
  158.50      3.63640E-03
  159.50      3.73230E-03
  160.50      3.57950E-03
  161.50      3.49840E-03
  162.50      3.56500E-03
  163.50      3.56000E-03
  164.50      3.48050E-03
  165.50      3.62400E-03
  166.50      3.53780E-03
  167.20      3.40420E-03
  167.70      3.73150E-03
  168.50      3.67670E-03
  169.50      3.65310E-03
  170.50      3.58000E-03
  171.50      3.46480E-03
  172.50      3.41720E-03
  173.50      3.54410E-03
  174.50      3.54310E-03
  175.50      3.50030E-03
  176.50      3.45340E-03
  177.50      3.41200E-03
  178.50      3.46500E-03
  179.50      3.38730E-03
  180.50      3.37410E-03
  181.50      3.34880E-03
  182.50      3.31040E-03
  183.50      3.31700E-03
  184.50      3.31030E-03
  185.50      3.30030E-03
  186.50      3.30200E-03
  187.50      3.22540E-03
  188.50      3.19960E-03
  189.50      3.24390E-03
  190.50      3.22970E-03
  191.50      3.20460E-03
  192.50      3.07480E-03
  193.50      3.18550E-03
  194.50      3.17920E-03
  195.50      3.07510E-03
  196.70      3.10900E-03
  197.60      3.08360E-03
  198.40      3.09310E-03
  199.50      3.06460E-03
  200.50      3.06990E-03
  201.50      3.04870E-03
  202.50      3.03170E-03
  203.50      2.99640E-03
  204.50      2.95980E-03
  205.50      2.17910E-03
  206.50      2.09280E-03
  207.40      2.14480E-03
  207.80      2.19320E-03
  208.50      2.34010E-03
  209.50      2.62900E-03
  210.50      2.80230E-03
  211.50      2.85040E-03
  212.50      2.79720E-03
  213.50      2.81390E-03
  214.50      2.79370E-03
  215.50      2.79760E-03
  216.50      2.63860E-03
  217.50      2.79080E-03
  218.50      2.66360E-03
  219.50      2.77790E-03
  220.50      2.75490E-03
  221.50      2.60460E-03
  222.50      2.72260E-03
  223.50      2.70910E-03
  224.50      2.68460E-03
  225.50      2.55780E-03
  226.50      2.64700E-03
  227.50      2.65220E-03
  228.50      2.58170E-03
  229.50      2.52900E-03
  230.50      2.47430E-03
  231.50      2.52580E-03
  232.50      2.54690E-03
  233.50      2.54060E-03
  234.50      2.50770E-03
  235.50      2.47570E-03
  236.50      2.45220E-03
  237.50      2.41050E-03
  238.50      2.27660E-03
  239.50      2.36490E-03
  240.50      2.36960E-03
  241.50      2.35330E-03
  242.50      2.37150E-03
  243.50      2.34420E-03
  244.50      2.33400E-03
  245.50      2.30290E-03
  246.50      2.30720E-03
  247.50      2.31070E-03
  248.50      2.26680E-03
  249.50      1.90740E-03
  250.50      2.21840E-03
  251.30      2.05840E-03
  251.80      2.16300E-03
  252.50      2.20530E-03
  253.50      2.21770E-03
  254.50      2.20520E-03
  255.50      2.19040E-03
  256.50      2.17640E-03
  257.50      2.16610E-03
  258.50      2.15510E-03
  259.50      2.09650E-03
  260.50      2.12810E-03
  261.50      2.08630E-03
  262.50      2.10530E-03
  263.50      2.09860E-03
  264.50      2.06880E-03
  265.50      2.07350E-03
  266.50      2.05360E-03
  267.50      2.00700E-03
  268.50      2.01930E-03
  269.50      2.00890E-03
  270.50      2.01860E-03
  271.50      2.00000E-03
  272.50      1.98250E-03
  273.50      1.90530E-03
  274.50      1.97140E-03
  275.50      1.95120E-03
  276.50      1.94460E-03
  277.50      1.92990E-03
  278.50      1.89850E-03
  279.50      1.87610E-03
  280.50      1.89020E-03
  281.50      1.88340E-03
  282.50      1.86670E-03
  283.50      1.86370E-03
  284.50      1.86080E-03
  285.50      1.84770E-03
  286.50      1.82700E-03
  287.50      1.81690E-03
  288.50      1.81520E-03
  289.50      1.79770E-03
  291.00      1.78090E-03
  293.00      1.77140E-03
  295.00      1.75260E-03
  297.00      1.72670E-03
  299.00      1.69550E-03
  301.00      1.67560E-03
  303.00      1.64330E-03
  305.00      1.64130E-03
  307.00      1.61680E-03
  309.00      1.61210E-03
  311.00      1.60040E-03
  313.00      1.57940E-03
  315.00      1.57200E-03
  317.00      1.55280E-03
  319.00      1.54060E-03
  321.00      1.48930E-03
  323.00      1.50880E-03
  325.00      1.49690E-03
  327.00      1.46220E-03
  329.00      1.46020E-03
  331.00      1.44380E-03
  333.00      1.42570E-03
  335.00      1.39940E-03
  337.00      1.39570E-03
  339.00      1.38290E-03
  341.00      1.36900E-03
  343.00      1.36680E-03
  345.00      1.33770E-03
  347.00      1.33820E-03
  349.00      1.32850E-03
  351.00      1.31830E-03
  353.00      1.30090E-03
  355.00      1.28920E-03
  357.00      1.27840E-03
  359.00      1.26760E-03
  361.00      1.25330E-03
  363.00      1.24050E-03
  364.00      1.21120E-03
  365.00      1.09140E-03
  367.00      1.08380E-03
  369.00      1.07490E-03
  371.00      1.06340E-03
  373.00      1.07700E-03
  375.00      1.09060E-03
  377.00      1.10060E-03
  379.00      1.13310E-03
  381.00      1.15780E-03
  383.00      1.10010E-03
  385.00      1.16200E-03
  387.00      1.15090E-03
  389.00      1.05360E-03
  391.00      1.15650E-03
  393.00      1.13880E-03
  395.00      1.12200E-03
  397.00      1.00640E-03
  399.00      1.11640E-03
  401.00      1.10920E-03
  403.00      1.07850E-03
  405.00      1.09720E-03
  407.00      1.07510E-03
  409.00      1.02770E-03
  411.00      9.69680E-04
  413.00      1.05030E-03
  415.00      1.04660E-03
  417.00      1.04390E-03
  419.00      1.02700E-03
  421.00      1.00490E-03
  423.00      1.01940E-03
  425.00      1.00760E-03
  427.00      1.00000E-03
  429.00      9.90210E-04
  431.00      9.76320E-04
  433.00      9.30070E-04
  435.00      8.88950E-04
  437.00      9.54280E-04
  439.00      9.41700E-04
  441.00      9.34790E-04
  443.00      9.33760E-04
  445.00      9.24710E-04
  447.00      9.10630E-04
  449.00      9.12620E-04
  451.00      9.00290E-04
  453.00      8.93200E-04
  455.00      8.68310E-04
  457.00      8.83670E-04
  459.00      8.74930E-04
  461.00      8.69060E-04
  463.00      8.55250E-04
  465.00      8.29980E-04
  467.00      8.46030E-04
  469.00      8.13560E-04
  471.00      8.36280E-04
  473.00      8.37330E-04
  475.00      8.31050E-04
  477.00      8.24640E-04
  479.00      8.17730E-04
  481.00      8.11490E-04
  483.00      8.03520E-04
  485.00      7.72990E-04
  487.00      7.24230E-04
  489.00      7.83440E-04
  491.00      7.80260E-04
  493.00      7.71720E-04
  495.00      7.69380E-04
  497.00      7.65900E-04
  499.00      7.60680E-04
  501.00      7.49810E-04
  503.00      7.46800E-04
  505.00      7.42340E-04
  507.00      7.38810E-04
  509.00      7.33700E-04
  511.00      7.28430E-04
  513.00      7.23050E-04
  515.00      7.18010E-04
  517.00      7.12880E-04
  519.00      7.08010E-04
  521.00      7.03040E-04
  523.00      6.98540E-04
  525.00      6.92260E-04
  527.00      6.86450E-04
  529.00      6.84200E-04
  531.00      6.79260E-04
  533.00      6.74650E-04
  535.00      6.70330E-04
  537.00      6.65650E-04
  539.00      6.61060E-04
  541.00      6.39830E-04
  543.00      6.51980E-04
  545.00      6.48060E-04
  547.00      6.43510E-04
  549.00      6.39410E-04
  551.00      6.33860E-04
  553.00      6.30970E-04
  555.00      6.26920E-04
  557.00      6.22270E-04
  559.00      6.15580E-04
  561.00      6.14710E-04
  563.00      6.10680E-04
  565.00      6.06700E-04
  567.00      6.02730E-04
  569.00      5.88480E-04
  571.00      5.50530E-04
  573.00      5.47320E-04
  575.00      5.43970E-04
  577.00      5.41060E-04
  579.00      5.38070E-04
  581.00      5.32310E-04
  583.00      5.32770E-04
  585.00      5.32020E-04
  587.00      5.26200E-04
  589.00      5.30470E-04
  591.00      5.30490E-04
  593.00      5.30790E-04
  595.00      5.31610E-04
  597.00      5.32730E-04
  599.00      5.34320E-04
  601.00      5.34470E-04
  603.00      5.34200E-04
  605.00      5.33920E-04
  607.00      5.30930E-04
  609.00      5.28320E-04
  611.00      5.25080E-04
  613.00      5.22300E-04
  615.00      5.19520E-04
  617.00      5.15210E-04
  619.00      5.13800E-04
  621.00      5.11150E-04
  623.00      5.06020E-04
  625.00      5.04210E-04
  627.00      5.02170E-04
  629.00      4.99030E-04
  631.00      4.93270E-04
  633.00      4.92910E-04
  635.00      4.90310E-04
  637.00      4.87750E-04
  639.00      4.84290E-04
  641.00      4.78330E-04
  643.00      4.79200E-04
  645.00      4.76190E-04
  647.00      4.73350E-04
  649.00      4.70770E-04
  651.00      4.66390E-04
  653.00      4.59780E-04
  655.00      4.53270E-04
  657.00      4.20450E-04
  659.00      4.55660E-04
  661.00      4.55230E-04
  663.00      4.52890E-04
  665.00      4.50290E-04
  667.00      4.43690E-04
  669.00      4.37310E-04
  671.00      4.41330E-04
  673.00      4.39720E-04
  675.00      4.37420E-04
  677.00      4.35390E-04
  679.00      4.33230E-04
  681.00      4.30880E-04
  683.00      4.28520E-04
  685.00      4.26070E-04
  687.00      4.23500E-04
  689.00      4.14300E-04
  691.00      4.18400E-04
  693.00      4.17080E-04
  695.00      4.14810E-04
  697.00      4.12620E-04
  699.00      4.10300E-04
  701.00      4.07610E-04
  703.00      4.05190E-04
  705.00      4.03040E-04
  707.00      3.98980E-04
  709.00      3.99640E-04
  711.00      3.97350E-04
  713.00      3.95290E-04
  715.00      3.93420E-04
  717.00      3.86430E-04
  719.00      3.86000E-04
  721.00      3.87310E-04
  723.00      3.85230E-04
  725.00      3.83270E-04
  727.00      3.81350E-04
  729.00      3.78550E-04
  731.00      3.76810E-04
  733.00      3.75520E-04
  735.00      3.73600E-04
  737.00      3.71340E-04
  739.00      3.69720E-04
  741.00      3.67560E-04
  743.00      3.66100E-04
  745.00      3.63560E-04
  747.00      3.62260E-04
  749.00      3.59550E-04
  751.00      3.58430E-04
  753.00      3.56950E-04
  755.00      3.55080E-04
  757.00      3.53200E-04
  759.00      3.44200E-04
  761.00      3.48750E-04
  763.00      3.48010E-04
  765.00      3.46270E-04
  767.00      3.44680E-04
  769.00      3.41890E-04
  771.00      3.40850E-04
  773.00      3.38300E-04
  775.00      3.37810E-04
  777.00      3.36570E-04
  779.00      3.34760E-04
  781.00      3.33290E-04
  783.00      3.31630E-04
  785.00      3.28970E-04
  787.00      3.27910E-04
  789.00      3.26700E-04
  791.00      3.25420E-04
  793.00      3.23950E-04
  795.00      3.22420E-04
  797.00      3.20170E-04
  799.00      3.19300E-04
  801.00      3.17850E-04
  803.00      3.16120E-04
  805.00      3.14920E-04
  807.00      3.13430E-04
  809.00      3.11980E-04
  811.00      3.10440E-04
  813.00      3.09090E-04
  815.00      3.07640E-04
  817.00      3.05690E-04
  819.00      3.03230E-04
  821.00      2.89420E-04
  823.00      2.85770E-04
  825.00      2.86250E-04
  827.00      2.85560E-04
  829.00      2.84490E-04
  831.00      2.83350E-04
  833.00      2.81420E-04
  835.00      2.80490E-04
  837.00      2.79570E-04
  839.00      2.78610E-04
  841.00      2.77500E-04
  843.00      2.76460E-04
  845.00      2.75260E-04
  847.00      2.74420E-04
  849.00      2.73550E-04
  851.00      2.72250E-04
  853.00      2.71890E-04
  855.00      2.70920E-04
  857.00      2.70250E-04
  859.00      2.69100E-04
  861.00      2.68620E-04
  863.00      2.68680E-04
  865.00      2.67420E-04
  867.00      2.65000E-04
  869.00      2.66790E-04
  871.00      2.66670E-04
  873.00      2.65250E-04
  875.00      2.60820E-04
  877.00      2.63360E-04
  879.00      2.64780E-04
  881.00      2.64650E-04
  883.00      2.63630E-04
  885.00      2.58790E-04
  887.00      2.53270E-04
  889.00      2.60020E-04
  891.00      2.60860E-04
  893.00      2.60110E-04
  895.00      2.59360E-04
  897.00      2.58240E-04
  899.00      2.55030E-04
  901.00      2.43840E-04
  903.00      2.47330E-04
  905.00      2.52980E-04
  907.00      2.52730E-04
  909.00      2.52260E-04
  911.00      2.51320E-04
  913.00      2.50670E-04
  915.00      2.49900E-04
  917.00      2.48030E-04
  919.00      2.46440E-04
  921.00      2.41390E-04
  923.00      2.27760E-04
  925.00      2.38660E-04
  927.00      2.42180E-04
  929.00      2.42040E-04
  931.00      2.41370E-04
  933.00      2.40040E-04
  935.00      2.32970E-04
  937.00      2.37530E-04
  939.00      2.37480E-04
  941.00      2.36500E-04
  943.00      2.35760E-04
  945.00      2.34870E-04
  947.00      2.33670E-04
  949.00      2.32430E-04
  951.00      2.30130E-04
  953.00      2.24590E-04
  955.00      2.11110E-04
  957.00      2.24570E-04
  959.00      2.27250E-04
  961.00      2.27070E-04
  963.00      2.26110E-04
  965.00      2.25760E-04
  967.00      2.24960E-04
  969.00      2.24060E-04
  971.00      2.20960E-04
  973.00      2.21870E-04
  975.00      2.20960E-04
  977.00      2.19190E-04
  979.00      2.19650E-04
  981.00      2.18800E-04
  983.00      2.17750E-04
  985.00      2.17110E-04
  987.00      2.16310E-04
  989.00      2.15390E-04
  991.00      2.14460E-04
  993.00      2.13790E-04
  995.00      2.12990E-04
  997.00      2.12130E-04
  999.00      2.10940E-04
  1002.5      2.04350E-04
  1007.5      2.00270E-04
  1012.5      2.01400E-04
  1017.5      2.04000E-04
  1022.5      2.02060E-04
  1027.5      2.00020E-04
  1032.5      1.97940E-04
  1037.5      1.96500E-04
  1042.5      1.93600E-04
  1047.5      1.92960E-04
  1052.5      1.91170E-04
  1057.5      1.89450E-04
  1062.5      1.87740E-04
  1067.5      1.86020E-04
  1072.5      1.84400E-04
  1077.5      1.82740E-04
  1082.5      1.80290E-04
  1087.5      1.79070E-04
  1092.5      1.68800E-04
  1097.5      1.73670E-04
  1102.5      1.74600E-04
  1107.5      1.73320E-04
  1112.5      1.71820E-04
  1117.5      1.70460E-04
  1122.5      1.68940E-04
  1127.5      1.67480E-04
  1132.5      1.66020E-04
  1137.5      1.64660E-04
  1142.5      1.63310E-04
  1147.5      1.61940E-04
  1152.5      1.60610E-04
  1157.5      1.59190E-04
  1162.5      1.55700E-04
  1167.5      1.55020E-04
  1172.5      1.55320E-04
  1177.5      1.54080E-04
  1182.5      1.52680E-04
  1187.5      1.51520E-04
  1192.5      1.50300E-04
  1197.5      1.48530E-04
  1202.5      1.47940E-04
  1207.5      1.46700E-04
  1212.5      1.45470E-04
  1217.5      1.44420E-04
  1222.5      1.43280E-04
  1227.5      1.42160E-04
  1232.5      1.41020E-04
  1237.5      1.39930E-04
  1242.5      1.38850E-04
  1247.5      1.37770E-04
  1252.5      1.36640E-04
  1257.5      1.35630E-04
  1262.5      1.34610E-04
  1267.5      1.33580E-04
  1272.5      1.32530E-04
  1277.5      1.30220E-04
  1282.5      1.23200E-04
  1287.5      1.29000E-04
  1292.5      1.28610E-04
  1297.5      1.27480E-04
  1302.5      1.26670E-04
  1307.5      1.25760E-04
  1312.5      1.24830E-04
  1317.5      1.23900E-04
  1322.5      1.23000E-04
  1327.5      1.22100E-04
  1332.5      1.21210E-04
  1337.5      1.20320E-04
  1342.5      1.19440E-04
  1347.5      1.18590E-04
  1352.5      1.17730E-04
  1357.5      1.16900E-04
  1362.5      1.16060E-04
  1367.5      1.15240E-04
  1372.5      1.14380E-04
  1377.5      1.13610E-04
  1382.5      1.12820E-04
  1387.5      1.12020E-04
  1392.5      1.11230E-04
  1397.5      1.10470E-04
