 TLUSTY Ostars, Lanz & Hubeny 2003
 T 40000. G 4.75000 M30 TLUSTY
 Frequency   Eddington Hnu
   (Hz)    (ergs/s/cm2/Hz/sr)
 6.67944E+16  4.06565E-37
 6.67573E+16  4.21037E-37
 6.67202E+16  4.41151E-37
 6.66831E+16  4.62227E-37
 6.66461E+16  4.84309E-37
 6.66091E+16  5.07446E-37
 6.65721E+16  5.31688E-37
 6.65351E+16  5.57088E-37
 6.64982E+16  5.83702E-37
 6.64612E+16  6.11587E-37
 6.64243E+16  6.40805E-37
 6.63874E+16  6.71418E-37
 6.63506E+16  7.03494E-37
 6.63137E+16  7.37102E-37
 6.62769E+16  7.72316E-37
 6.62401E+16  8.09212E-37
 6.62033E+16  8.47870E-37
 6.61665E+16  8.88376E-37
 6.61298E+16  9.30816E-37
 6.60930E+16  9.75284E-37
 6.60563E+16  1.02188E-36
 6.60196E+16  1.07070E-36
 6.59830E+16  1.12185E-36
 6.59463E+16  1.17544E-36
 6.59097E+16  1.23159E-36
 6.58731E+16  1.29043E-36
 6.58365E+16  1.35208E-36
 6.57999E+16  1.41667E-36
 6.57634E+16  1.48435E-36
 6.57269E+16  1.55526E-36
 6.56904E+16  1.62956E-36
 6.56539E+16  1.70741E-36
 6.56174E+16  1.78898E-36
 6.55810E+16  1.87445E-36
 6.55445E+16  1.96399E-36
 6.55081E+16  2.05782E-36
 6.54718E+16  2.15613E-36
 6.54354E+16  2.25913E-36
 6.53991E+16  2.36706E-36
 6.53627E+16  2.48014E-36
 6.53264E+16  2.59863E-36
 6.52901E+16  2.72277E-36
 6.52539E+16  2.85285E-36
 6.52176E+16  2.98914E-36
 6.51814E+16  3.13194E-36
 6.51452E+16  3.28156E-36
 6.51090E+16  3.43833E-36
 6.50729E+16  3.60259E-36
 6.50367E+16  3.77470E-36
 6.50006E+16  3.95503E-36
 6.49645E+16  4.14397E-36
 6.49284E+16  4.34194E-36
 6.48924E+16  4.54937E-36
 6.48563E+16  4.76671E-36
 6.48203E+16  4.99443E-36
 6.47843E+16  5.23303E-36
 6.47483E+16  5.48302E-36
 6.47124E+16  5.74497E-36
 6.46764E+16  6.01942E-36
 6.46405E+16  6.30699E-36
 6.46046E+16  6.60829E-36
 6.45687E+16  6.92399E-36
 6.45329E+16  7.25477E-36
 6.44970E+16  7.60136E-36
 6.44612E+16  7.96450E-36
 6.44254E+16  8.34499E-36
 6.43896E+16  8.74365E-36
 6.43539E+16  9.16136E-36
 6.43181E+16  9.59903E-36
 6.42824E+16  1.00540E-35
 6.42467E+16  1.05153E-35
 6.42110E+16  1.09979E-35
 6.41753E+16  1.15026E-35
 6.41397E+16  1.20304E-35
 6.41041E+16  1.25825E-35
 6.40685E+16  1.31599E-35
 6.40329E+16  1.37638E-35
 6.39973E+16  1.43954E-35
 6.39618E+16  1.50560E-35
 6.39263E+16  1.57469E-35
 6.38908E+16  1.64695E-35
 6.38553E+16  1.72253E-35
 6.38198E+16  1.80158E-35
 6.37844E+16  1.88425E-35
 6.37489E+16  1.97072E-35
 6.37135E+16  2.06116E-35
 6.36781E+16  2.15574E-35
 6.36428E+16  2.25467E-35
 6.36074E+16  2.35813E-35
 6.35721E+16  2.46635E-35
 6.35368E+16  2.57953E-35
 6.35015E+16  2.69790E-35
 6.34662E+16  2.82171E-35
 6.34310E+16  2.95119E-35
 6.33958E+16  3.08662E-35
 6.33605E+16  3.22827E-35
 6.33254E+16  3.37641E-35
 6.32902E+16  3.53135E-35
 6.32550E+16  3.69340E-35
 6.32199E+16  3.86289E-35
 6.31848E+16  4.04016E-35
 6.31497E+16  4.22556E-35
 6.31146E+16  4.41947E-35
 6.30796E+16  4.62228E-35
 6.30445E+16  4.83439E-35
 6.30095E+16  5.05624E-35
 6.29745E+16  5.28827E-35
 6.29395E+16  5.53095E-35
 6.29046E+16  5.78476E-35
 6.28697E+16  6.05022E-35
 6.28347E+16  6.32786E-35
 6.27998E+16  6.61824E-35
 6.27650E+16  6.92195E-35
 6.27301E+16  7.23960E-35
 6.26953E+16  7.57182E-35
 6.26604E+16  7.91929E-35
 6.26256E+16  8.28270E-35
 6.25909E+16  8.66279E-35
 6.25561E+16  9.06032E-35
 6.25213E+16  9.47610E-35
 6.24866E+16  9.91095E-35
 6.24519E+16  1.03658E-34
 6.24172E+16  1.08414E-34
 6.23826E+16  1.13390E-34
 6.23479E+16  1.18593E-34
 6.23133E+16  1.24035E-34
 6.22787E+16  1.29727E-34
 6.22441E+16  1.35680E-34
 6.22095E+16  1.41906E-34
 6.21750E+16  1.48419E-34
 6.21404E+16  1.55229E-34
 6.21059E+16  1.62353E-34
 6.20714E+16  1.69803E-34
 6.20370E+16  1.77595E-34
 6.20025E+16  1.85745E-34
 6.19681E+16  1.94269E-34
 6.19337E+16  2.03184E-34
 6.18993E+16  2.12508E-34
 6.18649E+16  2.22260E-34
 6.18305E+16  2.32459E-34
 6.17962E+16  2.43140E-34
 6.17619E+16  2.53977E-34
 6.17276E+16  2.65153E-34
 6.16933E+16  2.76820E-34
 6.16590E+16  2.89001E-34
 6.16248E+16  3.01718E-34
 6.15905E+16  3.14994E-34
 6.15563E+16  3.28855E-34
 6.15221E+16  3.43326E-34
 6.14880E+16  3.58433E-34
 6.14538E+16  3.74205E-34
 6.14197E+16  3.90672E-34
 6.13856E+16  4.07862E-34
 6.13515E+16  4.25809E-34
 6.13174E+16  4.44546E-34
 6.12834E+16  4.64108E-34
 6.12493E+16  4.84530E-34
 6.12153E+16  5.05851E-34
 6.11813E+16  5.28110E-34
 6.11473E+16  5.51348E-34
 6.11134E+16  5.75609E-34
 6.10794E+16  6.00938E-34
 6.10455E+16  6.27381E-34
 6.10116E+16  6.54987E-34
 6.09777E+16  6.83809E-34
 6.09438E+16  7.13899E-34
 6.09100E+16  7.45312E-34
 6.08762E+16  7.78108E-34
 6.08423E+16  8.12347E-34
 6.08086E+16  8.48093E-34
 6.07748E+16  8.85412E-34
 6.07410E+16  9.24373E-34
 6.07073E+16  9.65048E-34
 6.06736E+16  1.00751E-33
 6.06399E+16  1.05185E-33
 6.06062E+16  1.09813E-33
 6.05725E+16  1.14645E-33
 6.05389E+16  1.19690E-33
 6.05053E+16  1.24957E-33
 6.04717E+16  1.30455E-33
 6.04381E+16  1.36196E-33
 6.04045E+16  1.42189E-33
 6.03710E+16  1.48445E-33
 6.03374E+16  1.54977E-33
 6.03039E+16  1.61797E-33
 6.02704E+16  1.68916E-33
 6.02370E+16  1.76349E-33
 6.02035E+16  1.84109E-33
 6.01701E+16  1.92211E-33
 6.01366E+16  2.00668E-33
 6.01032E+16  2.09498E-33
 6.00699E+16  2.18717E-33
 6.00365E+16  2.28341E-33
 6.00032E+16  2.38389E-33
 5.99698E+16  2.48879E-33
 5.99365E+16  2.59830E-33
 5.99032E+16  2.71264E-33
 5.98700E+16  2.83200E-33
 5.98367E+16  2.95662E-33
 5.98035E+16  3.08672E-33
 5.97703E+16  3.22254E-33
 5.97371E+16  3.36434E-33
 5.97039E+16  3.51238E-33
 5.96707E+16  3.66694E-33
 5.96376E+16  3.82830E-33
 5.96045E+16  3.99675E-33
 5.95714E+16  4.17262E-33
 5.95383E+16  4.35623E-33
 5.95052E+16  4.54792E-33
 5.94722E+16  4.74804E-33
 5.94391E+16  4.95697E-33
 5.94061E+16  5.17509E-33
 5.93731E+16  5.40281E-33
 5.93402E+16  5.64055E-33
 5.93072E+16  5.88875E-33
 5.92743E+16  6.14577E-33
 5.92413E+16  6.40475E-33
 5.92084E+16  6.67446E-33
 5.91755E+16  6.95554E-33
 5.91427E+16  7.24845E-33
 5.91098E+16  7.55370E-33
 5.90770E+16  7.87180E-33
 5.90442E+16  8.20330E-33
 5.90114E+16  8.54876E-33
 5.89786E+16  8.90876E-33
 5.89459E+16  9.28393E-33
 5.89131E+16  9.67489E-33
 5.88804E+16  1.00823E-32
 5.88477E+16  1.05069E-32
 5.88150E+16  1.09494E-32
 5.87824E+16  1.14105E-32
 5.87497E+16  1.18910E-32
 5.87171E+16  1.23918E-32
 5.86845E+16  1.29136E-32
 5.86519E+16  1.34574E-32
 5.86193E+16  1.40241E-32
 5.85867E+16  1.46147E-32
 5.85542E+16  1.52302E-32
 5.85217E+16  1.58716E-32
 5.84892E+16  1.65399E-32
 5.84567E+16  1.72365E-32
 5.84242E+16  1.79623E-32
 5.83918E+16  1.87188E-32
 5.83594E+16  1.95071E-32
 5.83269E+16  2.03285E-32
 5.82945E+16  2.11846E-32
 5.82622E+16  2.20767E-32
 5.82298E+16  2.30064E-32
 5.81975E+16  2.39753E-32
 5.81651E+16  2.49849E-32
 5.81328E+16  2.60371E-32
 5.81006E+16  2.71336E-32
 5.80683E+16  2.82762E-32
 5.80360E+16  2.94670E-32
 5.80038E+16  3.07079E-32
 5.79716E+16  3.20011E-32
 5.79394E+16  3.33487E-32
 5.79072E+16  3.47531E-32
 5.78750E+16  3.62166E-32
 5.78429E+16  3.77418E-32
 5.78108E+16  3.93312E-32
 5.77787E+16  4.09875E-32
 5.77466E+16  4.27136E-32
 5.77145E+16  4.45123E-32
 5.76825E+16  4.63868E-32
 5.76504E+16  4.83403E-32
 5.76184E+16  5.03760E-32
 5.75864E+16  5.24974E-32
 5.75544E+16  5.47082E-32
 5.75224E+16  5.70121E-32
 5.74905E+16  5.94130E-32
 5.74586E+16  6.19150E-32
 5.74267E+16  6.45223E-32
 5.73948E+16  6.72395E-32
 5.73629E+16  7.00711E-32
 5.73310E+16  7.30220E-32
 5.72992E+16  7.60971E-32
 5.72674E+16  7.93017E-32
 5.72356E+16  8.26412E-32
 5.72038E+16  8.61214E-32
 5.71720E+16  8.97482E-32
 5.71402E+16  9.35277E-32
 5.71085E+16  9.74663E-32
 5.70768E+16  1.01571E-31
 5.70451E+16  1.05848E-31
 5.70134E+16  1.10306E-31
 5.69817E+16  1.14951E-31
 5.69501E+16  1.19792E-31
 5.69185E+16  1.24836E-31
 5.68869E+16  1.30093E-31
 5.68553E+16  1.35572E-31
 5.68237E+16  1.41281E-31
 5.67921E+16  1.47231E-31
 5.67606E+16  1.53311E-31
 5.67291E+16  1.59467E-31
 5.66975E+16  1.65880E-31
 5.66661E+16  1.72551E-31
 5.66346E+16  1.79490E-31
 5.66031E+16  1.86709E-31
 5.65717E+16  1.94218E-31
 5.65403E+16  2.02029E-31
 5.65089E+16  2.10153E-31
 5.64775E+16  2.18605E-31
 5.64461E+16  2.27397E-31
 5.64148E+16  2.36542E-31
 5.63834E+16  2.46055E-31
 5.63521E+16  2.55950E-31
 5.63208E+16  2.66244E-31
 5.62895E+16  2.76951E-31
 5.62583E+16  2.88089E-31
 5.62270E+16  2.99675E-31
 5.61958E+16  3.11727E-31
 5.61646E+16  3.24264E-31
 5.61334E+16  3.37305E-31
 5.61022E+16  3.50870E-31
 5.60711E+16  3.64981E-31
 5.60399E+16  3.79659E-31
 5.60088E+16  3.94928E-31
 5.59777E+16  4.10810E-31
 5.59466E+16  4.27332E-31
 5.59155E+16  4.44518E-31
 5.58845E+16  4.62395E-31
 5.58534E+16  4.80991E-31
 5.58224E+16  5.00335E-31
 5.57914E+16  5.20456E-31
 5.57604E+16  5.41387E-31
 5.57295E+16  5.63160E-31
 5.56985E+16  5.85809E-31
 5.56676E+16  6.09368E-31
 5.56367E+16  6.33875E-31
 5.56058E+16  6.59367E-31
 5.55749E+16  6.85885E-31
 5.55440E+16  7.13469E-31
 5.55132E+16  7.42162E-31
 5.54823E+16  7.72009E-31
 5.54515E+16  8.03057E-31
 5.54207E+16  8.35353E-31
 5.53899E+16  8.68948E-31
 5.53592E+16  9.03895E-31
 5.53284E+16  9.40246E-31
 5.52977E+16  9.78060E-31
 5.52670E+16  1.01739E-30
 5.52363E+16  1.05831E-30
 5.52056E+16  1.10087E-30
 5.51749E+16  1.14515E-30
 5.51443E+16  1.19120E-30
 5.51137E+16  1.23911E-30
 5.50831E+16  1.28894E-30
 5.50525E+16  1.34077E-30
 5.50219E+16  1.39470E-30
 5.49913E+16  1.45079E-30
 5.49608E+16  1.50913E-30
 5.49303E+16  1.56982E-30
 5.48998E+16  1.63296E-30
 5.48693E+16  1.69863E-30
 5.48388E+16  1.76694E-30
 5.48083E+16  1.83800E-30
 5.47779E+16  1.91192E-30
 5.47475E+16  1.98881E-30
 5.47171E+16  2.06880E-30
 5.46867E+16  2.15200E-30
 5.46563E+16  2.23854E-30
 5.46259E+16  2.32857E-30
 5.45956E+16  2.42222E-30
 5.45653E+16  2.51963E-30
 5.45350E+16  2.62096E-30
 5.45047E+16  2.72637E-30
 5.44744E+16  2.83601E-30
 5.44442E+16  2.95007E-30
 5.44139E+16  3.06871E-30
 5.43837E+16  3.19212E-30
 5.43535E+16  3.32050E-30
 5.43233E+16  3.45404E-30
 5.42931E+16  3.59295E-30
 5.42630E+16  3.73576E-30
 5.42328E+16  3.87889E-30
 5.42027E+16  4.02751E-30
 5.41726E+16  4.18182E-30
 5.41425E+16  4.34205E-30
 5.41125E+16  4.50841E-30
 5.40824E+16  4.68115E-30
 5.40524E+16  4.86051E-30
 5.40224E+16  5.04673E-30
 5.39923E+16  5.24010E-30
 5.39624E+16  5.44087E-30
 5.39324E+16  5.64934E-30
 5.39024E+16  5.86579E-30
 5.38725E+16  6.09053E-30
 5.38426E+16  6.32389E-30
 5.38127E+16  6.56619E-30
 5.37828E+16  6.81777E-30
 5.37529E+16  7.07899E-30
 5.37231E+16  7.35022E-30
 5.36932E+16  7.63184E-30
 5.36634E+16  7.92425E-30
 5.36336E+16  8.22787E-30
 5.36038E+16  8.54311E-30
 5.35740E+16  8.87044E-30
 5.35443E+16  9.21031E-30
 5.35145E+16  9.56320E-30
 5.34848E+16  9.92961E-30
 5.34551E+16  1.03101E-29
 5.34254E+16  1.07051E-29
 5.33958E+16  1.11152E-29
 5.33661E+16  1.15411E-29
 5.33365E+16  1.19833E-29
 5.33068E+16  1.24425E-29
 5.32772E+16  1.29192E-29
 5.32476E+16  1.34142E-29
 5.32181E+16  1.39281E-29
 5.31885E+16  1.44618E-29
 5.31590E+16  1.50159E-29
 5.31294E+16  1.55912E-29
 5.30999E+16  1.61886E-29
 5.30704E+16  1.68088E-29
 5.30410E+16  1.74529E-29
 5.30115E+16  1.81216E-29
 5.29821E+16  1.88159E-29
 5.29526E+16  1.95368E-29
 5.29232E+16  2.02854E-29
 5.28938E+16  2.10626E-29
 5.28645E+16  2.18696E-29
 5.28351E+16  2.27075E-29
 5.28058E+16  2.35776E-29
 5.27764E+16  2.44809E-29
 5.27471E+16  2.54189E-29
 5.27178E+16  2.63928E-29
 5.26885E+16  2.74040E-29
 5.26593E+16  2.84540E-29
 5.26300E+16  2.95442E-29
 5.26008E+16  3.06762E-29
 5.25716E+16  3.18516E-29
 5.25424E+16  3.30719E-29
 5.25132E+16  3.43391E-29
 5.24840E+16  3.56548E-29
 5.24549E+16  3.70209E-29
 5.24258E+16  3.84393E-29
 5.23966E+16  3.99121E-29
 5.23675E+16  4.14413E-29
 5.23385E+16  4.30291E-29
 5.23094E+16  4.46778E-29
 5.22803E+16  4.63896E-29
 5.22513E+16  4.81670E-29
 5.22223E+16  5.00125E-29
 5.21933E+16  5.19287E-29
 5.21643E+16  5.39183E-29
 5.21353E+16  5.59842E-29
 5.21064E+16  5.81292E-29
 5.20774E+16  6.03564E-29
 5.20485E+16  6.26689E-29
 5.20196E+16  6.50701E-29
 5.19907E+16  6.75632E-29
 5.19618E+16  7.01519E-29
 5.19330E+16  7.28397E-29
 5.19041E+16  7.56305E-29
 5.18753E+16  7.85283E-29
 5.18465E+16  8.15371E-29
 5.18177E+16  8.46612E-29
 5.17889E+16  8.79049E-29
 5.17601E+16  9.12376E-29
 5.17314E+16  9.45622E-29
 5.17027E+16  9.80046E-29
 5.16739E+16  1.01572E-28
 5.16452E+16  1.05270E-28
 5.16166E+16  1.09102E-28
 5.15879E+16  1.13074E-28
 5.15592E+16  1.17190E-28
 5.15306E+16  1.21456E-28
 5.15020E+16  1.25877E-28
 5.14734E+16  1.30460E-28
 5.14448E+16  1.35209E-28
 5.14162E+16  1.40131E-28
 5.13877E+16  1.45232E-28
 5.13591E+16  1.50519E-28
 5.13306E+16  1.55999E-28
 5.13021E+16  1.61677E-28
 5.12736E+16  1.67563E-28
 5.12451E+16  1.73663E-28
 5.12167E+16  1.79985E-28
 5.11882E+16  1.86537E-28
 5.11598E+16  1.93327E-28
 5.11314E+16  2.00365E-28
 5.11030E+16  2.07659E-28
 5.10746E+16  2.15219E-28
 5.10462E+16  2.23053E-28
 5.10179E+16  2.31173E-28
 5.09895E+16  2.39589E-28
 5.09612E+16  2.48310E-28
 5.09329E+16  2.57350E-28
 5.09046E+16  2.66718E-28
 5.08764E+16  2.76428E-28
 5.08481E+16  2.86490E-28
 5.08199E+16  2.96920E-28
 5.07916E+16  3.07729E-28
 5.07634E+16  3.18931E-28
 5.07352E+16  3.30541E-28
 5.07071E+16  3.42574E-28
 5.06789E+16  3.55045E-28
 5.06507E+16  3.67969E-28
 5.06226E+16  3.81365E-28
 5.05945E+16  3.95248E-28
 5.05664E+16  4.09636E-28
 5.05383E+16  4.24548E-28
 5.05102E+16  4.40003E-28
 5.04822E+16  4.56021E-28
 5.04542E+16  4.72621E-28
 5.04261E+16  4.89826E-28
 5.03981E+16  5.07658E-28
 5.03701E+16  5.26138E-28
 5.03422E+16  5.45291E-28
 5.03142E+16  5.65142E-28
 5.02863E+16  5.85715E-28
 5.02583E+16  6.07037E-28
 5.02304E+16  6.29135E-28
 5.02025E+16  6.52037E-28
 5.01746E+16  6.75774E-28
 5.01468E+16  7.00374E-28
 5.01189E+16  7.25870E-28
 5.00911E+16  7.52294E-28
 5.00633E+16  7.79680E-28
 5.00354E+16  8.08063E-28
 5.00077E+16  8.37479E-28
 4.99799E+16  8.67966E-28
 4.99521E+16  8.99563E-28
 4.99244E+16  9.32310E-28
 4.98967E+16  9.66249E-28
 4.98689E+16  1.00142E-27
 4.98412E+16  1.03788E-27
 4.98136E+16  1.07566E-27
 4.97859E+16  1.11482E-27
 4.97582E+16  1.15540E-27
 4.97306E+16  1.19746E-27
 4.97030E+16  1.24105E-27
 4.96754E+16  1.28623E-27
 4.96478E+16  1.33306E-27
 4.96202E+16  1.38158E-27
 4.95927E+16  1.43188E-27
 4.95651E+16  1.48400E-27
 4.95376E+16  1.53802E-27
 4.95101E+16  1.59401E-27
 4.94826E+16  1.65204E-27
 4.94551E+16  1.71218E-27
 4.94276E+16  1.77451E-27
 4.94002E+16  1.83911E-27
 4.93727E+16  1.90606E-27
 4.93453E+16  1.97544E-27
 4.93179E+16  2.04736E-27
 4.92905E+16  2.12189E-27
 4.92631E+16  2.19889E-27
 4.92358E+16  2.27531E-27
 4.92084E+16  2.35377E-27
 4.91811E+16  2.43493E-27
 4.91538E+16  2.51888E-27
 4.91265E+16  2.60574E-27
 4.90992E+16  2.69558E-27
 4.90719E+16  2.78853E-27
 4.90447E+16  2.88468E-27
 4.90174E+16  2.98415E-27
 4.89902E+16  3.08704E-27
 4.89630E+16  3.19348E-27
 4.89358E+16  3.30360E-27
 4.89086E+16  3.41751E-27
 4.88815E+16  3.53535E-27
 4.88543E+16  3.65725E-27
 4.88272E+16  3.78335E-27
 4.88001E+16  3.91380E-27
 4.87730E+16  4.04875E-27
 4.87459E+16  4.18836E-27
 4.87188E+16  4.33278E-27
 4.86918E+16  4.48217E-27
 4.86647E+16  4.63672E-27
 4.86377E+16  4.79660E-27
 4.86107E+16  4.96199E-27
 4.85837E+16  5.13308E-27
 4.85567E+16  5.31007E-27
 4.85297E+16  5.49317E-27
 4.85028E+16  5.68258E-27
 4.84758E+16  5.87852E-27
 4.84489E+16  6.08121E-27
 4.84220E+16  6.29089E-27
 4.83951E+16  6.50781E-27
 4.83682E+16  6.73220E-27
 4.83414E+16  6.96433E-27
 4.83145E+16  7.20447E-27
 4.82877E+16  7.45288E-27
 4.82609E+16  7.70986E-27
 4.82341E+16  7.97570E-27
 4.82073E+16  8.25071E-27
 4.81805E+16  8.53520E-27
 4.81537E+16  8.82950E-27
 4.81270E+16  9.13395E-27
 4.81003E+16  9.44889E-27
 4.80735E+16  9.77470E-27
 4.80468E+16  1.01117E-26
 4.80202E+16  1.04604E-26
 4.79935E+16  1.08211E-26
 4.79668E+16  1.11942E-26
 4.79402E+16  1.15802E-26
 4.79136E+16  1.19795E-26
 4.78870E+16  1.23925E-26
 4.78604E+16  1.28198E-26
 4.78338E+16  1.32619E-26
 4.78072E+16  1.37191E-26
 4.77807E+16  1.41922E-26
 4.77541E+16  1.46816E-26
 4.77276E+16  1.51878E-26
 4.77011E+16  1.57115E-26
 4.76746E+16  1.62532E-26
 4.76481E+16  1.68136E-26
 4.76217E+16  1.73934E-26
 4.75952E+16  1.79931E-26
 4.75688E+16  1.86135E-26
 4.75424E+16  1.92553E-26
 4.75159E+16  1.99193E-26
 4.74896E+16  2.06061E-26
 4.74632E+16  2.13166E-26
 4.74368E+16  2.20516E-26
 4.74105E+16  2.28120E-26
 4.73841E+16  2.35985E-26
 4.73578E+16  2.44122E-26
 4.73315E+16  2.52540E-26
 4.73052E+16  2.61248E-26
 4.72790E+16  2.70256E-26
 4.72527E+16  2.79574E-26
 4.72265E+16  2.89214E-26
 4.72002E+16  2.99186E-26
 4.71740E+16  3.09503E-26
 4.71478E+16  3.20174E-26
 4.71216E+16  3.31214E-26
 4.70955E+16  3.42635E-26
 4.70693E+16  3.54449E-26
 4.70432E+16  3.66671E-26
 4.70170E+16  3.79314E-26
 4.69909E+16  3.92393E-26
 4.69648E+16  4.05923E-26
 4.69387E+16  4.19919E-26
 4.69127E+16  4.34398E-26
 4.68866E+16  4.49377E-26
 4.68606E+16  4.64872E-26
 4.68345E+16  4.80901E-26
 4.68085E+16  4.97482E-26
 4.67825E+16  5.14636E-26
 4.67566E+16  5.32288E-26
 4.67306E+16  5.49724E-26
 4.67046E+16  5.67614E-26
 4.66787E+16  5.86085E-26
 4.66528E+16  6.05157E-26
 4.66269E+16  6.24850E-26
 4.66010E+16  6.45184E-26
 4.65751E+16  6.66180E-26
 4.65492E+16  6.87859E-26
 4.65234E+16  7.10243E-26
 4.64975E+16  7.33356E-26
 4.64717E+16  7.57221E-26
 4.64459E+16  7.81863E-26
 4.64201E+16  8.07306E-26
 4.63943E+16  8.33577E-26
 4.63685E+16  8.60704E-26
 4.63428E+16  8.88713E-26
 4.63170E+16  9.17633E-26
 4.62913E+16  9.47495E-26
 4.62656E+16  9.78329E-26
 4.62399E+16  1.01017E-25
 4.62142E+16  1.04304E-25
 4.61886E+16  1.07698E-25
 4.61629E+16  1.11203E-25
 4.61373E+16  1.14822E-25
 4.61116E+16  1.18558E-25
 4.60860E+16  1.22416E-25
 4.60604E+16  1.26400E-25
 4.60349E+16  1.30513E-25
 4.60093E+16  1.34760E-25
 4.59837E+16  1.39146E-25
 4.59582E+16  1.43674E-25
 4.59327E+16  1.48349E-25
 4.59072E+16  1.53177E-25
 4.58817E+16  1.58162E-25
 4.58562E+16  1.63309E-25
 4.58307E+16  1.68623E-25
 4.58053E+16  1.74110E-25
 4.57798E+16  1.79776E-25
 4.57544E+16  1.85627E-25
 4.57290E+16  1.91667E-25
 4.57036E+16  1.97904E-25
 4.56782E+16  2.04345E-25
 4.56528E+16  2.10994E-25
 4.56275E+16  2.17861E-25
 4.56021E+16  2.24950E-25
 4.55768E+16  2.32271E-25
 4.55515E+16  2.39829E-25
 4.55262E+16  2.47634E-25
 4.55009E+16  2.55692E-25
 4.54756E+16  2.64013E-25
 4.54504E+16  2.72605E-25
 4.54251E+16  2.81476E-25
 4.53999E+16  2.90636E-25
 4.53747E+16  3.00093E-25
 4.53495E+16  3.09859E-25
 4.53243E+16  3.19943E-25
 4.52991E+16  3.30354E-25
 4.52740E+16  3.41105E-25
 4.52488E+16  3.52205E-25
 4.52237E+16  3.63666E-25
 4.51986E+16  3.75501E-25
 4.51735E+16  3.87720E-25
 4.51484E+16  4.00338E-25
 4.51233E+16  4.13365E-25
 4.50983E+16  4.26817E-25
 4.50732E+16  4.40707E-25
 4.50482E+16  4.55048E-25
 4.50232E+16  4.69856E-25
 4.49981E+16  4.85146E-25
 4.49732E+16  5.00934E-25
 4.49482E+16  5.17236E-25
 4.49232E+16  5.34067E-25
 4.48983E+16  5.51447E-25
 4.48733E+16  5.69392E-25
 4.48484E+16  5.87922E-25
 4.48235E+16  6.07054E-25
 4.47986E+16  6.26809E-25
 4.47737E+16  6.47206E-25
 4.47489E+16  6.68268E-25
 4.47240E+16  6.90015E-25
 4.46992E+16  7.12469E-25
 4.46743E+16  7.35654E-25
 4.46495E+16  7.59594E-25
 4.46247E+16  7.84313E-25
 4.45999E+16  8.09836E-25
 4.45752E+16  8.36190E-25
 4.45504E+16  8.63401E-25
 4.45257E+16  8.91498E-25
 4.45009E+16  9.20509E-25
 4.44762E+16  9.50464E-25
 4.44515E+16  9.81394E-25
 4.44268E+16  1.01333E-24
 4.44022E+16  1.04631E-24
 4.43775E+16  1.08036E-24
 4.43528E+16  1.11551E-24
 4.43282E+16  1.15181E-24
 4.43036E+16  1.18930E-24
 4.42790E+16  1.22800E-24
 4.42544E+16  1.26784E-24
 4.42298E+16  1.30705E-24
 4.42053E+16  1.34703E-24
 4.41807E+16  1.38822E-24
 4.41562E+16  1.43068E-24
 4.41316E+16  1.47444E-24
 4.41071E+16  1.51953E-24
 4.40826E+16  1.56600E-24
 4.40581E+16  1.61390E-24
 4.40337E+16  1.66326E-24
 4.40092E+16  1.71412E-24
 4.39848E+16  1.76655E-24
 4.39604E+16  1.82058E-24
 4.39359E+16  1.87626E-24
 4.39115E+16  1.93364E-24
 4.38871E+16  1.99278E-24
 4.38628E+16  2.05372E-24
 4.38384E+16  2.11653E-24
 4.38141E+16  2.18126E-24
 4.37897E+16  2.24797E-24
 4.37654E+16  2.31673E-24
 4.37411E+16  2.38758E-24
 4.37168E+16  2.46060E-24
