 TLUSTY Ostars, Lanz & Hubeny 2003
 T 55000. G 4.00000 M30 TLUSTY
 Frequency   Eddington Hnu
   (Hz)    (ergs/s/cm2/Hz/sr)
 6.67944E+16  2.55865E-13
 6.67573E+16  2.56119E-13
 6.67202E+16  2.56458E-13
 6.66831E+16  2.56797E-13
 6.66461E+16  2.57138E-13
 6.66091E+16  2.57478E-13
 6.65721E+16  2.57819E-13
 6.65351E+16  2.58160E-13
 6.64982E+16  2.58502E-13
 6.64612E+16  2.58845E-13
 6.64243E+16  2.59187E-13
 6.63874E+16  2.59531E-13
 6.63506E+16  2.59874E-13
 6.63137E+16  2.60218E-13
 6.62769E+16  2.60563E-13
 6.62401E+16  2.60908E-13
 6.62033E+16  2.61253E-13
 6.61665E+16  2.61599E-13
 6.61298E+16  2.61946E-13
 6.60930E+16  2.62293E-13
 6.60563E+16  2.62640E-13
 6.60196E+16  2.62988E-13
 6.59830E+16  2.63336E-13
 6.59463E+16  2.63685E-13
 6.59097E+16  2.64034E-13
 6.58731E+16  2.64384E-13
 6.58365E+16  2.64734E-13
 6.57999E+16  2.65084E-13
 6.57634E+16  2.65435E-13
 6.57269E+16  2.65787E-13
 6.56904E+16  2.66139E-13
 6.56539E+16  2.66491E-13
 6.56174E+16  2.66844E-13
 6.55810E+16  2.67197E-13
 6.55445E+16  2.67551E-13
 6.55081E+16  2.67905E-13
 6.54718E+16  2.68260E-13
 6.54354E+16  2.68615E-13
 6.53991E+16  2.68971E-13
 6.53627E+16  2.69327E-13
 6.53264E+16  2.69684E-13
 6.52901E+16  2.70041E-13
 6.52539E+16  2.70399E-13
 6.52176E+16  2.70757E-13
 6.51814E+16  2.71115E-13
 6.51452E+16  2.71474E-13
 6.51090E+16  2.71834E-13
 6.50729E+16  2.72194E-13
 6.50367E+16  2.72554E-13
 6.50006E+16  2.72915E-13
 6.49645E+16  2.73277E-13
 6.49284E+16  2.73638E-13
 6.48924E+16  2.74001E-13
 6.48563E+16  2.74364E-13
 6.48203E+16  2.74727E-13
 6.47843E+16  2.75091E-13
 6.47483E+16  2.75455E-13
 6.47124E+16  2.75820E-13
 6.46764E+16  2.76185E-13
 6.46405E+16  2.76551E-13
 6.46046E+16  2.76917E-13
 6.45687E+16  2.77284E-13
 6.45329E+16  2.77651E-13
 6.44970E+16  2.78018E-13
 6.44612E+16  2.78387E-13
 6.44254E+16  2.78755E-13
 6.43896E+16  2.79124E-13
 6.43539E+16  2.79494E-13
 6.43181E+16  2.79864E-13
 6.42824E+16  2.80213E-13
 6.42467E+16  2.80501E-13
 6.42110E+16  2.80785E-13
 6.41753E+16  2.81070E-13
 6.41397E+16  2.81355E-13
 6.41041E+16  2.81640E-13
 6.40685E+16  2.81925E-13
 6.40329E+16  2.82211E-13
 6.39973E+16  2.82497E-13
 6.39618E+16  2.82783E-13
 6.39263E+16  2.83070E-13
 6.38908E+16  2.83356E-13
 6.38553E+16  2.83644E-13
 6.38198E+16  2.83931E-13
 6.37844E+16  2.84219E-13
 6.37489E+16  2.84507E-13
 6.37135E+16  2.84795E-13
 6.36781E+16  2.85083E-13
 6.36428E+16  2.85372E-13
 6.36074E+16  2.85662E-13
 6.35721E+16  2.85951E-13
 6.35368E+16  2.86241E-13
 6.35015E+16  2.86531E-13
 6.34662E+16  2.86821E-13
 6.34310E+16  2.87112E-13
 6.33958E+16  2.87403E-13
 6.33605E+16  2.87694E-13
 6.33254E+16  2.87985E-13
 6.32902E+16  2.88277E-13
 6.32550E+16  2.88569E-13
 6.32199E+16  2.88862E-13
 6.31848E+16  2.89154E-13
 6.31497E+16  2.89447E-13
 6.31146E+16  2.89741E-13
 6.30796E+16  2.90034E-13
 6.30445E+16  2.90328E-13
 6.30095E+16  2.90622E-13
 6.29745E+16  2.90917E-13
 6.29395E+16  2.91212E-13
 6.29046E+16  2.91507E-13
 6.28697E+16  2.91802E-13
 6.28347E+16  2.92098E-13
 6.27998E+16  2.92394E-13
 6.27650E+16  2.92690E-13
 6.27301E+16  2.92987E-13
 6.26953E+16  2.93284E-13
 6.26604E+16  2.93581E-13
 6.26256E+16  2.93878E-13
 6.25909E+16  2.94176E-13
 6.25561E+16  2.94474E-13
 6.25213E+16  2.94772E-13
 6.24866E+16  2.95071E-13
 6.24519E+16  2.95370E-13
 6.24172E+16  2.95669E-13
 6.23826E+16  2.95969E-13
 6.23479E+16  2.96269E-13
 6.23133E+16  2.96569E-13
 6.22787E+16  2.96870E-13
 6.22441E+16  2.97170E-13
 6.22095E+16  2.97472E-13
 6.21750E+16  2.97773E-13
 6.21404E+16  2.98075E-13
 6.21059E+16  2.98377E-13
 6.20714E+16  2.98679E-13
 6.20370E+16  2.98982E-13
 6.20025E+16  2.99285E-13
 6.19681E+16  2.99588E-13
 6.19337E+16  2.99892E-13
 6.18993E+16  3.00195E-13
 6.18649E+16  3.00500E-13
 6.18305E+16  3.00804E-13
 6.17962E+16  3.01108E-13
 6.17619E+16  3.01350E-13
 6.17276E+16  3.01558E-13
 6.16933E+16  3.01767E-13
 6.16590E+16  3.01976E-13
 6.16248E+16  3.02186E-13
 6.15905E+16  3.02395E-13
 6.15563E+16  3.02604E-13
 6.15221E+16  3.02814E-13
 6.14880E+16  3.03024E-13
 6.14538E+16  3.03234E-13
 6.14197E+16  3.03444E-13
 6.13856E+16  3.03654E-13
 6.13515E+16  3.03865E-13
 6.13174E+16  3.04075E-13
 6.12834E+16  3.04286E-13
 6.12493E+16  3.04497E-13
 6.12153E+16  3.04708E-13
 6.11813E+16  3.04919E-13
 6.11473E+16  3.05130E-13
 6.11134E+16  3.05342E-13
 6.10794E+16  3.05553E-13
 6.10455E+16  3.05765E-13
 6.10116E+16  3.05977E-13
 6.09777E+16  3.06189E-13
 6.09438E+16  3.06401E-13
 6.09100E+16  3.06613E-13
 6.08762E+16  3.06826E-13
 6.08423E+16  3.07038E-13
 6.08086E+16  3.07251E-13
 6.07748E+16  3.07464E-13
 6.07410E+16  3.07677E-13
 6.07073E+16  3.07890E-13
 6.06736E+16  3.08104E-13
 6.06399E+16  3.08317E-13
 6.06062E+16  3.08531E-13
 6.05725E+16  3.08744E-13
 6.05389E+16  3.08958E-13
 6.05053E+16  3.09172E-13
 6.04717E+16  3.09387E-13
 6.04381E+16  3.09601E-13
 6.04045E+16  3.09816E-13
 6.03710E+16  3.10030E-13
 6.03374E+16  3.10245E-13
 6.03039E+16  3.10460E-13
 6.02704E+16  3.10675E-13
 6.02370E+16  3.10890E-13
 6.02035E+16  3.11106E-13
 6.01701E+16  3.11321E-13
 6.01366E+16  3.11537E-13
 6.01032E+16  3.11753E-13
 6.00699E+16  3.11969E-13
 6.00365E+16  3.12185E-13
 6.00032E+16  3.12401E-13
 5.99698E+16  3.12618E-13
 5.99365E+16  3.12834E-13
 5.99032E+16  3.13051E-13
 5.98700E+16  3.13268E-13
 5.98367E+16  3.13485E-13
 5.98035E+16  3.13702E-13
 5.97703E+16  3.13920E-13
 5.97371E+16  3.14137E-13
 5.97039E+16  3.14355E-13
 5.96707E+16  3.14573E-13
 5.96376E+16  3.14791E-13
 5.96045E+16  3.15009E-13
 5.95714E+16  3.15227E-13
 5.95383E+16  3.15446E-13
 5.95052E+16  3.15664E-13
 5.94722E+16  3.15883E-13
 5.94391E+16  3.16102E-13
 5.94061E+16  3.16321E-13
 5.93731E+16  3.16540E-13
 5.93402E+16  3.16759E-13
 5.93072E+16  3.16979E-13
 5.92743E+16  3.17174E-13
 5.92413E+16  3.17292E-13
 5.92084E+16  3.17405E-13
 5.91755E+16  3.17517E-13
 5.91427E+16  3.17630E-13
 5.91098E+16  3.17742E-13
 5.90770E+16  3.17855E-13
 5.90442E+16  3.17968E-13
 5.90114E+16  3.18081E-13
 5.89786E+16  3.18193E-13
 5.89459E+16  3.18306E-13
 5.89131E+16  3.18419E-13
 5.88804E+16  3.18532E-13
 5.88477E+16  3.18645E-13
 5.88150E+16  3.18758E-13
 5.87824E+16  3.18871E-13
 5.87497E+16  3.18984E-13
 5.87171E+16  3.19097E-13
 5.86845E+16  3.19210E-13
 5.86519E+16  3.19324E-13
 5.86193E+16  3.19437E-13
 5.85867E+16  3.19550E-13
 5.85542E+16  3.19663E-13
 5.85217E+16  3.19777E-13
 5.84892E+16  3.19890E-13
 5.84567E+16  3.20004E-13
 5.84242E+16  3.20117E-13
 5.83918E+16  3.20231E-13
 5.83594E+16  3.20344E-13
 5.83269E+16  3.20458E-13
 5.82945E+16  3.20571E-13
 5.82622E+16  3.20685E-13
 5.82298E+16  3.20799E-13
 5.81975E+16  3.20913E-13
 5.81651E+16  3.21026E-13
 5.81328E+16  3.21140E-13
 5.81006E+16  3.21254E-13
 5.80683E+16  3.21368E-13
 5.80360E+16  3.21482E-13
 5.80038E+16  3.21596E-13
 5.79716E+16  3.21710E-13
 5.79394E+16  3.21824E-13
 5.79072E+16  3.21938E-13
 5.78750E+16  3.22052E-13
 5.78429E+16  3.22167E-13
 5.78108E+16  3.22281E-13
 5.77787E+16  3.22395E-13
 5.77466E+16  3.22509E-13
 5.77145E+16  3.22624E-13
 5.76825E+16  3.22738E-13
 5.76504E+16  3.22853E-13
 5.76184E+16  3.22967E-13
 5.75864E+16  3.23082E-13
 5.75544E+16  3.23196E-13
 5.75224E+16  3.23311E-13
 5.74905E+16  3.23425E-13
 5.74586E+16  3.23540E-13
 5.74267E+16  3.23655E-13
 5.73948E+16  3.23770E-13
 5.73629E+16  3.23884E-13
 5.73310E+16  3.23999E-13
 5.72992E+16  3.24114E-13
 5.72674E+16  3.24229E-13
 5.72356E+16  3.24344E-13
 5.72038E+16  3.24459E-13
 5.71720E+16  3.24574E-13
 5.71402E+16  3.24689E-13
 5.71085E+16  3.24804E-13
 5.70768E+16  3.24920E-13
 5.70451E+16  3.25035E-13
 5.70134E+16  3.25150E-13
 5.69817E+16  3.25265E-13
 5.69501E+16  3.25381E-13
 5.69185E+16  3.25496E-13
 5.68869E+16  3.25612E-13
 5.68553E+16  3.25727E-13
 5.68237E+16  3.25843E-13
 5.67921E+16  3.25958E-13
 5.67606E+16  3.26016E-13
 5.67291E+16  3.26008E-13
 5.66975E+16  3.25999E-13
 5.66661E+16  3.25991E-13
 5.66346E+16  3.25982E-13
 5.66031E+16  3.25974E-13
 5.65717E+16  3.25965E-13
 5.65403E+16  3.25957E-13
 5.65089E+16  3.25948E-13
 5.64775E+16  3.25940E-13
 5.64461E+16  3.25931E-13
 5.64148E+16  3.25923E-13
 5.63834E+16  3.25914E-13
 5.63521E+16  3.25906E-13
 5.63208E+16  3.25897E-13
 5.62895E+16  3.25889E-13
 5.62583E+16  3.25880E-13
 5.62270E+16  3.25872E-13
 5.61958E+16  3.25863E-13
 5.61646E+16  3.25855E-13
 5.61334E+16  3.25846E-13
 5.61022E+16  3.25838E-13
 5.60711E+16  3.25829E-13
 5.60399E+16  3.25821E-13
 5.60088E+16  3.25812E-13
 5.59777E+16  3.25804E-13
 5.59466E+16  3.25795E-13
 5.59155E+16  3.25787E-13
 5.58845E+16  3.25778E-13
 5.58534E+16  3.25770E-13
 5.58224E+16  3.25761E-13
 5.57914E+16  3.25753E-13
 5.57604E+16  3.25744E-13
 5.57295E+16  3.25736E-13
 5.56985E+16  3.25727E-13
 5.56676E+16  3.25719E-13
 5.56367E+16  3.25710E-13
 5.56058E+16  3.25702E-13
 5.55749E+16  3.25693E-13
 5.55440E+16  3.25685E-13
 5.55132E+16  3.25676E-13
 5.54823E+16  3.25668E-13
 5.54515E+16  3.25659E-13
 5.54207E+16  3.25651E-13
 5.53899E+16  3.25642E-13
 5.53592E+16  3.25634E-13
 5.53284E+16  3.25625E-13
 5.52977E+16  3.25617E-13
 5.52670E+16  3.25608E-13
 5.52363E+16  3.25600E-13
 5.52056E+16  3.25591E-13
 5.51749E+16  3.25583E-13
 5.51443E+16  3.25574E-13
 5.51137E+16  3.25566E-13
 5.50831E+16  3.25557E-13
 5.50525E+16  3.25549E-13
 5.50219E+16  3.25540E-13
 5.49913E+16  3.25532E-13
 5.49608E+16  3.25523E-13
 5.49303E+16  3.25515E-13
 5.48998E+16  3.25506E-13
 5.48693E+16  3.25498E-13
 5.48388E+16  3.25489E-13
 5.48083E+16  3.25481E-13
 5.47779E+16  3.25472E-13
 5.47475E+16  3.25464E-13
 5.47171E+16  3.25455E-13
 5.46867E+16  3.25447E-13
 5.46563E+16  3.25438E-13
 5.46259E+16  3.25430E-13
 5.45956E+16  3.25421E-13
 5.45653E+16  3.25413E-13
 5.45350E+16  3.25404E-13
 5.45047E+16  3.25396E-13
 5.44744E+16  3.25387E-13
 5.44442E+16  3.25379E-13
 5.44139E+16  3.25370E-13
 5.43837E+16  3.25362E-13
 5.43535E+16  3.25353E-13
 5.43233E+16  3.25345E-13
 5.42931E+16  3.25336E-13
 5.42630E+16  3.25291E-13
 5.42328E+16  3.25155E-13
 5.42027E+16  3.25015E-13
 5.41726E+16  3.24874E-13
 5.41425E+16  3.24734E-13
 5.41125E+16  3.24594E-13
 5.40824E+16  3.24454E-13
 5.40524E+16  3.24314E-13
 5.40224E+16  3.24174E-13
 5.39923E+16  3.24034E-13
 5.39624E+16  3.23894E-13
 5.39324E+16  3.23754E-13
 5.39024E+16  3.23614E-13
 5.38725E+16  3.23475E-13
 5.38426E+16  3.23335E-13
 5.38127E+16  3.23195E-13
 5.37828E+16  3.23056E-13
 5.37529E+16  3.22917E-13
 5.37231E+16  3.22777E-13
 5.36932E+16  3.22638E-13
 5.36634E+16  3.22499E-13
 5.36336E+16  3.22359E-13
 5.36038E+16  3.22220E-13
 5.35740E+16  3.22081E-13
 5.35443E+16  3.21942E-13
 5.35145E+16  3.21803E-13
 5.34848E+16  3.21664E-13
 5.34551E+16  3.21525E-13
 5.34254E+16  3.21387E-13
 5.33958E+16  3.21248E-13
 5.33661E+16  3.21109E-13
 5.33365E+16  3.20971E-13
 5.33068E+16  3.20832E-13
 5.32772E+16  3.20694E-13
 5.32476E+16  3.20555E-13
 5.32181E+16  3.20417E-13
 5.31885E+16  3.20278E-13
 5.31590E+16  3.20140E-13
 5.31294E+16  3.20002E-13
 5.30999E+16  3.19864E-13
 5.30704E+16  3.19726E-13
 5.30410E+16  3.19588E-13
 5.30115E+16  3.19450E-13
 5.29821E+16  3.19312E-13
 5.29526E+16  3.19174E-13
 5.29232E+16  3.19036E-13
 5.28938E+16  3.18899E-13
 5.28645E+16  3.18761E-13
 5.28351E+16  3.18623E-13
 5.28058E+16  3.18486E-13
 5.27764E+16  3.18348E-13
 5.27471E+16  3.18211E-13
 5.27178E+16  3.18074E-13
 5.26885E+16  3.17936E-13
 5.26593E+16  3.17799E-13
 5.26300E+16  3.17662E-13
 5.26008E+16  3.17525E-13
 5.25716E+16  3.17388E-13
 5.25424E+16  3.17251E-13
 5.25132E+16  3.17114E-13
 5.24840E+16  3.16977E-13
 5.24549E+16  3.16840E-13
 5.24258E+16  3.16703E-13
 5.23966E+16  3.16567E-13
 5.23675E+16  3.16430E-13
 5.23385E+16  3.16293E-13
 5.23094E+16  3.16157E-13
 5.22803E+16  3.16020E-13
 5.22513E+16  3.15884E-13
 5.22223E+16  3.15748E-13
 5.21933E+16  3.15611E-13
 5.21643E+16  3.15475E-13
 5.21353E+16  3.15339E-13
 5.21064E+16  3.15203E-13
 5.20774E+16  3.15067E-13
 5.20485E+16  3.14931E-13
 5.20196E+16  3.14795E-13
 5.19907E+16  3.14659E-13
 5.19618E+16  3.14523E-13
 5.19330E+16  3.14387E-13
 5.19041E+16  3.14252E-13
 5.18753E+16  3.14116E-13
 5.18465E+16  3.13980E-13
 5.18177E+16  3.13845E-13
 5.17889E+16  3.13709E-13
 5.17601E+16  3.13539E-13
 5.17314E+16  3.13263E-13
 5.17027E+16  3.12981E-13
 5.16739E+16  3.12698E-13
 5.16452E+16  3.12416E-13
 5.16166E+16  3.12134E-13
 5.15879E+16  3.11853E-13
 5.15592E+16  3.11572E-13
 5.15306E+16  3.11291E-13
 5.15020E+16  3.11010E-13
 5.14734E+16  3.10729E-13
 5.14448E+16  3.10449E-13
 5.14162E+16  3.10169E-13
 5.13877E+16  3.09890E-13
 5.13591E+16  3.09610E-13
 5.13306E+16  3.09331E-13
 5.13021E+16  3.09052E-13
 5.12736E+16  3.08773E-13
 5.12451E+16  3.08495E-13
 5.12167E+16  3.08216E-13
 5.11882E+16  3.07938E-13
 5.11598E+16  3.07661E-13
 5.11314E+16  3.07383E-13
 5.11030E+16  3.07106E-13
 5.10746E+16  3.06829E-13
 5.10462E+16  3.06552E-13
 5.10179E+16  3.06276E-13
 5.09895E+16  3.06000E-13
 5.09612E+16  3.05724E-13
 5.09329E+16  3.05448E-13
 5.09046E+16  3.05173E-13
 5.08764E+16  3.04897E-13
 5.08481E+16  3.04622E-13
 5.08199E+16  3.04348E-13
 5.07916E+16  3.04073E-13
 5.07634E+16  3.03799E-13
 5.07352E+16  3.03525E-13
 5.07071E+16  3.03251E-13
 5.06789E+16  3.02978E-13
 5.06507E+16  3.02704E-13
 5.06226E+16  3.02431E-13
 5.05945E+16  3.02159E-13
 5.05664E+16  3.01886E-13
 5.05383E+16  3.01614E-13
 5.05102E+16  3.01342E-13
 5.04822E+16  3.01070E-13
 5.04542E+16  3.00799E-13
 5.04261E+16  3.00527E-13
 5.03981E+16  3.00256E-13
 5.03701E+16  2.99985E-13
 5.03422E+16  2.99715E-13
 5.03142E+16  2.99445E-13
 5.02863E+16  2.99175E-13
 5.02583E+16  2.98905E-13
 5.02304E+16  2.98635E-13
 5.02025E+16  2.98366E-13
 5.01746E+16  2.98097E-13
 5.01468E+16  2.97828E-13
 5.01189E+16  2.97559E-13
 5.00911E+16  2.97291E-13
 5.00633E+16  2.97023E-13
 5.00354E+16  2.96755E-13
 5.00077E+16  2.96487E-13
 4.99799E+16  2.96220E-13
 4.99521E+16  2.95953E-13
 4.99244E+16  2.95686E-13
 4.98967E+16  2.95419E-13
 4.98689E+16  2.95153E-13
 4.98412E+16  2.94887E-13
 4.98136E+16  2.94621E-13
 4.97859E+16  2.94355E-13
 4.97582E+16  2.94089E-13
 4.97306E+16  2.93824E-13
 4.97030E+16  2.93559E-13
 4.96754E+16  2.93295E-13
 4.96478E+16  2.93030E-13
 4.96202E+16  2.92766E-13
 4.95927E+16  2.92502E-13
 4.95651E+16  2.92238E-13
 4.95376E+16  2.91974E-13
 4.95101E+16  2.91711E-13
 4.94826E+16  2.91448E-13
 4.94551E+16  2.91185E-13
 4.94276E+16  2.90922E-13
 4.94002E+16  2.90660E-13
 4.93727E+16  2.90398E-13
 4.93453E+16  2.90136E-13
 4.93179E+16  2.89874E-13
 4.92905E+16  2.89613E-13
 4.92631E+16  2.89337E-13
 4.92358E+16  2.88937E-13
 4.92084E+16  2.88509E-13
 4.91811E+16  2.88081E-13
 4.91538E+16  2.87654E-13
 4.91265E+16  2.87228E-13
 4.90992E+16  2.86802E-13
 4.90719E+16  2.86377E-13
 4.90447E+16  2.85952E-13
 4.90174E+16  2.85529E-13
 4.89902E+16  2.85105E-13
 4.89630E+16  2.84683E-13
 4.89358E+16  2.84261E-13
 4.89086E+16  2.83840E-13
 4.88815E+16  2.83419E-13
 4.88543E+16  2.82999E-13
 4.88272E+16  2.82579E-13
 4.88001E+16  2.82161E-13
 4.87730E+16  2.81742E-13
 4.87459E+16  2.81325E-13
 4.87188E+16  2.80908E-13
 4.86918E+16  2.80491E-13
 4.86647E+16  2.80076E-13
 4.86377E+16  2.79661E-13
 4.86107E+16  2.79246E-13
 4.85837E+16  2.78832E-13
 4.85567E+16  2.78419E-13
 4.85297E+16  2.78006E-13
 4.85028E+16  2.77594E-13
 4.84758E+16  2.77183E-13
 4.84489E+16  2.76772E-13
 4.84220E+16  2.76362E-13
 4.83951E+16  2.75952E-13
 4.83682E+16  2.75543E-13
 4.83414E+16  2.75135E-13
 4.83145E+16  2.74727E-13
 4.82877E+16  2.74320E-13
 4.82609E+16  2.73913E-13
 4.82341E+16  2.73507E-13
 4.82073E+16  2.73102E-13
 4.81805E+16  2.72697E-13
 4.81537E+16  2.72293E-13
 4.81270E+16  2.71889E-13
 4.81003E+16  2.71486E-13
 4.80735E+16  2.71084E-13
 4.80468E+16  2.70682E-13
 4.80202E+16  2.70281E-13
 4.79935E+16  2.69880E-13
 4.79668E+16  2.69480E-13
 4.79402E+16  2.69081E-13
 4.79136E+16  2.68682E-13
 4.78870E+16  2.68284E-13
 4.78604E+16  2.67886E-13
 4.78338E+16  2.67489E-13
 4.78072E+16  2.67093E-13
 4.77807E+16  2.66697E-13
 4.77541E+16  2.66301E-13
 4.77276E+16  2.65907E-13
 4.77011E+16  2.65513E-13
 4.76746E+16  2.65119E-13
 4.76481E+16  2.64726E-13
 4.76217E+16  2.64334E-13
 4.75952E+16  2.63942E-13
 4.75688E+16  2.63551E-13
 4.75424E+16  2.63160E-13
 4.75159E+16  2.62770E-13
 4.74896E+16  2.62381E-13
 4.74632E+16  2.61992E-13
 4.74368E+16  2.61603E-13
 4.74105E+16  2.61216E-13
 4.73841E+16  2.60829E-13
 4.73578E+16  2.60442E-13
 4.73315E+16  2.60056E-13
 4.73052E+16  2.59670E-13
 4.72790E+16  2.59286E-13
 4.72527E+16  2.58901E-13
 4.72265E+16  2.58518E-13
 4.72002E+16  2.58134E-13
 4.71740E+16  2.57752E-13
 4.71478E+16  2.57370E-13
 4.71216E+16  2.56988E-13
 4.70955E+16  2.56607E-13
 4.70693E+16  2.56227E-13
 4.70432E+16  2.55847E-13
 4.70170E+16  2.55468E-13
 4.69909E+16  2.55089E-13
 4.69648E+16  2.54711E-13
 4.69387E+16  2.54334E-13
 4.69127E+16  2.53957E-13
 4.68866E+16  2.53580E-13
 4.68606E+16  2.53205E-13
 4.68345E+16  2.52829E-13
 4.68085E+16  2.52455E-13
 4.67825E+16  2.52080E-13
 4.67566E+16  2.51688E-13
 4.67306E+16  2.51175E-13
 4.67046E+16  2.50642E-13
 4.66787E+16  2.50109E-13
 4.66528E+16  2.49578E-13
 4.66269E+16  2.49048E-13
 4.66010E+16  2.48519E-13
 4.65751E+16  2.47991E-13
 4.65492E+16  2.47465E-13
 4.65234E+16  2.46939E-13
 4.64975E+16  2.46415E-13
 4.64717E+16  2.45891E-13
 4.64459E+16  2.45369E-13
 4.64201E+16  2.44848E-13
 4.63943E+16  2.44328E-13
 4.63685E+16  2.43809E-13
 4.63428E+16  2.43291E-13
 4.63170E+16  2.42775E-13
 4.62913E+16  2.42259E-13
 4.62656E+16  2.41745E-13
 4.62399E+16  2.41231E-13
 4.62142E+16  2.40719E-13
 4.61886E+16  2.40208E-13
 4.61629E+16  2.39698E-13
 4.61373E+16  2.39189E-13
 4.61116E+16  2.38681E-13
 4.60860E+16  2.38174E-13
 4.60604E+16  2.37668E-13
 4.60349E+16  2.37163E-13
 4.60093E+16  2.36659E-13
 4.59837E+16  2.36157E-13
 4.59582E+16  2.35655E-13
 4.59327E+16  2.35155E-13
 4.59072E+16  2.34655E-13
 4.58817E+16  2.34157E-13
 4.58562E+16  2.33660E-13
 4.58307E+16  2.33163E-13
 4.58053E+16  2.32668E-13
 4.57798E+16  2.32174E-13
 4.57544E+16  2.31681E-13
 4.57290E+16  2.31189E-13
 4.57036E+16  2.30698E-13
 4.56782E+16  2.30208E-13
 4.56528E+16  2.29719E-13
 4.56275E+16  2.29231E-13
 4.56021E+16  2.28744E-13
 4.55768E+16  2.28259E-13
 4.55515E+16  2.27774E-13
 4.55262E+16  2.27290E-13
 4.55009E+16  2.26807E-13
 4.54756E+16  2.26326E-13
 4.54504E+16  2.25845E-13
 4.54251E+16  2.25365E-13
 4.53999E+16  2.24887E-13
 4.53747E+16  2.24409E-13
 4.53495E+16  2.23933E-13
 4.53243E+16  2.23457E-13
 4.52991E+16  2.22982E-13
 4.52740E+16  2.22509E-13
 4.52488E+16  2.22036E-13
 4.52237E+16  2.21565E-13
 4.51986E+16  2.21094E-13
 4.51735E+16  2.20625E-13
 4.51484E+16  2.20156E-13
 4.51233E+16  2.19689E-13
 4.50983E+16  2.19222E-13
 4.50732E+16  2.18756E-13
 4.50482E+16  2.18292E-13
 4.50232E+16  2.17828E-13
 4.49981E+16  2.17366E-13
 4.49732E+16  2.16904E-13
 4.49482E+16  2.16443E-13
 4.49232E+16  2.15984E-13
 4.48983E+16  2.15525E-13
 4.48733E+16  2.15067E-13
 4.48484E+16  2.14610E-13
 4.48235E+16  2.14155E-13
 4.47986E+16  2.13700E-13
 4.47737E+16  2.13246E-13
 4.47489E+16  2.12793E-13
 4.47240E+16  2.12341E-13
 4.46992E+16  2.11890E-13
 4.46743E+16  2.11440E-13
 4.46495E+16  2.10991E-13
 4.46247E+16  2.10543E-13
 4.45999E+16  2.10096E-13
 4.45752E+16  2.09650E-13
 4.45504E+16  2.09205E-13
 4.45257E+16  2.08760E-13
 4.45009E+16  2.08317E-13
 4.44762E+16  2.07874E-13
 4.44515E+16  2.07433E-13
 4.44268E+16  2.06992E-13
 4.44022E+16  2.06553E-13
 4.43775E+16  2.06114E-13
 4.43528E+16  2.05676E-13
 4.43282E+16  2.05240E-13
 4.43036E+16  2.04804E-13
 4.42790E+16  2.04369E-13
 4.42544E+16  2.03923E-13
 4.42298E+16  2.03358E-13
 4.42053E+16  2.02763E-13
 4.41807E+16  2.02169E-13
 4.41562E+16  2.01577E-13
 4.41316E+16  2.00987E-13
 4.41071E+16  2.00398E-13
 4.40826E+16  1.99812E-13
 4.40581E+16  1.99227E-13
 4.40337E+16  1.98643E-13
 4.40092E+16  1.98062E-13
 4.39848E+16  1.97482E-13
 4.39604E+16  1.96903E-13
 4.39359E+16  1.96327E-13
 4.39115E+16  1.95752E-13
 4.38871E+16  1.95179E-13
 4.38628E+16  1.94607E-13
 4.38384E+16  1.94037E-13
 4.38141E+16  1.93469E-13
 4.37897E+16  1.92903E-13
 4.37654E+16  1.92338E-13
 4.37411E+16  1.91775E-13
 4.37168E+16  1.91213E-13
