 TLUSTY Ostars, Lanz & Hubeny 2003
 T 27500. G 4.25000 M30 TLUSTY
 Frequency   Eddington Hnu
   (Hz)    (ergs/s/cm2/Hz/sr)
 6.67944E+16  1.73505E-62
 6.67573E+16  1.83957E-62
 6.67202E+16  1.98896E-62
 6.66831E+16  2.15049E-62
 6.66461E+16  2.32513E-62
 6.66091E+16  2.51395E-62
 6.65721E+16  2.71811E-62
 6.65351E+16  2.93884E-62
 6.64982E+16  3.17751E-62
 6.64612E+16  3.43555E-62
 6.64243E+16  3.71455E-62
 6.63874E+16  4.01621E-62
 6.63506E+16  4.34237E-62
 6.63137E+16  4.69501E-62
 6.62769E+16  5.07629E-62
 6.62401E+16  5.48854E-62
 6.62033E+16  5.93426E-62
 6.61665E+16  6.41618E-62
 6.61298E+16  6.93724E-62
 6.60930E+16  7.50061E-62
 6.60563E+16  8.10973E-62
 6.60196E+16  8.76832E-62
 6.59830E+16  9.48040E-62
 6.59463E+16  1.02503E-61
 6.59097E+16  1.10827E-61
 6.58731E+16  1.19828E-61
 6.58365E+16  1.29559E-61
 6.57999E+16  1.40080E-61
 6.57634E+16  1.51456E-61
 6.57269E+16  1.63756E-61
 6.56904E+16  1.77054E-61
 6.56539E+16  1.91433E-61
 6.56174E+16  2.06979E-61
 6.55810E+16  2.23788E-61
 6.55445E+16  2.41962E-61
 6.55081E+16  2.61611E-61
 6.54718E+16  2.82857E-61
 6.54354E+16  3.05828E-61
 6.53991E+16  3.30664E-61
 6.53627E+16  3.57517E-61
 6.53264E+16  3.86551E-61
 6.52901E+16  4.17943E-61
 6.52539E+16  4.51884E-61
 6.52176E+16  4.88581E-61
 6.51814E+16  5.28259E-61
 6.51452E+16  5.71159E-61
 6.51090E+16  6.17542E-61
 6.50729E+16  6.67693E-61
 6.50367E+16  7.21916E-61
 6.50006E+16  7.80543E-61
 6.49645E+16  8.43931E-61
 6.49284E+16  9.12466E-61
 6.48924E+16  9.86568E-61
 6.48563E+16  1.06669E-60
 6.48203E+16  1.15331E-60
 6.47843E+16  1.24697E-60
 6.47483E+16  1.34824E-60
 6.47124E+16  1.45773E-60
 6.46764E+16  1.57611E-60
 6.46405E+16  1.70411E-60
 6.46046E+16  1.84250E-60
 6.45687E+16  1.99213E-60
 6.45329E+16  2.15391E-60
 6.44970E+16  2.32883E-60
 6.44612E+16  2.51795E-60
 6.44254E+16  2.72243E-60
 6.43896E+16  2.94352E-60
 6.43539E+16  3.18256E-60
 6.43181E+16  3.44102E-60
 6.42824E+16  3.71855E-60
 6.42467E+16  4.00792E-60
 6.42110E+16  4.32024E-60
 6.41753E+16  4.65689E-60
 6.41397E+16  5.01978E-60
 6.41041E+16  5.41094E-60
 6.40685E+16  5.83259E-60
 6.40329E+16  6.28709E-60
 6.39973E+16  6.77701E-60
 6.39618E+16  7.30511E-60
 6.39263E+16  7.87436E-60
 6.38908E+16  8.48797E-60
 6.38553E+16  9.14939E-60
 6.38198E+16  9.86235E-60
 6.37844E+16  1.06309E-59
 6.37489E+16  1.14593E-59
 6.37135E+16  1.23522E-59
 6.36781E+16  1.33148E-59
 6.36428E+16  1.43523E-59
 6.36074E+16  1.54707E-59
 6.35721E+16  1.66763E-59
 6.35368E+16  1.79758E-59
 6.35015E+16  1.93766E-59
 6.34662E+16  2.08865E-59
 6.34310E+16  2.25140E-59
 6.33958E+16  2.42684E-59
 6.33605E+16  2.61596E-59
 6.33254E+16  2.81980E-59
 6.32902E+16  3.03954E-59
 6.32550E+16  3.27639E-59
 6.32199E+16  3.53170E-59
 6.31848E+16  3.80691E-59
 6.31497E+16  4.10356E-59
 6.31146E+16  4.42333E-59
 6.30796E+16  4.76802E-59
 6.30445E+16  5.13956E-59
 6.30095E+16  5.54006E-59
 6.29745E+16  5.97177E-59
 6.29395E+16  6.43712E-59
 6.29046E+16  6.93873E-59
 6.28697E+16  7.47943E-59
 6.28347E+16  8.06226E-59
 6.27998E+16  8.69051E-59
 6.27650E+16  9.36772E-59
 6.27301E+16  1.00977E-58
 6.26953E+16  1.08846E-58
 6.26604E+16  1.17327E-58
 6.26256E+16  1.26470E-58
 6.25909E+16  1.36325E-58
 6.25561E+16  1.46948E-58
 6.25213E+16  1.58399E-58
 6.24866E+16  1.70742E-58
 6.24519E+16  1.84047E-58
 6.24172E+16  1.98389E-58
 6.23826E+16  2.13849E-58
 6.23479E+16  2.30513E-58
 6.23133E+16  2.48476E-58
 6.22787E+16  2.67838E-58
 6.22441E+16  2.88709E-58
 6.22095E+16  3.11207E-58
 6.21750E+16  3.35457E-58
 6.21404E+16  3.61598E-58
 6.21059E+16  3.89775E-58
 6.20714E+16  4.20148E-58
 6.20370E+16  4.52888E-58
 6.20025E+16  4.88180E-58
 6.19681E+16  5.26221E-58
 6.19337E+16  5.67226E-58
 6.18993E+16  6.11427E-58
 6.18649E+16  6.59073E-58
 6.18305E+16  7.10431E-58
 6.17962E+16  7.65934E-58
 6.17619E+16  8.23785E-58
 6.17276E+16  8.85276E-58
 6.16933E+16  9.51356E-58
 6.16590E+16  1.02237E-57
 6.16248E+16  1.09868E-57
 6.15905E+16  1.18069E-57
 6.15563E+16  1.26883E-57
 6.15221E+16  1.36354E-57
 6.14880E+16  1.46532E-57
 6.14538E+16  1.57469E-57
 6.14197E+16  1.69223E-57
 6.13856E+16  1.81855E-57
 6.13515E+16  1.95429E-57
 6.13174E+16  2.10017E-57
 6.12834E+16  2.25694E-57
 6.12493E+16  2.42540E-57
 6.12153E+16  2.60644E-57
 6.11813E+16  2.80100E-57
 6.11473E+16  3.01008E-57
 6.11134E+16  3.23476E-57
 6.10794E+16  3.47622E-57
 6.10455E+16  3.73570E-57
 6.10116E+16  4.01455E-57
 6.09777E+16  4.31421E-57
 6.09438E+16  4.63624E-57
 6.09100E+16  4.98231E-57
 6.08762E+16  5.35421E-57
 6.08423E+16  5.75387E-57
 6.08086E+16  6.18336E-57
 6.07748E+16  6.64491E-57
 6.07410E+16  7.14091E-57
 6.07073E+16  7.67394E-57
 6.06736E+16  8.24676E-57
 6.06399E+16  8.86233E-57
 6.06062E+16  9.52385E-57
 6.05725E+16  1.02347E-56
 6.05389E+16  1.09987E-56
 6.05053E+16  1.18197E-56
 6.04717E+16  1.27020E-56
 6.04381E+16  1.36501E-56
 6.04045E+16  1.46690E-56
 6.03710E+16  1.57640E-56
 6.03374E+16  1.69406E-56
 6.03039E+16  1.82052E-56
 6.02704E+16  1.95641E-56
 6.02370E+16  2.10244E-56
 6.02035E+16  2.25938E-56
 6.01701E+16  2.42802E-56
 6.01366E+16  2.60926E-56
 6.01032E+16  2.80403E-56
 6.00699E+16  3.01333E-56
 6.00365E+16  3.23826E-56
 6.00032E+16  3.47998E-56
 5.99698E+16  3.73974E-56
 5.99365E+16  4.01889E-56
 5.99032E+16  4.31887E-56
 5.98700E+16  4.64125E-56
 5.98367E+16  4.98769E-56
 5.98035E+16  5.36000E-56
 5.97703E+16  5.76009E-56
 5.97371E+16  6.19004E-56
 5.97039E+16  6.65210E-56
 5.96707E+16  7.14863E-56
 5.96376E+16  7.68224E-56
 5.96045E+16  8.25567E-56
 5.95714E+16  8.87191E-56
 5.95383E+16  9.53415E-56
 5.95052E+16  1.02458E-55
 5.94722E+16  1.10106E-55
 5.94391E+16  1.18325E-55
 5.94061E+16  1.27157E-55
 5.93731E+16  1.36649E-55
 5.93402E+16  1.46849E-55
 5.93072E+16  1.57810E-55
 5.92743E+16  1.69505E-55
 5.92413E+16  1.81595E-55
 5.92084E+16  1.94555E-55
 5.91755E+16  2.08440E-55
 5.91427E+16  2.23315E-55
 5.91098E+16  2.39252E-55
 5.90770E+16  2.56326E-55
 5.90442E+16  2.74619E-55
 5.90114E+16  2.94217E-55
 5.89786E+16  3.15214E-55
 5.89459E+16  3.37710E-55
 5.89131E+16  3.61811E-55
 5.88804E+16  3.87631E-55
 5.88477E+16  4.15295E-55
 5.88150E+16  4.44932E-55
 5.87824E+16  4.76685E-55
 5.87497E+16  5.10704E-55
 5.87171E+16  5.47151E-55
 5.86845E+16  5.86198E-55
 5.86519E+16  6.28033E-55
 5.86193E+16  6.72852E-55
 5.85867E+16  7.20871E-55
 5.85542E+16  7.72316E-55
 5.85217E+16  8.27433E-55
 5.84892E+16  8.86483E-55
 5.84567E+16  9.49747E-55
 5.84242E+16  1.01753E-54
 5.83918E+16  1.09014E-54
 5.83594E+16  1.16794E-54
 5.83269E+16  1.25129E-54
 5.82945E+16  1.34059E-54
 5.82622E+16  1.43626E-54
 5.82298E+16  1.53876E-54
 5.81975E+16  1.64858E-54
 5.81651E+16  1.76623E-54
 5.81328E+16  1.89228E-54
 5.81006E+16  2.02732E-54
 5.80683E+16  2.17200E-54
 5.80360E+16  2.32700E-54
 5.80038E+16  2.49307E-54
 5.79716E+16  2.67099E-54
 5.79394E+16  2.86161E-54
 5.79072E+16  3.06583E-54
 5.78750E+16  3.28462E-54
 5.78429E+16  3.51903E-54
 5.78108E+16  3.77017E-54
 5.77787E+16  4.03923E-54
 5.77466E+16  4.32749E-54
 5.77145E+16  4.63632E-54
 5.76825E+16  4.96719E-54
 5.76504E+16  5.32168E-54
 5.76184E+16  5.70146E-54
 5.75864E+16  6.10835E-54
 5.75544E+16  6.54428E-54
 5.75224E+16  7.01131E-54
 5.74905E+16  7.51168E-54
 5.74586E+16  8.04775E-54
 5.74267E+16  8.62208E-54
 5.73948E+16  9.23740E-54
 5.73629E+16  9.89663E-54
 5.73310E+16  1.06029E-53
 5.72992E+16  1.13596E-53
 5.72674E+16  1.21703E-53
 5.72356E+16  1.30388E-53
 5.72038E+16  1.39693E-53
 5.71720E+16  1.49663E-53
 5.71402E+16  1.60343E-53
 5.71085E+16  1.71786E-53
 5.70768E+16  1.84046E-53
 5.70451E+16  1.97180E-53
 5.70134E+16  2.11252E-53
 5.69817E+16  2.26328E-53
 5.69501E+16  2.42480E-53
 5.69185E+16  2.59785E-53
 5.68869E+16  2.78325E-53
 5.68553E+16  2.98188E-53
 5.68237E+16  3.19468E-53
 5.67921E+16  3.42267E-53
 5.67606E+16  3.66236E-53
 5.67291E+16  3.91104E-53
 5.66975E+16  4.17734E-53
 5.66661E+16  4.46177E-53
 5.66346E+16  4.76556E-53
 5.66031E+16  5.09005E-53
 5.65717E+16  5.43662E-53
 5.65403E+16  5.80680E-53
 5.65089E+16  6.20218E-53
 5.64775E+16  6.62447E-53
 5.64461E+16  7.07553E-53
 5.64148E+16  7.55729E-53
 5.63834E+16  8.07186E-53
 5.63521E+16  8.62147E-53
 5.63208E+16  9.20849E-53
 5.62895E+16  9.83549E-53
 5.62583E+16  1.05052E-52
 5.62270E+16  1.12205E-52
 5.61958E+16  1.19845E-52
 5.61646E+16  1.28005E-52
 5.61334E+16  1.36720E-52
 5.61022E+16  1.46029E-52
 5.60711E+16  1.55972E-52
 5.60399E+16  1.66592E-52
 5.60088E+16  1.77936E-52
 5.59777E+16  1.90051E-52
 5.59466E+16  2.02991E-52
 5.59155E+16  2.16813E-52
 5.58845E+16  2.31575E-52
 5.58534E+16  2.47343E-52
 5.58224E+16  2.64185E-52
 5.57914E+16  2.82173E-52
 5.57604E+16  3.01385E-52
 5.57295E+16  3.21906E-52
 5.56985E+16  3.43825E-52
 5.56676E+16  3.67235E-52
 5.56367E+16  3.92240E-52
 5.56058E+16  4.18947E-52
 5.55749E+16  4.47473E-52
 5.55440E+16  4.77941E-52
 5.55132E+16  5.10483E-52
 5.54823E+16  5.45242E-52
 5.54515E+16  5.82367E-52
 5.54207E+16  6.22019E-52
 5.53899E+16  6.64372E-52
 5.53592E+16  7.09608E-52
 5.53284E+16  7.57925E-52
 5.52977E+16  8.09531E-52
 5.52670E+16  8.64651E-52
 5.52363E+16  9.23525E-52
 5.52056E+16  9.86406E-52
 5.51749E+16  1.05357E-51
 5.51443E+16  1.12531E-51
 5.51137E+16  1.20193E-51
 5.50831E+16  1.28377E-51
 5.50525E+16  1.37118E-51
 5.50219E+16  1.46454E-51
 5.49913E+16  1.56426E-51
 5.49608E+16  1.67076E-51
 5.49303E+16  1.78453E-51
 5.48998E+16  1.90603E-51
 5.48693E+16  2.03581E-51
 5.48388E+16  2.17443E-51
 5.48083E+16  2.32248E-51
 5.47779E+16  2.48062E-51
 5.47475E+16  2.64952E-51
 5.47171E+16  2.82992E-51
 5.46867E+16  3.02261E-51
 5.46563E+16  3.22842E-51
 5.46259E+16  3.44824E-51
 5.45956E+16  3.68302E-51
 5.45653E+16  3.93380E-51
 5.45350E+16  4.20164E-51
 5.45047E+16  4.48773E-51
 5.44744E+16  4.79329E-51
 5.44442E+16  5.11966E-51
 5.44139E+16  5.46826E-51
 5.43837E+16  5.84058E-51
 5.43535E+16  6.23826E-51
 5.43233E+16  6.66302E-51
 5.42931E+16  7.11670E-51
 5.42630E+16  7.59599E-51
 5.42328E+16  8.08776E-51
 5.42027E+16  8.61194E-51
 5.41726E+16  9.17008E-51
 5.41425E+16  9.76440E-51
 5.41125E+16  1.03972E-50
 5.40824E+16  1.10711E-50
 5.40524E+16  1.17886E-50
 5.40224E+16  1.25526E-50
 5.39923E+16  1.33662E-50
 5.39624E+16  1.42325E-50
 5.39324E+16  1.51549E-50
 5.39024E+16  1.61371E-50
 5.38725E+16  1.71829E-50
 5.38426E+16  1.82966E-50
 5.38127E+16  1.94824E-50
 5.37828E+16  2.07451E-50
 5.37529E+16  2.20896E-50
 5.37231E+16  2.35212E-50
 5.36932E+16  2.50456E-50
 5.36634E+16  2.66688E-50
 5.36336E+16  2.83973E-50
 5.36038E+16  3.02377E-50
 5.35740E+16  3.21974E-50
 5.35443E+16  3.42842E-50
 5.35145E+16  3.65062E-50
 5.34848E+16  3.88722E-50
 5.34551E+16  4.13915E-50
 5.34254E+16  4.40741E-50
 5.33958E+16  4.69306E-50
 5.33661E+16  4.99722E-50
 5.33365E+16  5.32109E-50
 5.33068E+16  5.66596E-50
 5.32772E+16  6.03317E-50
 5.32476E+16  6.42418E-50
 5.32181E+16  6.84054E-50
 5.31885E+16  7.28388E-50
 5.31590E+16  7.75595E-50
 5.31294E+16  8.25862E-50
 5.30999E+16  8.79387E-50
 5.30704E+16  9.36381E-50
 5.30410E+16  9.97068E-50
 5.30115E+16  1.06169E-49
 5.29821E+16  1.13050E-49
 5.29526E+16  1.20377E-49
 5.29232E+16  1.28178E-49
 5.28938E+16  1.36486E-49
 5.28645E+16  1.45331E-49
 5.28351E+16  1.54750E-49
 5.28058E+16  1.64780E-49
 5.27764E+16  1.75459E-49
 5.27471E+16  1.86831E-49
 5.27178E+16  1.98940E-49
 5.26885E+16  2.11833E-49
 5.26593E+16  2.25562E-49
 5.26300E+16  2.40181E-49
 5.26008E+16  2.55747E-49
 5.25716E+16  2.72322E-49
 5.25424E+16  2.89972E-49
 5.25132E+16  3.08765E-49
 5.24840E+16  3.28776E-49
 5.24549E+16  3.50085E-49
 5.24258E+16  3.72774E-49
 5.23966E+16  3.96934E-49
 5.23675E+16  4.22659E-49
 5.23385E+16  4.50052E-49
 5.23094E+16  4.79220E-49
 5.22803E+16  5.10279E-49
 5.22513E+16  5.43350E-49
 5.22223E+16  5.78565E-49
 5.21933E+16  6.16062E-49
 5.21643E+16  6.55990E-49
 5.21353E+16  6.98505E-49
 5.21064E+16  7.43776E-49
 5.20774E+16  7.91980E-49
 5.20485E+16  8.43309E-49
 5.20196E+16  8.97964E-49
 5.19907E+16  9.56162E-49
 5.19618E+16  1.01813E-48
 5.19330E+16  1.08412E-48
 5.19041E+16  1.15438E-48
 5.18753E+16  1.22920E-48
 5.18465E+16  1.30886E-48
 5.18177E+16  1.39369E-48
 5.17889E+16  1.48402E-48
 5.17601E+16  1.57927E-48
 5.17314E+16  1.67643E-48
 5.17027E+16  1.77958E-48
 5.16739E+16  1.88908E-48
 5.16452E+16  2.00531E-48
 5.16166E+16  2.12869E-48
 5.15879E+16  2.25967E-48
 5.15592E+16  2.39870E-48
 5.15306E+16  2.54629E-48
 5.15020E+16  2.70296E-48
 5.14734E+16  2.86927E-48
 5.14448E+16  3.04581E-48
 5.14162E+16  3.23322E-48
 5.13877E+16  3.43216E-48
 5.13591E+16  3.64333E-48
 5.13306E+16  3.86750E-48
 5.13021E+16  4.10546E-48
 5.12736E+16  4.35807E-48
 5.12451E+16  4.62621E-48
 5.12167E+16  4.91086E-48
 5.11882E+16  5.21302E-48
 5.11598E+16  5.53377E-48
 5.11314E+16  5.87426E-48
 5.11030E+16  6.23569E-48
 5.10746E+16  6.61937E-48
 5.10462E+16  7.02665E-48
 5.10179E+16  7.45899E-48
 5.09895E+16  7.91793E-48
 5.09612E+16  8.40511E-48
 5.09329E+16  8.92227E-48
 5.09046E+16  9.47124E-48
 5.08764E+16  1.00540E-47
 5.08481E+16  1.06726E-47
 5.08199E+16  1.13293E-47
 5.07916E+16  1.20264E-47
 5.07634E+16  1.27663E-47
 5.07352E+16  1.35518E-47
 5.07071E+16  1.43856E-47
 5.06789E+16  1.52708E-47
 5.06507E+16  1.62104E-47
 5.06226E+16  1.72078E-47
 5.05945E+16  1.82665E-47
 5.05664E+16  1.93905E-47
 5.05383E+16  2.05835E-47
 5.05102E+16  2.18500E-47
 5.04822E+16  2.31944E-47
 5.04542E+16  2.46215E-47
 5.04261E+16  2.61365E-47
 5.03981E+16  2.77446E-47
 5.03701E+16  2.94517E-47
 5.03422E+16  3.12638E-47
 5.03142E+16  3.31875E-47
 5.02863E+16  3.52294E-47
 5.02583E+16  3.73971E-47
 5.02304E+16  3.96981E-47
 5.02025E+16  4.21406E-47
 5.01746E+16  4.47335E-47
 5.01468E+16  4.74859E-47
 5.01189E+16  5.04076E-47
 5.00911E+16  5.35092E-47
 5.00633E+16  5.68015E-47
 5.00354E+16  6.02964E-47
 5.00077E+16  6.40064E-47
 4.99799E+16  6.79446E-47
 4.99521E+16  7.21252E-47
 4.99244E+16  7.65630E-47
 4.98967E+16  8.12738E-47
 4.98689E+16  8.62745E-47
 4.98412E+16  9.15828E-47
 4.98136E+16  9.72178E-47
 4.97859E+16  1.03200E-46
 4.97582E+16  1.09549E-46
 4.97306E+16  1.16290E-46
 4.97030E+16  1.23445E-46
 4.96754E+16  1.31040E-46
 4.96478E+16  1.39103E-46
 4.96202E+16  1.47662E-46
 4.95927E+16  1.56747E-46
 4.95651E+16  1.66392E-46
 4.95376E+16  1.76630E-46
 4.95101E+16  1.87497E-46
 4.94826E+16  1.99034E-46
 4.94551E+16  2.11280E-46
 4.94276E+16  2.24280E-46
 4.94002E+16  2.38080E-46
 4.93727E+16  2.52728E-46
 4.93453E+16  2.68278E-46
 4.93179E+16  2.84785E-46
 4.92905E+16  3.02308E-46
 4.92631E+16  3.20867E-46
 4.92358E+16  3.39686E-46
 4.92084E+16  3.59469E-46
 4.91811E+16  3.80404E-46
 4.91538E+16  4.02559E-46
 4.91265E+16  4.26003E-46
 4.90992E+16  4.50814E-46
 4.90719E+16  4.77069E-46
 4.90447E+16  5.04853E-46
 4.90174E+16  5.34255E-46
 4.89902E+16  5.65370E-46
 4.89630E+16  5.98297E-46
 4.89358E+16  6.33141E-46
 4.89086E+16  6.70015E-46
 4.88815E+16  7.09036E-46
 4.88543E+16  7.50330E-46
 4.88272E+16  7.94029E-46
 4.88001E+16  8.40273E-46
 4.87730E+16  8.89210E-46
 4.87459E+16  9.40997E-46
 4.87188E+16  9.95800E-46
 4.86918E+16  1.05379E-45
 4.86647E+16  1.11517E-45
 4.86377E+16  1.18011E-45
 4.86107E+16  1.24884E-45
 4.85837E+16  1.32157E-45
 4.85567E+16  1.39854E-45
 4.85297E+16  1.47999E-45
 4.85028E+16  1.56619E-45
 4.84758E+16  1.65740E-45
 4.84489E+16  1.75393E-45
 4.84220E+16  1.85607E-45
 4.83951E+16  1.96417E-45
 4.83682E+16  2.07856E-45
 4.83414E+16  2.19962E-45
 4.83145E+16  2.32772E-45
 4.82877E+16  2.46329E-45
 4.82609E+16  2.60675E-45
 4.82341E+16  2.75856E-45
 4.82073E+16  2.91922E-45
 4.81805E+16  3.08923E-45
 4.81537E+16  3.26915E-45
 4.81270E+16  3.45954E-45
 4.81003E+16  3.66102E-45
 4.80735E+16  3.87424E-45
 4.80468E+16  4.09987E-45
 4.80202E+16  4.33864E-45
 4.79935E+16  4.59132E-45
 4.79668E+16  4.85872E-45
 4.79402E+16  5.14169E-45
 4.79136E+16  5.44114E-45
 4.78870E+16  5.75803E-45
 4.78604E+16  6.09337E-45
 4.78338E+16  6.44824E-45
 4.78072E+16  6.82379E-45
 4.77807E+16  7.22120E-45
 4.77541E+16  7.64176E-45
 4.77276E+16  8.08681E-45
 4.77011E+16  8.55778E-45
 4.76746E+16  9.05618E-45
 4.76481E+16  9.58361E-45
 4.76217E+16  1.01417E-44
 4.75952E+16  1.07324E-44
 4.75688E+16  1.13574E-44
 4.75424E+16  1.20189E-44
 4.75159E+16  1.27189E-44
 4.74896E+16  1.34596E-44
 4.74632E+16  1.42435E-44
 4.74368E+16  1.50730E-44
 4.74105E+16  1.59509E-44
 4.73841E+16  1.68798E-44
 4.73578E+16  1.78629E-44
 4.73315E+16  1.89032E-44
 4.73052E+16  2.00041E-44
 4.72790E+16  2.11692E-44
 4.72527E+16  2.24021E-44
 4.72265E+16  2.37067E-44
 4.72002E+16  2.50874E-44
 4.71740E+16  2.65485E-44
 4.71478E+16  2.80946E-44
 4.71216E+16  2.97309E-44
 4.70955E+16  3.14624E-44
 4.70693E+16  3.32947E-44
 4.70432E+16  3.52338E-44
 4.70170E+16  3.72858E-44
 4.69909E+16  3.94573E-44
 4.69648E+16  4.17552E-44
 4.69387E+16  4.41870E-44
 4.69127E+16  4.67605E-44
 4.68866E+16  4.94838E-44
 4.68606E+16  5.23657E-44
 4.68345E+16  5.54154E-44
 4.68085E+16  5.86428E-44
 4.67825E+16  6.20581E-44
 4.67566E+16  6.56567E-44
 4.67306E+16  6.92843E-44
 4.67046E+16  7.30908E-44
 4.66787E+16  7.71064E-44
 4.66528E+16  8.13426E-44
 4.66269E+16  8.58115E-44
 4.66010E+16  9.05260E-44
 4.65751E+16  9.54995E-44
 4.65492E+16  1.00746E-43
 4.65234E+16  1.06281E-43
 4.64975E+16  1.12120E-43
 4.64717E+16  1.18280E-43
 4.64459E+16  1.24778E-43
 4.64201E+16  1.31634E-43
 4.63943E+16  1.38866E-43
 4.63685E+16  1.46495E-43
 4.63428E+16  1.54543E-43
 4.63170E+16  1.63034E-43
 4.62913E+16  1.71991E-43
 4.62656E+16  1.81440E-43
 4.62399E+16  1.91408E-43
 4.62142E+16  2.01924E-43
 4.61886E+16  2.13018E-43
 4.61629E+16  2.24721E-43
 4.61373E+16  2.37067E-43
 4.61116E+16  2.50092E-43
 4.60860E+16  2.63832E-43
 4.60604E+16  2.78327E-43
 4.60349E+16  2.93618E-43
 4.60093E+16  3.09749E-43
 4.59837E+16  3.26767E-43
 4.59582E+16  3.44719E-43
 4.59327E+16  3.63658E-43
 4.59072E+16  3.83638E-43
 4.58817E+16  4.04715E-43
 4.58562E+16  4.26950E-43
 4.58307E+16  4.50406E-43
 4.58053E+16  4.75151E-43
 4.57798E+16  5.01256E-43
 4.57544E+16  5.28795E-43
 4.57290E+16  5.57847E-43
 4.57036E+16  5.88495E-43
 4.56782E+16  6.20827E-43
 4.56528E+16  6.54935E-43
 4.56275E+16  6.90917E-43
 4.56021E+16  7.28876E-43
 4.55768E+16  7.68920E-43
 4.55515E+16  8.11165E-43
 4.55262E+16  8.55730E-43
 4.55009E+16  9.02743E-43
 4.54756E+16  9.52340E-43
 4.54504E+16  1.00466E-42
 4.54251E+16  1.05986E-42
 4.53999E+16  1.11809E-42
 4.53747E+16  1.17951E-42
 4.53495E+16  1.24432E-42
 4.53243E+16  1.31268E-42
 4.52991E+16  1.38480E-42
 4.52740E+16  1.46088E-42
 4.52488E+16  1.54114E-42
 4.52237E+16  1.62581E-42
 4.51986E+16  1.71513E-42
 4.51735E+16  1.80936E-42
 4.51484E+16  1.90876E-42
 4.51233E+16  2.01363E-42
 4.50983E+16  2.12426E-42
 4.50732E+16  2.24097E-42
 4.50482E+16  2.36408E-42
 4.50232E+16  2.49397E-42
 4.49981E+16  2.63099E-42
 4.49732E+16  2.77553E-42
 4.49482E+16  2.92802E-42
 4.49232E+16  3.08888E-42
 4.48983E+16  3.25859E-42
 4.48733E+16  3.43761E-42
 4.48484E+16  3.62647E-42
 4.48235E+16  3.82571E-42
 4.47986E+16  4.03590E-42
 4.47737E+16  4.25763E-42
 4.47489E+16  4.49154E-42
 4.47240E+16  4.73831E-42
 4.46992E+16  4.99863E-42
 4.46743E+16  5.27325E-42
 4.46495E+16  5.56296E-42
 4.46247E+16  5.86859E-42
 4.45999E+16  6.19101E-42
 4.45752E+16  6.53114E-42
 4.45504E+16  6.88996E-42
 4.45257E+16  7.26850E-42
 4.45009E+16  7.66783E-42
 4.44762E+16  8.08910E-42
 4.44515E+16  8.53351E-42
 4.44268E+16  9.00234E-42
 4.44022E+16  9.49693E-42
 4.43775E+16  1.00187E-41
 4.43528E+16  1.05691E-41
 4.43282E+16  1.11498E-41
 4.43036E+16  1.17623E-41
 4.42790E+16  1.24086E-41
 4.42544E+16  1.30889E-41
 4.42298E+16  1.37716E-41
 4.42053E+16  1.44826E-41
 4.41807E+16  1.52303E-41
 4.41562E+16  1.60166E-41
 4.41316E+16  1.68434E-41
 4.41071E+16  1.77130E-41
 4.40826E+16  1.86275E-41
 4.40581E+16  1.95892E-41
 4.40337E+16  2.06005E-41
 4.40092E+16  2.16641E-41
 4.39848E+16  2.27825E-41
 4.39604E+16  2.39587E-41
 4.39359E+16  2.51956E-41
 4.39115E+16  2.64964E-41
 4.38871E+16  2.78643E-41
 4.38628E+16  2.93029E-41
 4.38384E+16  3.08157E-41
 4.38141E+16  3.24067E-41
 4.37897E+16  3.40797E-41
 4.37654E+16  3.58392E-41
 4.37411E+16  3.76894E-41
 4.37168E+16  3.96352E-41
