 TLUSTY Ostars, Lanz & Hubeny 2003
 T 50000. G 4.75000 M07 TLUSTY
 Frequency   Eddington Hnu
   (Hz)    (ergs/s/cm2/Hz/sr)
 6.67944E+16  1.39202E-31
 6.67573E+16  1.40627E-31
 6.67202E+16  1.42549E-31
 6.66831E+16  1.44498E-31
 6.66461E+16  1.46474E-31
 6.66091E+16  1.48476E-31
 6.65721E+16  1.50506E-31
 6.65351E+16  1.52564E-31
 6.64982E+16  1.54650E-31
 6.64612E+16  1.56764E-31
 6.64243E+16  1.58907E-31
 6.63874E+16  1.61080E-31
 6.63506E+16  1.63282E-31
 6.63137E+16  1.65514E-31
 6.62769E+16  1.67777E-31
 6.62401E+16  1.70071E-31
 6.62033E+16  1.72396E-31
 6.61665E+16  1.74753E-31
 6.61298E+16  1.77142E-31
 6.60930E+16  1.79564E-31
 6.60563E+16  1.82019E-31
 6.60196E+16  1.84508E-31
 6.59830E+16  1.87030E-31
 6.59463E+16  1.89587E-31
 6.59097E+16  1.92179E-31
 6.58731E+16  1.94807E-31
 6.58365E+16  1.97470E-31
 6.57999E+16  2.00170E-31
 6.57634E+16  2.02906E-31
 6.57269E+16  2.05680E-31
 6.56904E+16  2.08492E-31
 6.56539E+16  2.11343E-31
 6.56174E+16  2.14232E-31
 6.55810E+16  2.17161E-31
 6.55445E+16  2.20130E-31
 6.55081E+16  2.23140E-31
 6.54718E+16  2.26190E-31
 6.54354E+16  2.29283E-31
 6.53991E+16  2.32417E-31
 6.53627E+16  2.35595E-31
 6.53264E+16  2.38816E-31
 6.52901E+16  2.42081E-31
 6.52539E+16  2.45391E-31
 6.52176E+16  2.48746E-31
 6.51814E+16  2.52146E-31
 6.51452E+16  2.55594E-31
 6.51090E+16  2.59088E-31
 6.50729E+16  2.62630E-31
 6.50367E+16  2.66221E-31
 6.50006E+16  2.69860E-31
 6.49645E+16  2.73550E-31
 6.49284E+16  2.77290E-31
 6.48924E+16  2.81081E-31
 6.48563E+16  2.84924E-31
 6.48203E+16  2.88819E-31
 6.47843E+16  2.92768E-31
 6.47483E+16  2.96770E-31
 6.47124E+16  3.00828E-31
 6.46764E+16  3.04941E-31
 6.46405E+16  3.09110E-31
 6.46046E+16  3.13336E-31
 6.45687E+16  3.17619E-31
 6.45329E+16  3.21962E-31
 6.44970E+16  3.26364E-31
 6.44612E+16  3.30826E-31
 6.44254E+16  3.35349E-31
 6.43896E+16  3.39933E-31
 6.43539E+16  3.44581E-31
 6.43181E+16  3.49292E-31
 6.42824E+16  3.55094E-31
 6.42467E+16  3.63985E-31
 6.42110E+16  3.73300E-31
 6.41753E+16  3.82854E-31
 6.41397E+16  3.92652E-31
 6.41041E+16  4.02701E-31
 6.40685E+16  4.13007E-31
 6.40329E+16  4.23577E-31
 6.39973E+16  4.34418E-31
 6.39618E+16  4.45536E-31
 6.39263E+16  4.56938E-31
 6.38908E+16  4.68632E-31
 6.38553E+16  4.80626E-31
 6.38198E+16  4.92926E-31
 6.37844E+16  5.05542E-31
 6.37489E+16  5.18480E-31
 6.37135E+16  5.31749E-31
 6.36781E+16  5.45358E-31
 6.36428E+16  5.59315E-31
 6.36074E+16  5.73629E-31
 6.35721E+16  5.88310E-31
 6.35368E+16  6.03366E-31
 6.35015E+16  6.18808E-31
 6.34662E+16  6.34645E-31
 6.34310E+16  6.50887E-31
 6.33958E+16  6.67545E-31
 6.33605E+16  6.84629E-31
 6.33254E+16  7.02151E-31
 6.32902E+16  7.20121E-31
 6.32550E+16  7.38550E-31
 6.32199E+16  7.57452E-31
 6.31848E+16  7.76837E-31
 6.31497E+16  7.96718E-31
 6.31146E+16  8.17108E-31
 6.30796E+16  8.38020E-31
 6.30445E+16  8.59467E-31
 6.30095E+16  8.81463E-31
 6.29745E+16  9.04022E-31
 6.29395E+16  9.27159E-31
 6.29046E+16  9.50887E-31
 6.28697E+16  9.75223E-31
 6.28347E+16  1.00018E-30
 6.27998E+16  1.02578E-30
 6.27650E+16  1.05203E-30
 6.27301E+16  1.07895E-30
 6.26953E+16  1.10657E-30
 6.26604E+16  1.13489E-30
 6.26256E+16  1.16393E-30
 6.25909E+16  1.19372E-30
 6.25561E+16  1.22427E-30
 6.25213E+16  1.25560E-30
 6.24866E+16  1.28774E-30
 6.24519E+16  1.32069E-30
 6.24172E+16  1.35449E-30
 6.23826E+16  1.38916E-30
 6.23479E+16  1.42471E-30
 6.23133E+16  1.46117E-30
 6.22787E+16  1.49857E-30
 6.22441E+16  1.53692E-30
 6.22095E+16  1.57625E-30
 6.21750E+16  1.61660E-30
 6.21404E+16  1.65797E-30
 6.21059E+16  1.70040E-30
 6.20714E+16  1.74392E-30
 6.20370E+16  1.78855E-30
 6.20025E+16  1.83432E-30
 6.19681E+16  1.88127E-30
 6.19337E+16  1.92941E-30
 6.18993E+16  1.97879E-30
 6.18649E+16  2.02944E-30
 6.18305E+16  2.08137E-30
 6.17962E+16  2.13491E-30
 6.17619E+16  2.19973E-30
 6.17276E+16  2.27216E-30
 6.16933E+16  2.34697E-30
 6.16590E+16  2.42425E-30
 6.16248E+16  2.50407E-30
 6.15905E+16  2.58652E-30
 6.15563E+16  2.67169E-30
 6.15221E+16  2.75966E-30
 6.14880E+16  2.85053E-30
 6.14538E+16  2.94439E-30
 6.14197E+16  3.04134E-30
 6.13856E+16  3.14148E-30
 6.13515E+16  3.24492E-30
 6.13174E+16  3.35176E-30
 6.12834E+16  3.46213E-30
 6.12493E+16  3.57612E-30
 6.12153E+16  3.69387E-30
 6.11813E+16  3.81550E-30
 6.11473E+16  3.94114E-30
 6.11134E+16  4.07091E-30
 6.10794E+16  4.20495E-30
 6.10455E+16  4.34340E-30
 6.10116E+16  4.48642E-30
 6.09777E+16  4.63414E-30
 6.09438E+16  4.78673E-30
 6.09100E+16  4.94434E-30
 6.08762E+16  5.10714E-30
 6.08423E+16  5.27531E-30
 6.08086E+16  5.44901E-30
 6.07748E+16  5.62843E-30
 6.07410E+16  5.81375E-30
 6.07073E+16  6.00518E-30
 6.06736E+16  6.20291E-30
 6.06399E+16  6.40716E-30
 6.06062E+16  6.61813E-30
 6.05725E+16  6.83604E-30
 6.05389E+16  7.06113E-30
 6.05053E+16  7.29363E-30
 6.04717E+16  7.53379E-30
 6.04381E+16  7.78185E-30
 6.04045E+16  8.03808E-30
 6.03710E+16  8.30275E-30
 6.03374E+16  8.57614E-30
 6.03039E+16  8.85852E-30
 6.02704E+16  9.15021E-30
 6.02370E+16  9.45150E-30
 6.02035E+16  9.76270E-30
 6.01701E+16  1.00842E-29
 6.01366E+16  1.04162E-29
 6.01032E+16  1.07592E-29
 6.00699E+16  1.11134E-29
 6.00365E+16  1.14794E-29
 6.00032E+16  1.18574E-29
 5.99698E+16  1.22478E-29
 5.99365E+16  1.26511E-29
 5.99032E+16  1.30676E-29
 5.98700E+16  1.34979E-29
 5.98367E+16  1.39423E-29
 5.98035E+16  1.44014E-29
 5.97703E+16  1.48756E-29
 5.97371E+16  1.53654E-29
 5.97039E+16  1.58714E-29
 5.96707E+16  1.63940E-29
 5.96376E+16  1.69338E-29
 5.96045E+16  1.74913E-29
 5.95714E+16  1.80673E-29
 5.95383E+16  1.86622E-29
 5.95052E+16  1.92767E-29
 5.94722E+16  1.99114E-29
 5.94391E+16  2.05670E-29
 5.94061E+16  2.12442E-29
 5.93731E+16  2.19437E-29
 5.93402E+16  2.26663E-29
 5.93072E+16  2.34126E-29
 5.92743E+16  2.41939E-29
 5.92413E+16  2.50297E-29
 5.92084E+16  2.58978E-29
 5.91755E+16  2.67960E-29
 5.91427E+16  2.77253E-29
 5.91098E+16  2.86869E-29
 5.90770E+16  2.96819E-29
 5.90442E+16  3.07113E-29
 5.90114E+16  3.17765E-29
 5.89786E+16  3.28786E-29
 5.89459E+16  3.40189E-29
 5.89131E+16  3.51987E-29
 5.88804E+16  3.64195E-29
 5.88477E+16  3.76827E-29
 5.88150E+16  3.89896E-29
 5.87824E+16  4.03419E-29
 5.87497E+16  4.17410E-29
 5.87171E+16  4.31887E-29
 5.86845E+16  4.46866E-29
 5.86519E+16  4.62365E-29
 5.86193E+16  4.78401E-29
 5.85867E+16  4.94993E-29
 5.85542E+16  5.12161E-29
 5.85217E+16  5.29924E-29
 5.84892E+16  5.48303E-29
 5.84567E+16  5.67320E-29
 5.84242E+16  5.86996E-29
 5.83918E+16  6.07355E-29
 5.83594E+16  6.28420E-29
 5.83269E+16  6.50215E-29
 5.82945E+16  6.72766E-29
 5.82622E+16  6.96100E-29
 5.82298E+16  7.20242E-29
 5.81975E+16  7.45222E-29
 5.81651E+16  7.71069E-29
 5.81328E+16  7.97812E-29
 5.81006E+16  8.25482E-29
 5.80683E+16  8.54112E-29
 5.80360E+16  8.83735E-29
 5.80038E+16  9.14385E-29
 5.79716E+16  9.46099E-29
 5.79394E+16  9.78912E-29
 5.79072E+16  1.01286E-28
 5.78750E+16  1.04799E-28
 5.78429E+16  1.08434E-28
 5.78108E+16  1.12195E-28
 5.77787E+16  1.16086E-28
 5.77466E+16  1.20112E-28
 5.77145E+16  1.24278E-28
 5.76825E+16  1.28588E-28
 5.76504E+16  1.33048E-28
 5.76184E+16  1.37663E-28
 5.75864E+16  1.42437E-28
 5.75544E+16  1.47377E-28
 5.75224E+16  1.52489E-28
 5.74905E+16  1.57777E-28
 5.74586E+16  1.63250E-28
 5.74267E+16  1.68911E-28
 5.73948E+16  1.74770E-28
 5.73629E+16  1.80831E-28
 5.73310E+16  1.87103E-28
 5.72992E+16  1.93592E-28
 5.72674E+16  2.00307E-28
 5.72356E+16  2.07254E-28
 5.72038E+16  2.14442E-28
 5.71720E+16  2.21879E-28
 5.71402E+16  2.29575E-28
 5.71085E+16  2.37537E-28
 5.70768E+16  2.45775E-28
 5.70451E+16  2.54300E-28
 5.70134E+16  2.63119E-28
 5.69817E+16  2.72245E-28
 5.69501E+16  2.81687E-28
 5.69185E+16  2.91457E-28
 5.68869E+16  3.01566E-28
 5.68553E+16  3.12025E-28
 5.68237E+16  3.22847E-28
 5.67921E+16  3.34044E-28
 5.67606E+16  3.45603E-28
 5.67291E+16  3.57480E-28
 5.66975E+16  3.69782E-28
 5.66661E+16  3.82507E-28
 5.66346E+16  3.95670E-28
 5.66031E+16  4.09286E-28
 5.65717E+16  4.23370E-28
 5.65403E+16  4.37940E-28
 5.65089E+16  4.53010E-28
 5.64775E+16  4.68599E-28
 5.64461E+16  4.84725E-28
 5.64148E+16  5.01406E-28
 5.63834E+16  5.18660E-28
 5.63521E+16  5.36509E-28
 5.63208E+16  5.54971E-28
 5.62895E+16  5.74069E-28
 5.62583E+16  5.93824E-28
 5.62270E+16  6.14259E-28
 5.61958E+16  6.35397E-28
 5.61646E+16  6.57263E-28
 5.61334E+16  6.79881E-28
 5.61022E+16  7.03277E-28
 5.60711E+16  7.27479E-28
 5.60399E+16  7.52513E-28
 5.60088E+16  7.78409E-28
 5.59777E+16  8.05196E-28
 5.59466E+16  8.32905E-28
 5.59155E+16  8.61567E-28
 5.58845E+16  8.91216E-28
 5.58534E+16  9.21885E-28
 5.58224E+16  9.53609E-28
 5.57914E+16  9.86425E-28
 5.57604E+16  1.02037E-27
 5.57295E+16  1.05548E-27
 5.56985E+16  1.09181E-27
 5.56676E+16  1.12938E-27
 5.56367E+16  1.16824E-27
 5.56058E+16  1.20844E-27
 5.55749E+16  1.25003E-27
 5.55440E+16  1.29305E-27
 5.55132E+16  1.33754E-27
 5.54823E+16  1.38357E-27
 5.54515E+16  1.43118E-27
 5.54207E+16  1.48043E-27
 5.53899E+16  1.53138E-27
 5.53592E+16  1.58408E-27
 5.53284E+16  1.63859E-27
 5.52977E+16  1.69498E-27
 5.52670E+16  1.75331E-27
 5.52363E+16  1.81364E-27
 5.52056E+16  1.87605E-27
 5.51749E+16  1.94061E-27
 5.51443E+16  2.00739E-27
 5.51137E+16  2.07647E-27
 5.50831E+16  2.14793E-27
 5.50525E+16  2.22185E-27
 5.50219E+16  2.29830E-27
 5.49913E+16  2.37740E-27
 5.49608E+16  2.45921E-27
 5.49303E+16  2.54383E-27
 5.48998E+16  2.63137E-27
 5.48693E+16  2.72193E-27
 5.48388E+16  2.81559E-27
 5.48083E+16  2.91249E-27
 5.47779E+16  3.01271E-27
 5.47475E+16  3.11639E-27
 5.47171E+16  3.22363E-27
 5.46867E+16  3.33456E-27
 5.46563E+16  3.44931E-27
 5.46259E+16  3.56801E-27
 5.45956E+16  3.69080E-27
 5.45653E+16  3.81781E-27
 5.45350E+16  3.94919E-27
 5.45047E+16  4.08509E-27
 5.44744E+16  4.22566E-27
 5.44442E+16  4.37108E-27
 5.44139E+16  4.52150E-27
 5.43837E+16  4.67710E-27
 5.43535E+16  4.83805E-27
 5.43233E+16  5.00454E-27
 5.42931E+16  5.17675E-27
 5.42630E+16  5.35377E-27
 5.42328E+16  5.53287E-27
 5.42027E+16  5.71805E-27
 5.41726E+16  5.90943E-27
 5.41425E+16  6.10722E-27
 5.41125E+16  6.31162E-27
 5.40824E+16  6.52286E-27
 5.40524E+16  6.74118E-27
 5.40224E+16  6.96680E-27
 5.39923E+16  7.19997E-27
 5.39624E+16  7.44095E-27
 5.39324E+16  7.68999E-27
 5.39024E+16  7.94737E-27
 5.38725E+16  8.21336E-27
 5.38426E+16  8.48826E-27
 5.38127E+16  8.77235E-27
 5.37828E+16  9.06595E-27
 5.37529E+16  9.36938E-27
 5.37231E+16  9.68297E-27
 5.36932E+16  1.00071E-26
 5.36634E+16  1.03420E-26
 5.36336E+16  1.06881E-26
 5.36038E+16  1.10458E-26
 5.35740E+16  1.14155E-26
 5.35443E+16  1.17976E-26
 5.35145E+16  1.21925E-26
 5.34848E+16  1.26005E-26
 5.34551E+16  1.30223E-26
 5.34254E+16  1.34581E-26
 5.33958E+16  1.39085E-26
 5.33661E+16  1.43740E-26
 5.33365E+16  1.48551E-26
 5.33068E+16  1.53523E-26
 5.32772E+16  1.58661E-26
 5.32476E+16  1.63972E-26
 5.32181E+16  1.69460E-26
 5.31885E+16  1.75131E-26
 5.31590E+16  1.80993E-26
 5.31294E+16  1.87051E-26
 5.30999E+16  1.93311E-26
 5.30704E+16  1.99781E-26
 5.30410E+16  2.06467E-26
 5.30115E+16  2.13378E-26
 5.29821E+16  2.20519E-26
 5.29526E+16  2.27900E-26
 5.29232E+16  2.35527E-26
 5.28938E+16  2.43410E-26
 5.28645E+16  2.51557E-26
 5.28351E+16  2.59976E-26
 5.28058E+16  2.68678E-26
 5.27764E+16  2.77670E-26
 5.27471E+16  2.86963E-26
 5.27178E+16  2.96568E-26
 5.26885E+16  3.06494E-26
 5.26593E+16  3.16752E-26
 5.26300E+16  3.27353E-26
 5.26008E+16  3.38310E-26
 5.25716E+16  3.49632E-26
 5.25424E+16  3.61334E-26
 5.25132E+16  3.73428E-26
 5.24840E+16  3.85926E-26
 5.24549E+16  3.98843E-26
 5.24258E+16  4.12192E-26
 5.23966E+16  4.25987E-26
 5.23675E+16  4.40245E-26
 5.23385E+16  4.54980E-26
 5.23094E+16  4.70207E-26
 5.22803E+16  4.85945E-26
 5.22513E+16  5.02209E-26
 5.22223E+16  5.19017E-26
 5.21933E+16  5.36388E-26
 5.21643E+16  5.54341E-26
 5.21353E+16  5.72894E-26
 5.21064E+16  5.92069E-26
 5.20774E+16  6.11885E-26
 5.20485E+16  6.32364E-26
 5.20196E+16  6.53528E-26
 5.19907E+16  6.75402E-26
 5.19618E+16  6.98007E-26
 5.19330E+16  7.21368E-26
 5.19041E+16  7.45512E-26
 5.18753E+16  7.70464E-26
 5.18465E+16  7.96250E-26
 5.18177E+16  8.22900E-26
 5.17889E+16  8.50442E-26
 5.17601E+16  8.78688E-26
 5.17314E+16  9.07016E-26
 5.17027E+16  9.36243E-26
 5.16739E+16  9.66411E-26
 5.16452E+16  9.97551E-26
 5.16166E+16  1.02969E-25
 5.15879E+16  1.06287E-25
 5.15592E+16  1.09712E-25
 5.15306E+16  1.13247E-25
 5.15020E+16  1.16897E-25
 5.14734E+16  1.20663E-25
 5.14448E+16  1.24551E-25
 5.14162E+16  1.28565E-25
 5.13877E+16  1.32707E-25
 5.13591E+16  1.36984E-25
 5.13306E+16  1.41398E-25
 5.13021E+16  1.45954E-25
 5.12736E+16  1.50657E-25
 5.12451E+16  1.55511E-25
 5.12167E+16  1.60522E-25
 5.11882E+16  1.65695E-25
 5.11598E+16  1.71034E-25
 5.11314E+16  1.76545E-25
 5.11030E+16  1.82234E-25
 5.10746E+16  1.88106E-25
 5.10462E+16  1.94167E-25
 5.10179E+16  2.00424E-25
 5.09895E+16  2.06882E-25
 5.09612E+16  2.13548E-25
 5.09329E+16  2.20429E-25
 5.09046E+16  2.27532E-25
 5.08764E+16  2.34864E-25
 5.08481E+16  2.42432E-25
 5.08199E+16  2.50243E-25
 5.07916E+16  2.58307E-25
 5.07634E+16  2.66630E-25
 5.07352E+16  2.75222E-25
 5.07071E+16  2.84090E-25
 5.06789E+16  2.93244E-25
 5.06507E+16  3.02693E-25
 5.06226E+16  3.12447E-25
 5.05945E+16  3.22515E-25
 5.05664E+16  3.32907E-25
 5.05383E+16  3.43634E-25
 5.05102E+16  3.54707E-25
 5.04822E+16  3.66136E-25
 5.04542E+16  3.77934E-25
 5.04261E+16  3.90112E-25
 5.03981E+16  4.02683E-25
 5.03701E+16  4.15658E-25
 5.03422E+16  4.29052E-25
 5.03142E+16  4.42877E-25
 5.02863E+16  4.57147E-25
 5.02583E+16  4.71878E-25
 5.02304E+16  4.87083E-25
 5.02025E+16  5.02778E-25
 5.01746E+16  5.18979E-25
 5.01468E+16  5.35702E-25
 5.01189E+16  5.52964E-25
 5.00911E+16  5.70781E-25
 5.00633E+16  5.89173E-25
 5.00354E+16  6.08158E-25
 5.00077E+16  6.27755E-25
 4.99799E+16  6.47982E-25
 4.99521E+16  6.68862E-25
 4.99244E+16  6.90415E-25
 4.98967E+16  7.12662E-25
 4.98689E+16  7.35625E-25
 4.98412E+16  7.59329E-25
 4.98136E+16  7.83797E-25
 4.97859E+16  8.09053E-25
 4.97582E+16  8.35122E-25
 4.97306E+16  8.62032E-25
 4.97030E+16  8.89809E-25
 4.96754E+16  9.18481E-25
 4.96478E+16  9.48077E-25
 4.96202E+16  9.78626E-25
 4.95927E+16  1.01016E-24
 4.95651E+16  1.04271E-24
 4.95376E+16  1.07631E-24
 4.95101E+16  1.11099E-24
 4.94826E+16  1.14679E-24
 4.94551E+16  1.18374E-24
 4.94276E+16  1.22189E-24
 4.94002E+16  1.26126E-24
 4.93727E+16  1.30190E-24
 4.93453E+16  1.34385E-24
 4.93179E+16  1.38715E-24
 4.92905E+16  1.43185E-24
 4.92631E+16  1.47787E-24
 4.92358E+16  1.52370E-24
 4.92084E+16  1.57064E-24
 4.91811E+16  1.61904E-24
 4.91538E+16  1.66892E-24
 4.91265E+16  1.72034E-24
 4.90992E+16  1.77334E-24
 4.90719E+16  1.82798E-24
 4.90447E+16  1.88430E-24
 4.90174E+16  1.94236E-24
 4.89902E+16  2.00220E-24
 4.89630E+16  2.06389E-24
 4.89358E+16  2.12748E-24
 4.89086E+16  2.19303E-24
 4.88815E+16  2.26060E-24
 4.88543E+16  2.33025E-24
 4.88272E+16  2.40204E-24
 4.88001E+16  2.47605E-24
 4.87730E+16  2.55234E-24
 4.87459E+16  2.63098E-24
 4.87188E+16  2.71204E-24
 4.86918E+16  2.79560E-24
 4.86647E+16  2.88173E-24
 4.86377E+16  2.97052E-24
 4.86107E+16  3.06204E-24
 4.85837E+16  3.15638E-24
 4.85567E+16  3.25363E-24
 4.85297E+16  3.35388E-24
 4.85028E+16  3.45721E-24
 4.84758E+16  3.56373E-24
 4.84489E+16  3.67353E-24
 4.84220E+16  3.78671E-24
 4.83951E+16  3.90338E-24
 4.83682E+16  4.02365E-24
 4.83414E+16  4.14762E-24
 4.83145E+16  4.27541E-24
 4.82877E+16  4.40713E-24
 4.82609E+16  4.54292E-24
 4.82341E+16  4.68289E-24
 4.82073E+16  4.82717E-24
 4.81805E+16  4.97590E-24
 4.81537E+16  5.12921E-24
 4.81270E+16  5.28724E-24
 4.81003E+16  5.45014E-24
 4.80735E+16  5.61806E-24
 4.80468E+16  5.79116E-24
 4.80202E+16  5.96959E-24
 4.79935E+16  6.15351E-24
 4.79668E+16  6.34310E-24
 4.79402E+16  6.53854E-24
 4.79136E+16  6.73999E-24
 4.78870E+16  6.94765E-24
 4.78604E+16  7.16171E-24
 4.78338E+16  7.38237E-24
 4.78072E+16  7.60982E-24
 4.77807E+16  7.84428E-24
 4.77541E+16  8.08597E-24
 4.77276E+16  8.33510E-24
 4.77011E+16  8.59191E-24
 4.76746E+16  8.85663E-24
 4.76481E+16  9.12950E-24
 4.76217E+16  9.41079E-24
 4.75952E+16  9.70074E-24
 4.75688E+16  9.99962E-24
 4.75424E+16  1.03077E-23
 4.75159E+16  1.06253E-23
 4.74896E+16  1.09527E-23
 4.74632E+16  1.12901E-23
 4.74368E+16  1.16380E-23
 4.74105E+16  1.19965E-23
 4.73841E+16  1.23662E-23
 4.73578E+16  1.27472E-23
 4.73315E+16  1.31399E-23
 4.73052E+16  1.35448E-23
 4.72790E+16  1.39621E-23
 4.72527E+16  1.43923E-23
 4.72265E+16  1.48357E-23
 4.72002E+16  1.52928E-23
 4.71740E+16  1.57640E-23
 4.71478E+16  1.62496E-23
 4.71216E+16  1.67503E-23
 4.70955E+16  1.72664E-23
 4.70693E+16  1.77984E-23
 4.70432E+16  1.83467E-23
 4.70170E+16  1.89120E-23
 4.69909E+16  1.94947E-23
 4.69648E+16  2.00953E-23
 4.69387E+16  2.07145E-23
 4.69127E+16  2.13527E-23
 4.68866E+16  2.20106E-23
 4.68606E+16  2.26888E-23
 4.68345E+16  2.33878E-23
 4.68085E+16  2.41084E-23
 4.67825E+16  2.48512E-23
 4.67566E+16  2.56134E-23
 4.67306E+16  2.63680E-23
 4.67046E+16  2.71403E-23
 4.66787E+16  2.79354E-23
 4.66528E+16  2.87537E-23
 4.66269E+16  2.95960E-23
 4.66010E+16  3.04629E-23
 4.65751E+16  3.13553E-23
 4.65492E+16  3.22737E-23
 4.65234E+16  3.32191E-23
 4.64975E+16  3.41922E-23
 4.64717E+16  3.51938E-23
 4.64459E+16  3.62247E-23
 4.64201E+16  3.72859E-23
 4.63943E+16  3.83781E-23
 4.63685E+16  3.95023E-23
 4.63428E+16  4.06594E-23
 4.63170E+16  4.18505E-23
 4.62913E+16  4.30764E-23
 4.62656E+16  4.43382E-23
 4.62399E+16  4.56370E-23
 4.62142E+16  4.69739E-23
 4.61886E+16  4.83499E-23
 4.61629E+16  4.97662E-23
 4.61373E+16  5.12240E-23
 4.61116E+16  5.27245E-23
 4.60860E+16  5.42689E-23
 4.60604E+16  5.58586E-23
 4.60349E+16  5.74949E-23
 4.60093E+16  5.91791E-23
 4.59837E+16  6.09126E-23
 4.59582E+16  6.26969E-23
 4.59327E+16  6.45335E-23
 4.59072E+16  6.64239E-23
 4.58817E+16  6.83696E-23
 4.58562E+16  7.03724E-23
 4.58307E+16  7.24338E-23
 4.58053E+16  7.45556E-23
 4.57798E+16  7.67396E-23
 4.57544E+16  7.89875E-23
 4.57290E+16  8.13013E-23
 4.57036E+16  8.36828E-23
 4.56782E+16  8.61341E-23
 4.56528E+16  8.86573E-23
 4.56275E+16  9.12543E-23
 4.56021E+16  9.39274E-23
 4.55768E+16  9.66788E-23
 4.55515E+16  9.95108E-23
 4.55262E+16  1.02426E-22
 4.55009E+16  1.05426E-22
 4.54756E+16  1.08514E-22
 4.54504E+16  1.11693E-22
 4.54251E+16  1.14965E-22
 4.53999E+16  1.18333E-22
 4.53747E+16  1.21799E-22
 4.53495E+16  1.25367E-22
 4.53243E+16  1.29039E-22
 4.52991E+16  1.32819E-22
 4.52740E+16  1.36710E-22
 4.52488E+16  1.40714E-22
 4.52237E+16  1.44836E-22
 4.51986E+16  1.49079E-22
 4.51735E+16  1.53446E-22
 4.51484E+16  1.57941E-22
 4.51233E+16  1.62567E-22
 4.50983E+16  1.67329E-22
 4.50732E+16  1.72231E-22
 4.50482E+16  1.77276E-22
 4.50232E+16  1.82469E-22
 4.49981E+16  1.87814E-22
 4.49732E+16  1.93316E-22
 4.49482E+16  1.98979E-22
 4.49232E+16  2.04807E-22
 4.48983E+16  2.10807E-22
 4.48733E+16  2.16982E-22
 4.48484E+16  2.23338E-22
 4.48235E+16  2.29880E-22
 4.47986E+16  2.36614E-22
 4.47737E+16  2.43545E-22
 4.47489E+16  2.50679E-22
 4.47240E+16  2.58022E-22
 4.46992E+16  2.65581E-22
 4.46743E+16  2.73360E-22
 4.46495E+16  2.81368E-22
 4.46247E+16  2.89610E-22
 4.45999E+16  2.98093E-22
 4.45752E+16  3.06825E-22
 4.45504E+16  3.15813E-22
 4.45257E+16  3.25064E-22
 4.45009E+16  3.34586E-22
 4.44762E+16  3.44387E-22
 4.44515E+16  3.54475E-22
 4.44268E+16  3.64859E-22
 4.44022E+16  3.75547E-22
 4.43775E+16  3.86548E-22
 4.43528E+16  3.97871E-22
 4.43282E+16  4.09526E-22
 4.43036E+16  4.21522E-22
 4.42790E+16  4.33870E-22
 4.42544E+16  4.46545E-22
 4.42298E+16  4.59033E-22
 4.42053E+16  4.71742E-22
 4.41807E+16  4.84802E-22
 4.41562E+16  4.98224E-22
 4.41316E+16  5.12017E-22
 4.41071E+16  5.26193E-22
 4.40826E+16  5.40761E-22
 4.40581E+16  5.55732E-22
 4.40337E+16  5.71117E-22
 4.40092E+16  5.86929E-22
 4.39848E+16  6.03178E-22
 4.39604E+16  6.19877E-22
 4.39359E+16  6.37039E-22
 4.39115E+16  6.54675E-22
 4.38871E+16  6.72800E-22
 4.38628E+16  6.91427E-22
 4.38384E+16  7.10569E-22
 4.38141E+16  7.30242E-22
 4.37897E+16  7.50459E-22
 4.37654E+16  7.71235E-22
 4.37411E+16  7.92587E-22
 4.37168E+16  8.14530E-22
