 Castelli and Kurucz 2004-2012 Atmosphere
 T     49000.     G    4.50000 [0.0] VTURB=2  L/H=1.25 NOVER NEW ODF           
 Wavelength  Eddington Hnu
   (nm)    (ergs/s/cm2/Hz/sr)
  9.0900      7.83270E-19
  9.3500      2.15170E-18
  9.6100      5.46680E-18
  9.7700      9.79810E-18
  9.9600      1.87050E-17
  10.200      4.10030E-17
  10.380      7.22710E-17
  10.560      1.25090E-16
  10.770      2.32170E-16
  11.040      4.97580E-16
  11.400      1.30420E-15
  11.780      3.36610E-15
  12.130      7.80930E-15
  12.480      1.70140E-14
  12.710      2.80880E-14
  12.840      4.07650E-14
  13.050      6.26840E-14
  13.240      9.13660E-14
  13.390      1.22700E-13
  13.660      2.04180E-13
  13.980      3.64380E-13
  14.330      6.58240E-13
  14.720      1.16770E-12
  15.100      2.20150E-12
  15.520      4.08200E-12
  15.880      6.96920E-12
  16.200      1.52010E-11
  16.600      2.58000E-11
  17.030      4.13390E-11
  17.340      5.80890E-11
  17.680      8.68370E-11
  18.020      1.28740E-10
  18.170      1.38240E-10
  18.610      2.38640E-10
  19.100      3.74360E-10
  19.390      5.37680E-10
  19.840      8.18280E-10
  20.180      9.82860E-10
  20.500      1.41020E-09
  21.050      2.16680E-09
  21.620      3.30950E-09
  21.980      4.39170E-09
  22.300      5.23170E-09
  22.680      6.65190E-09
  23.000      2.86390E-07
  23.400      1.80940E-06
  24.000      4.75150E-06
  24.650      1.37170E-05
  25.240      4.88110E-05
  25.680      1.06450E-04
  26.000      9.28560E-05
  26.400      2.33070E-04
  26.850      2.56400E-04
  27.350      3.04490E-04
  27.850      2.28390E-04
  28.400      3.90160E-04
  29.000      5.64560E-04
  29.600      4.98740E-04
  30.100      3.62240E-04
  30.800      3.79180E-04
  31.800      1.29270E-04
  32.800      1.58000E-04
  33.800      1.13600E-04
  34.800      1.25600E-04
  35.700      3.11780E-04
  36.600      6.59640E-04
  37.500      8.47930E-04
  38.500      6.79730E-04
  39.500      1.20170E-03
  40.500      1.87930E-03
  41.400      1.92360E-03
  42.200      1.75390E-03
  43.000      1.73350E-03
  44.100      2.28850E-03
  45.100      2.37290E-03
  46.000      2.08730E-03
  47.000      2.38860E-03
  48.000      2.73760E-03
  49.000      2.48230E-03
  50.000      3.38360E-03
  50.600      2.89800E-03
  51.200      3.39140E-03
  52.000      3.32830E-03
  53.000      3.21110E-03
  54.000      2.64930E-03
  55.000      2.21960E-03
  56.000      2.96340E-03
  57.000      3.53740E-03
  58.000      3.68690E-03
  59.000      3.73800E-03
  60.000      3.37940E-03
  61.000      2.73740E-03
  62.000      3.58210E-03
  63.000      3.08740E-03
  64.000      3.85090E-03
  65.000      3.68280E-03
  65.800      3.39670E-03
  66.500      3.93530E-03
  67.500      3.97010E-03
  68.500      3.64240E-03
  69.500      4.02240E-03
  70.500      3.66630E-03
  71.600      3.94890E-03
  72.600      4.12560E-03
  73.500      4.09110E-03
  74.500      3.95570E-03
  75.500      3.88820E-03
  76.500      3.47080E-03
  77.500      3.94680E-03
  78.500      3.51860E-03
  79.500      3.90670E-03
  80.500      4.07480E-03
  81.500      4.06100E-03
  82.500      4.09740E-03
  83.500      3.80520E-03
  84.500      4.04530E-03
  85.500      3.86000E-03
  86.500      4.07700E-03
  87.500      4.11450E-03
  88.500      4.02870E-03
  89.500      3.99520E-03
  90.500      3.92380E-03
  91.500      3.01400E-03
  92.500      4.40930E-03
  93.500      5.29010E-03
  94.500      5.72300E-03
  95.500      6.53380E-03
  96.500      6.64160E-03
  97.500      5.71270E-03
  98.500      6.28640E-03
  99.500      5.69250E-03
  100.50      5.86660E-03
  101.50      5.95700E-03
  102.50      5.80890E-03
  103.50      6.39570E-03
  104.50      6.56440E-03
  105.50      6.52580E-03
  106.50      6.32560E-03
  107.50      6.55120E-03
  108.50      6.20070E-03
  109.50      6.40590E-03
  110.50      6.41020E-03
  111.50      6.40360E-03
  112.50      6.32830E-03
  113.50      6.44330E-03
  114.50      6.47580E-03
  115.50      6.34200E-03
  116.50      6.06190E-03
  117.50      5.80670E-03
  118.50      6.11620E-03
  119.50      5.84310E-03
  120.50      5.85860E-03
  121.50      5.21910E-03
  122.50      5.74410E-03
  123.50      5.44680E-03
  124.50      5.32320E-03
  125.50      5.60670E-03
  126.50      5.62490E-03
  127.50      5.60990E-03
  128.50      5.58230E-03
  129.50      5.63510E-03
  130.50      5.48500E-03
  131.50      5.44060E-03
  132.50      5.37650E-03
  133.50      5.34120E-03
  134.50      5.29130E-03
  135.50      5.13950E-03
  136.50      4.93840E-03
  137.50      4.75720E-03
  138.50      4.92940E-03
  139.50      4.86740E-03
  140.50      4.67640E-03
  141.50      5.10190E-03
  142.50      4.93540E-03
  143.50      5.06180E-03
  144.20      4.81840E-03
  144.70      4.85020E-03
  145.50      4.78280E-03
  146.50      4.77160E-03
  147.50      4.81980E-03
  148.50      4.86570E-03
  149.50      4.77800E-03
  150.50      4.71520E-03
  151.20      4.71530E-03
  151.70      4.61290E-03
  152.50      4.69780E-03
  153.50      4.52640E-03
  154.50      4.09630E-03
  155.50      4.14470E-03
  156.50      4.44390E-03
  157.50      4.51790E-03
  158.50      4.43650E-03
  159.50      4.48370E-03
  160.50      4.38090E-03
  161.50      4.34580E-03
  162.50      4.37090E-03
  163.50      4.38370E-03
  164.50      4.19130E-03
  165.50      4.34900E-03
  166.50      4.33710E-03
  167.20      4.21750E-03
  167.70      4.36580E-03
  168.50      4.35620E-03
  169.50      4.36510E-03
  170.50      4.26260E-03
  171.50      4.12790E-03
  172.50      4.13230E-03
  173.50      4.24620E-03
  174.50      4.20690E-03
  175.50      4.17570E-03
  176.50      4.14120E-03
  177.50      4.09880E-03
  178.50      4.09470E-03
  179.50      4.03530E-03
  180.50      4.01410E-03
  181.50      3.94580E-03
  182.50      3.94880E-03
  183.50      3.92760E-03
  184.50      3.92520E-03
  185.50      3.89170E-03
  186.50      3.88360E-03
  187.50      3.84590E-03
  188.50      3.81290E-03
  189.50      3.82190E-03
  190.50      3.79970E-03
  191.50      3.77690E-03
  192.50      3.68210E-03
  193.50      3.72580E-03
  194.50      3.70450E-03
  195.50      3.66250E-03
  196.70      3.64340E-03
  197.60      3.60220E-03
  198.40      3.61460E-03
  199.50      3.57400E-03
  200.50      3.56330E-03
  201.50      3.54000E-03
  202.50      3.52010E-03
  203.50      3.47910E-03
  204.50      3.43930E-03
  205.50      2.69780E-03
  206.50      2.62870E-03
  207.40      2.70820E-03
  207.80      2.78310E-03
  208.50      2.98540E-03
  209.50      3.26500E-03
  210.50      3.28800E-03
  211.50      3.29610E-03
  212.50      3.26690E-03
  213.50      3.25840E-03
  214.50      3.23020E-03
  215.50      3.24780E-03
  216.50      3.12410E-03
  217.50      3.21690E-03
  218.50      3.12570E-03
  219.50      3.18410E-03
  220.50      3.16370E-03
  221.50      3.05650E-03
  222.50      3.12830E-03
  223.50      3.10810E-03
  224.50      3.08780E-03
  225.50      2.99190E-03
  226.50      3.04460E-03
  227.50      3.03870E-03
  228.50      2.99970E-03
  229.50      2.96050E-03
  230.50      2.89370E-03
  231.50      2.93450E-03
  232.50      2.93800E-03
  233.50      2.91790E-03
  234.50      2.88780E-03
  235.50      2.86100E-03
  236.50      2.84110E-03
  237.50      2.81810E-03
  238.50      2.71510E-03
  239.50      2.77080E-03
  240.50      2.74080E-03
  241.50      2.73460E-03
  242.50      2.74220E-03
  243.50      2.71640E-03
  244.50      2.70360E-03
  245.50      2.66530E-03
  246.50      2.66240E-03
  247.50      2.66430E-03
  248.50      2.62920E-03
  249.50      2.52430E-03
  250.50      2.60690E-03
  251.30      2.45440E-03
  251.80      2.55130E-03
  252.50      2.55130E-03
  253.50      2.56610E-03
  254.50      2.56010E-03
  255.50      2.54330E-03
  256.50      2.53210E-03
  257.50      2.51110E-03
  258.50      2.49550E-03
  259.50      2.44530E-03
  260.50      2.47290E-03
  261.50      2.43380E-03
  262.50      2.44470E-03
  263.50      2.43070E-03
  264.50      2.41000E-03
  265.50      2.40020E-03
  266.50      2.38770E-03
  267.50      2.35620E-03
  268.50      2.35680E-03
  269.50      2.33500E-03
  270.50      2.33600E-03
  271.50      2.32120E-03
  272.50      2.30690E-03
  273.50      2.23560E-03
  274.50      2.28230E-03
  275.50      2.26350E-03
  276.50      2.25410E-03
  277.50      2.23780E-03
  278.50      2.21370E-03
  279.50      2.20550E-03
  280.50      2.19880E-03
  281.50      2.18490E-03
  282.50      2.16840E-03
  283.50      2.16440E-03
  284.50      2.15370E-03
  285.50      2.13850E-03
  286.50      2.10670E-03
  287.50      2.08800E-03
  288.50      2.09620E-03
  289.50      2.08260E-03
  291.00      2.07270E-03
  293.00      2.05600E-03
  295.00      2.03250E-03
  297.00      2.00820E-03
  299.00      1.98170E-03
  301.00      1.96200E-03
  303.00      1.93300E-03
  305.00      1.91760E-03
  307.00      1.88480E-03
  309.00      1.88090E-03
  311.00      1.86070E-03
  313.00      1.84050E-03
  315.00      1.82620E-03
  317.00      1.80640E-03
  319.00      1.79020E-03
  321.00      1.74410E-03
  323.00      1.75670E-03
  325.00      1.73900E-03
  327.00      1.70970E-03
  329.00      1.70190E-03
  331.00      1.68410E-03
  333.00      1.66690E-03
  335.00      1.64170E-03
  337.00      1.63200E-03
  339.00      1.61140E-03
  341.00      1.59340E-03
  343.00      1.58840E-03
  345.00      1.56670E-03
  347.00      1.55490E-03
  349.00      1.54000E-03
  351.00      1.53000E-03
  353.00      1.51250E-03
  355.00      1.49990E-03
  357.00      1.48410E-03
  359.00      1.47150E-03
  361.00      1.45810E-03
  363.00      1.44180E-03
  364.00      1.41060E-03
  365.00      1.28450E-03
  367.00      1.27410E-03
  369.00      1.26780E-03
  371.00      1.26910E-03
  373.00      1.28140E-03
  375.00      1.30150E-03
  377.00      1.31640E-03
  379.00      1.33270E-03
  381.00      1.34450E-03
  383.00      1.29800E-03
  385.00      1.33730E-03
  387.00      1.33670E-03
  389.00      1.25510E-03
  391.00      1.31700E-03
  393.00      1.29520E-03
  395.00      1.29460E-03
  397.00      1.20670E-03
  399.00      1.27330E-03
  401.00      1.26540E-03
  403.00      1.23720E-03
  405.00      1.24320E-03
  407.00      1.23350E-03
  409.00      1.20200E-03
  411.00      1.14810E-03
  413.00      1.20140E-03
  415.00      1.19320E-03
  417.00      1.18320E-03
  419.00      1.17020E-03
  421.00      1.14870E-03
  423.00      1.15540E-03
  425.00      1.14580E-03
  427.00      1.13660E-03
  429.00      1.12740E-03
  431.00      1.11630E-03
  433.00      1.08350E-03
  435.00      1.04740E-03
  437.00      1.08690E-03
  439.00      1.07740E-03
  441.00      1.06740E-03
  443.00      1.06310E-03
  445.00      1.05340E-03
  447.00      1.04570E-03
  449.00      1.03920E-03
  451.00      1.02970E-03
  453.00      1.02080E-03
  455.00      9.98540E-04
  457.00      1.00650E-03
  459.00      9.98940E-04
  461.00      9.92010E-04
  463.00      9.80650E-04
  465.00      9.65910E-04
  467.00      9.67390E-04
  469.00      9.31930E-04
  471.00      9.54940E-04
  473.00      9.48810E-04
  475.00      9.41820E-04
  477.00      9.34620E-04
  479.00      9.25820E-04
  481.00      9.20720E-04
  483.00      9.13310E-04
  485.00      8.94560E-04
  487.00      8.52340E-04
  489.00      8.93030E-04
  491.00      8.87320E-04
  493.00      8.80820E-04
  495.00      8.75070E-04
  497.00      8.68550E-04
  499.00      8.62720E-04
  501.00      8.55570E-04
  503.00      8.50290E-04
  505.00      8.43530E-04
  507.00      8.38000E-04
  509.00      8.32510E-04
  511.00      8.26090E-04
  513.00      8.19760E-04
  515.00      8.14730E-04
  517.00      8.09810E-04
  519.00      8.04090E-04
  521.00      7.97900E-04
  523.00      7.93100E-04
  525.00      7.86980E-04
  527.00      7.81590E-04
  529.00      7.76960E-04
  531.00      7.71690E-04
  533.00      7.66300E-04
  535.00      7.61410E-04
  537.00      7.56090E-04
  539.00      7.51070E-04
  541.00      7.33360E-04
  543.00      7.41210E-04
  545.00      7.36340E-04
  547.00      7.31140E-04
  549.00      7.26600E-04
  551.00      7.21400E-04
  553.00      7.17140E-04
  555.00      7.12500E-04
  557.00      7.07060E-04
  559.00      7.01540E-04
  561.00      6.98730E-04
  563.00      6.94180E-04
  565.00      6.89690E-04
  567.00      6.85210E-04
  569.00      6.71420E-04
  571.00      6.31310E-04
  573.00      6.27550E-04
  575.00      6.23660E-04
  577.00      6.20450E-04
  579.00      6.17420E-04
  581.00      6.10640E-04
  583.00      6.13450E-04
  585.00      6.12680E-04
  587.00      6.10740E-04
  589.00      6.11900E-04
  591.00      6.12100E-04
  593.00      6.12810E-04
  595.00      6.14210E-04
  597.00      6.15240E-04
  599.00      6.16490E-04
  601.00      6.14160E-04
  603.00      6.11980E-04
  605.00      6.09310E-04
  607.00      6.05090E-04
  609.00      6.02440E-04
  611.00      5.98100E-04
  613.00      5.94580E-04
  615.00      5.92040E-04
  617.00      5.86270E-04
  619.00      5.85080E-04
  621.00      5.81750E-04
  623.00      5.75660E-04
  625.00      5.74430E-04
  627.00      5.71520E-04
  629.00      5.68320E-04
  631.00      5.61190E-04
  633.00      5.61510E-04
  635.00      5.58460E-04
  637.00      5.55250E-04
  639.00      5.51490E-04
  641.00      5.44210E-04
  643.00      5.45770E-04
  645.00      5.42540E-04
  647.00      5.39410E-04
  649.00      5.36480E-04
  651.00      5.33150E-04
  653.00      5.24510E-04
  655.00      5.22740E-04
  657.00      4.92480E-04
  659.00      5.21020E-04
  661.00      5.18680E-04
  663.00      5.15800E-04
  665.00      5.12930E-04
  667.00      5.08850E-04
  669.00      5.00740E-04
  671.00      5.04020E-04
  673.00      5.01650E-04
  675.00      4.98870E-04
  677.00      4.96190E-04
  679.00      4.93540E-04
  681.00      4.90840E-04
  683.00      4.88200E-04
  685.00      4.85550E-04
  687.00      4.82900E-04
  689.00      4.73560E-04
  691.00      4.77560E-04
  693.00      4.75210E-04
  695.00      4.72680E-04
  697.00      4.70160E-04
  699.00      4.67660E-04
  701.00      4.65060E-04
  703.00      4.62330E-04
  705.00      4.59990E-04
  707.00      4.57430E-04
  709.00      4.55480E-04
  711.00      4.52600E-04
  713.00      4.50240E-04
  715.00      4.48390E-04
  717.00      4.41360E-04
  719.00      4.41250E-04
  721.00      4.41270E-04
  723.00      4.39200E-04
  725.00      4.36950E-04
  727.00      4.34720E-04
  729.00      4.32420E-04
  731.00      4.30090E-04
  733.00      4.28100E-04
  735.00      4.25940E-04
  737.00      4.23700E-04
  739.00      4.21290E-04
  741.00      4.19430E-04
  743.00      4.17420E-04
  745.00      4.15060E-04
  747.00      4.13250E-04
  749.00      4.10970E-04
  751.00      4.09050E-04
  753.00      4.07120E-04
  755.00      4.05110E-04
  757.00      4.03090E-04
  759.00      3.94720E-04
  761.00      3.98780E-04
  763.00      3.97170E-04
  765.00      3.95220E-04
  767.00      3.93170E-04
  769.00      3.91090E-04
  771.00      3.89170E-04
  773.00      3.87260E-04
  775.00      3.85700E-04
  777.00      3.83920E-04
  779.00      3.82070E-04
  781.00      3.80240E-04
  783.00      3.78390E-04
  785.00      3.76290E-04
  787.00      3.74700E-04
  789.00      3.72990E-04
  791.00      3.71270E-04
  793.00      3.69530E-04
  795.00      3.67700E-04
  797.00      3.65840E-04
  799.00      3.64340E-04
  801.00      3.62630E-04
  803.00      3.60820E-04
  805.00      3.59250E-04
  807.00      3.57580E-04
  809.00      3.55920E-04
  811.00      3.54280E-04
  813.00      3.52640E-04
  815.00      3.51020E-04
  817.00      3.49190E-04
  819.00      3.46160E-04
  821.00      3.30390E-04
  823.00      3.26720E-04
  825.00      3.27120E-04
  827.00      3.26080E-04
  829.00      3.24690E-04
  831.00      3.23310E-04
  833.00      3.21730E-04
  835.00      3.20550E-04
  837.00      3.19300E-04
  839.00      3.18090E-04
  841.00      3.17030E-04
  843.00      3.15950E-04
  845.00      3.14910E-04
  847.00      3.13930E-04
  849.00      3.13140E-04
  851.00      3.12060E-04
  853.00      3.11520E-04
  855.00      3.10270E-04
  857.00      3.10020E-04
  859.00      3.08790E-04
  861.00      3.07940E-04
  863.00      3.08190E-04
  865.00      3.07140E-04
  867.00      3.04240E-04
  869.00      3.06380E-04
  871.00      3.06210E-04
  873.00      3.05220E-04
  875.00      2.99540E-04
  877.00      3.03140E-04
  879.00      3.03980E-04
  881.00      3.03560E-04
  883.00      3.02570E-04
  885.00      2.98160E-04
  887.00      2.91200E-04
  889.00      2.98170E-04
  891.00      2.98040E-04
  893.00      2.96700E-04
  895.00      2.96140E-04
  897.00      2.94810E-04
  899.00      2.92260E-04
  901.00      2.81570E-04
  903.00      2.85310E-04
  905.00      2.89160E-04
  907.00      2.88790E-04
  909.00      2.87660E-04
  911.00      2.85640E-04
  913.00      2.85270E-04
  915.00      2.84140E-04
  917.00      2.82870E-04
  919.00      2.81370E-04
  921.00      2.78060E-04
  923.00      2.64850E-04
  925.00      2.75050E-04
  927.00      2.76720E-04
  929.00      2.76050E-04
  931.00      2.74920E-04
  933.00      2.73540E-04
  935.00      2.66650E-04
  937.00      2.70050E-04
  939.00      2.70380E-04
  941.00      2.69320E-04
  943.00      2.68280E-04
  945.00      2.67170E-04
  947.00      2.66150E-04
  949.00      2.64970E-04
  951.00      2.63480E-04
  953.00      2.59630E-04
  955.00      2.46720E-04
  957.00      2.58580E-04
  959.00      2.59540E-04
  961.00      2.58810E-04
  963.00      2.57740E-04
  965.00      2.56770E-04
  967.00      2.55760E-04
  969.00      2.54760E-04
  971.00      2.53350E-04
  973.00      2.52700E-04
  975.00      2.51380E-04
  977.00      2.48780E-04
  979.00      2.49810E-04
  981.00      2.48840E-04
  983.00      2.47810E-04
  985.00      2.46920E-04
  987.00      2.45960E-04
  989.00      2.45010E-04
  991.00      2.44050E-04
  993.00      2.43130E-04
  995.00      2.42200E-04
  997.00      2.41270E-04
  999.00      2.40340E-04
  1002.5      2.35560E-04
  1007.5      2.31300E-04
  1012.5      2.30290E-04
  1017.5      2.32060E-04
  1022.5      2.29890E-04
  1027.5      2.27700E-04
  1032.5      2.25570E-04
  1037.5      2.23560E-04
  1042.5      2.20230E-04
  1047.5      2.19500E-04
  1052.5      2.17500E-04
  1057.5      2.15540E-04
  1062.5      2.13600E-04
  1067.5      2.11680E-04
  1072.5      2.09790E-04
  1077.5      2.07930E-04
  1082.5      2.05930E-04
  1087.5      2.04250E-04
  1092.5      1.96000E-04
  1097.5      1.99490E-04
  1102.5      1.98960E-04
  1107.5      1.97240E-04
  1112.5      1.95540E-04
  1117.5      1.93980E-04
  1122.5      1.92310E-04
  1127.5      1.90660E-04
  1132.5      1.89030E-04
  1137.5      1.87460E-04
  1142.5      1.85880E-04
  1147.5      1.84330E-04
  1152.5      1.82790E-04
  1157.5      1.81250E-04
  1162.5      1.77750E-04
  1167.5      1.76850E-04
  1172.5      1.76820E-04
  1177.5      1.75380E-04
  1182.5      1.73920E-04
  1187.5      1.72530E-04
  1192.5      1.71140E-04
  1197.5      1.69700E-04
  1202.5      1.68400E-04
  1207.5      1.67040E-04
  1212.5      1.65700E-04
  1217.5      1.64410E-04
  1222.5      1.63110E-04
  1227.5      1.61830E-04
  1232.5      1.60560E-04
  1237.5      1.59310E-04
  1242.5      1.58070E-04
  1247.5      1.56840E-04
  1252.5      1.55630E-04
  1257.5      1.54440E-04
  1262.5      1.53250E-04
  1267.5      1.52080E-04
  1272.5      1.50930E-04
  1277.5      1.49420E-04
  1282.5      1.43160E-04
  1287.5      1.47380E-04
  1292.5      1.46430E-04
  1297.5      1.45340E-04
  1302.5      1.44260E-04
  1307.5      1.43190E-04
  1312.5      1.42130E-04
  1317.5      1.41090E-04
  1322.5      1.40060E-04
  1327.5      1.39030E-04
  1332.5      1.38020E-04
  1337.5      1.37020E-04
  1342.5      1.36030E-04
  1347.5      1.35050E-04
  1352.5      1.34080E-04
  1357.5      1.33120E-04
  1362.5      1.32180E-04
  1367.5      1.31240E-04
  1372.5      1.30310E-04
  1377.5      1.29390E-04
  1382.5      1.28480E-04
  1387.5      1.27580E-04
  1392.5      1.26690E-04
  1397.5      1.25810E-04
