 Castelli and Kurucz 2004-2012 Atmosphere
 T     36000.     G    4.00000 [0.0] VTURB=2  L/H=1.25 NOVER NEW ODF           
 Wavelength  Eddington Hnu
   (nm)    (ergs/s/cm2/Hz/sr)
  9.0900      9.73350E-29
  9.3500      4.43800E-28
  9.6100      1.86170E-27
  9.7700      4.39260E-27
  9.9600      1.16840E-26
  10.200      3.83070E-26
  10.380      9.04000E-26
  10.560      2.07580E-25
  10.770      5.30070E-25
  11.040      1.68530E-24
  11.400      7.28080E-24
  11.780      3.12530E-23
  12.130      1.11080E-22
  12.480      3.69600E-22
  12.710      7.87960E-22
  12.840      1.19550E-21
  13.050      2.30550E-21
  13.240      4.11160E-21
  13.390      6.42810E-21
  13.660      1.40260E-20
  13.980      3.43000E-20
  14.330      8.72170E-20
  14.720      2.33340E-19
  15.100      5.94310E-19
  15.520      1.57510E-18
  15.880      3.50060E-18
  16.200      6.90520E-18
  16.600      1.57610E-17
  17.030      3.65520E-17
  17.340      6.56830E-17
  17.680      1.22570E-16
  18.020      2.23020E-16
  18.170      2.88860E-16
  18.610      6.03540E-16
  19.100      1.31990E-15
  19.390      2.06500E-15
  19.840      4.03160E-15
  20.180      6.53870E-15
  20.500      1.01930E-14
  21.050      2.12230E-14
  21.620      4.34740E-14
  21.980      6.77280E-14
  22.300      9.87630E-14
  22.680      1.52700E-13
  23.000      1.86010E-10
  23.400      4.99720E-10
  24.000      7.34330E-10
  24.650      1.14360E-09
  25.240      1.94610E-09
  25.680      2.65630E-09
  26.000      4.01080E-09
  26.400      1.00110E-08
  26.850      1.60990E-08
  27.350      2.04810E-08
  27.850      2.11100E-08
  28.400      4.43780E-08
  29.000      6.20110E-08
  29.600      7.12310E-08
  30.100      1.33190E-07
  30.800      5.36290E-07
  31.800      7.87200E-07
  32.800      1.41630E-06
  33.800      2.05040E-06
  34.800      2.86580E-06
  35.700      7.03350E-06
  36.600      1.60740E-05
  37.500      2.05110E-05
  38.500      2.21150E-05
  39.500      4.03920E-05
  40.500      6.26520E-05
  41.400      6.28280E-05
  42.200      6.62240E-05
  43.000      6.35080E-05
  44.100      7.96380E-05
  45.100      8.46950E-05
  46.000      7.55390E-05
  47.000      8.43600E-05
  48.000      1.01900E-04
  49.000      8.02890E-05
  50.000      1.13720E-04
  50.600      1.11640E-04
  51.200      3.25130E-04
  52.000      3.12950E-04
  53.000      2.87360E-04
  54.000      2.64600E-04
  55.000      2.59780E-04
  56.000      3.73310E-04
  57.000      4.48890E-04
  58.000      4.39050E-04
  59.000      4.61900E-04
  60.000      3.58200E-04
  61.000      4.04680E-04
  62.000      5.45460E-04
  63.000      5.31160E-04
  64.000      5.94550E-04
  65.000      5.74830E-04
  65.800      4.82230E-04
  66.500      5.98800E-04
  67.500      6.87130E-04
  68.500      5.53700E-04
  69.500      7.06540E-04
  70.500      5.59110E-04
  71.600      7.78200E-04
  72.600      7.92860E-04
  73.500      8.19610E-04
  74.500      7.66200E-04
  75.500      7.80200E-04
  76.500      7.41680E-04
  77.500      8.22240E-04
  78.500      7.79580E-04
  79.500      8.66320E-04
  80.500      8.62700E-04
  81.500      8.82080E-04
  82.500      9.21830E-04
  83.500      7.64020E-04
  84.500      9.20450E-04
  85.500      9.11880E-04
  86.500      9.64470E-04
  87.500      9.79990E-04
  88.500      9.90150E-04
  89.500      1.00250E-03
  90.500      9.90260E-04
  91.500      9.02020E-04
  92.500      1.71320E-03
  93.500      2.39650E-03
  94.500      2.69690E-03
  95.500      2.94920E-03
  96.500      3.19300E-03
  97.500      2.19140E-03
  98.500      2.86570E-03
  99.500      2.64910E-03
  100.50      2.69550E-03
  101.50      2.86240E-03
  102.50      2.64630E-03
  103.50      2.97780E-03
  104.50      3.19030E-03
  105.50      3.14010E-03
  106.50      2.98880E-03
  107.50      3.02980E-03
  108.50      2.90120E-03
  109.50      3.02660E-03
  110.50      2.97500E-03
  111.50      2.96120E-03
  112.50      2.75710E-03
  113.50      2.97680E-03
  114.50      2.99040E-03
  115.50      2.84580E-03
  116.50      2.79570E-03
  117.50      2.24530E-03
  118.50      2.66720E-03
  119.50      2.61950E-03
  120.50      2.60850E-03
  121.50      2.30100E-03
  122.50      2.55050E-03
  123.50      2.66810E-03
  124.50      2.63880E-03
  125.50      2.66320E-03
  126.50      2.73950E-03
  127.50      2.81600E-03
  128.50      2.83090E-03
  129.50      2.79650E-03
  130.50      2.76100E-03
  131.50      2.84520E-03
  132.50      2.81890E-03
  133.50      2.78770E-03
  134.50      2.82410E-03
  135.50      2.74400E-03
  136.50      2.70470E-03
  137.50      2.65210E-03
  138.50      2.64860E-03
  139.50      2.47120E-03
  140.50      2.41950E-03
  141.50      2.66520E-03
  142.50      2.45560E-03
  143.50      2.60040E-03
  144.20      2.55080E-03
  144.70      2.56360E-03
  145.50      2.48860E-03
  146.50      2.50300E-03
  147.50      2.52060E-03
  148.50      2.55710E-03
  149.50      2.51020E-03
  150.50      2.53570E-03
  151.20      2.53070E-03
  151.70      2.52580E-03
  152.50      2.48570E-03
  153.50      2.28720E-03
  154.50      1.90800E-03
  155.50      1.97960E-03
  156.50      2.22190E-03
  157.50      2.32770E-03
  158.50      2.33870E-03
  159.50      2.34780E-03
  160.50      2.23380E-03
  161.50      2.18690E-03
  162.50      2.23560E-03
  163.50      2.25620E-03
  164.50      2.23020E-03
  165.50      2.29950E-03
  166.50      2.28020E-03
  167.20      2.14800E-03
  167.70      2.41000E-03
  168.50      2.35070E-03
  169.50      2.32360E-03
  170.50      2.30620E-03
  171.50      2.23150E-03
  172.50      2.21150E-03
  173.50      2.29550E-03
  174.50      2.29100E-03
  175.50      2.26120E-03
  176.50      2.26290E-03
  177.50      2.23080E-03
  178.50      2.26040E-03
  179.50      2.21800E-03
  180.50      2.22310E-03
  181.50      2.20720E-03
  182.50      2.18380E-03
  183.50      2.20340E-03
  184.50      2.18710E-03
  185.50      2.19240E-03
  186.50      2.18880E-03
  187.50      2.15300E-03
  188.50      2.12960E-03
  189.50      2.15450E-03
  190.50      2.16410E-03
  191.50      2.14790E-03
  192.50      2.06590E-03
  193.50      2.13860E-03
  194.50      2.14040E-03
  195.50      2.05300E-03
  196.70      2.10190E-03
  197.60      2.10060E-03
  198.40      2.09730E-03
  199.50      2.06910E-03
  200.50      2.09200E-03
  201.50      2.08180E-03
  202.50      2.07040E-03
  203.50      2.05040E-03
  204.50      2.03040E-03
  205.50      1.58780E-03
  206.50      1.55060E-03
  207.40      1.62410E-03
  207.80      1.66460E-03
  208.50      1.83000E-03
  209.50      1.95460E-03
  210.50      1.95590E-03
  211.50      1.97980E-03
  212.50      1.95460E-03
  213.50      1.95930E-03
  214.50      1.94760E-03
  215.50      1.96170E-03
  216.50      1.88610E-03
  217.50      1.94650E-03
  218.50      1.89580E-03
  219.50      1.93770E-03
  220.50      1.92510E-03
  221.50      1.86700E-03
  222.50      1.90020E-03
  223.50      1.89190E-03
  224.50      1.87560E-03
  225.50      1.83200E-03
  226.50      1.85920E-03
  227.50      1.85540E-03
  228.50      1.82980E-03
  229.50      1.75390E-03
  230.50      1.77820E-03
  231.50      1.79470E-03
  232.50      1.79840E-03
  233.50      1.78860E-03
  234.50      1.77180E-03
  235.50      1.75520E-03
  236.50      1.74280E-03
  237.50      1.72420E-03
  238.50      1.66450E-03
  239.50      1.69360E-03
  240.50      1.69630E-03
  241.50      1.69100E-03
  242.50      1.69350E-03
  243.50      1.67970E-03
  244.50      1.67220E-03
  245.50      1.65830E-03
  246.50      1.65220E-03
  247.50      1.64900E-03
  248.50      1.62120E-03
  249.50      1.35560E-03
  250.50      1.59590E-03
  251.30      1.53200E-03
  251.80      1.57300E-03
  252.50      1.59460E-03
  253.50      1.59680E-03
  254.50      1.58930E-03
  255.50      1.57820E-03
  256.50      1.57190E-03
  257.50      1.56220E-03
  258.50      1.55500E-03
  259.50      1.53180E-03
  260.50      1.54050E-03
  261.50      1.52270E-03
  262.50      1.52420E-03
  263.50      1.51940E-03
  264.50      1.50580E-03
  265.50      1.50190E-03
  266.50      1.49060E-03
  267.50      1.46760E-03
  268.50      1.47490E-03
  269.50      1.46400E-03
  270.50      1.46530E-03
  271.50      1.45230E-03
  272.50      1.44700E-03
  273.50      1.41120E-03
  274.50      1.43690E-03
  275.50      1.42690E-03
  276.50      1.41790E-03
  277.50      1.41390E-03
  278.50      1.40060E-03
  279.50      1.38270E-03
  280.50      1.38820E-03
  281.50      1.38400E-03
  282.50      1.37520E-03
  283.50      1.36920E-03
  284.50      1.36630E-03
  285.50      1.35840E-03
  286.50      1.34660E-03
  287.50      1.34130E-03
  288.50      1.33660E-03
  289.50      1.33000E-03
  291.00      1.31760E-03
  293.00      1.30860E-03
  295.00      1.29390E-03
  297.00      1.27920E-03
  299.00      1.26050E-03
  301.00      1.24850E-03
  303.00      1.23020E-03
  305.00      1.22460E-03
  307.00      1.21400E-03
  309.00      1.20460E-03
  311.00      1.19530E-03
  313.00      1.18290E-03
  315.00      1.17480E-03
  317.00      1.16270E-03
  319.00      1.15290E-03
  321.00      1.12850E-03
  323.00      1.13230E-03
  325.00      1.12390E-03
  327.00      1.10380E-03
  329.00      1.10030E-03
  331.00      1.08910E-03
  333.00      1.07900E-03
  335.00      1.06340E-03
  337.00      1.05810E-03
  339.00      1.05170E-03
  341.00      1.04150E-03
  343.00      1.03500E-03
  345.00      1.02070E-03
  347.00      1.01640E-03
  349.00      1.00780E-03
  351.00      9.99940E-04
  353.00      9.89640E-04
  355.00      9.80980E-04
  357.00      9.73820E-04
  359.00      9.64070E-04
  361.00      9.53960E-04
  363.00      9.46050E-04
  364.00      9.30220E-04
  365.00      8.60800E-04
  367.00      8.54900E-04
  369.00      8.50830E-04
  371.00      8.46800E-04
  373.00      8.53180E-04
  375.00      8.69790E-04
  377.00      8.75180E-04
  379.00      8.90660E-04
  381.00      9.05270E-04
  383.00      8.62200E-04
  385.00      9.05090E-04
  387.00      8.97870E-04
  389.00      8.39070E-04
  391.00      8.94050E-04
  393.00      8.77570E-04
  395.00      8.74280E-04
  397.00      8.07140E-04
  399.00      8.65230E-04
  401.00      8.56770E-04
  403.00      8.38270E-04
  405.00      8.45700E-04
  407.00      8.33570E-04
  409.00      8.11140E-04
  411.00      7.71400E-04
  413.00      8.14150E-04
  415.00      8.08710E-04
  417.00      8.06100E-04
  419.00      7.98230E-04
  421.00      7.85910E-04
  423.00      7.89220E-04
  425.00      7.81340E-04
  427.00      7.74970E-04
  429.00      7.69480E-04
  431.00      7.60910E-04
  433.00      7.39040E-04
  435.00      7.08850E-04
  437.00      7.44560E-04
  439.00      7.34380E-04
  441.00      7.30570E-04
  443.00      7.28760E-04
  445.00      7.23050E-04
  447.00      7.11460E-04
  449.00      7.12790E-04
  451.00      7.03350E-04
  453.00      6.99750E-04
  455.00      6.87370E-04
  457.00      6.91850E-04
  459.00      6.85460E-04
  461.00      6.81750E-04
  463.00      6.73390E-04
  465.00      6.53400E-04
  467.00      6.64830E-04
  469.00      6.45450E-04
  471.00      6.55500E-04
  473.00      6.55840E-04
  475.00      6.51190E-04
  477.00      6.46650E-04
  479.00      6.42020E-04
  481.00      6.37350E-04
  483.00      6.32560E-04
  485.00      6.19100E-04
  487.00      5.84140E-04
  489.00      6.18960E-04
  491.00      6.14780E-04
  493.00      6.07080E-04
  495.00      6.06270E-04
  497.00      6.03070E-04
  499.00      5.99150E-04
  501.00      5.91430E-04
  503.00      5.90130E-04
  505.00      5.85700E-04
  507.00      5.82890E-04
  509.00      5.79050E-04
  511.00      5.75200E-04
  513.00      5.71180E-04
  515.00      5.67310E-04
  517.00      5.63610E-04
  519.00      5.59930E-04
  521.00      5.56300E-04
  523.00      5.52770E-04
  525.00      5.48110E-04
  527.00      5.44390E-04
  529.00      5.41970E-04
  531.00      5.38400E-04
  533.00      5.34870E-04
  535.00      5.31530E-04
  537.00      5.28080E-04
  539.00      5.24630E-04
  541.00      5.14430E-04
  543.00      5.18070E-04
  545.00      5.14750E-04
  547.00      5.11350E-04
  549.00      5.08220E-04
  551.00      5.04550E-04
  553.00      5.01850E-04
  555.00      4.98750E-04
  557.00      4.95280E-04
  559.00      4.91020E-04
  561.00      4.89490E-04
  563.00      4.86440E-04
  565.00      4.83420E-04
  567.00      4.80360E-04
  569.00      4.70770E-04
  571.00      4.50150E-04
  573.00      4.47600E-04
  575.00      4.44920E-04
  577.00      4.42700E-04
  579.00      4.40520E-04
  581.00      4.37340E-04
  583.00      4.37220E-04
  585.00      4.37050E-04
  587.00      4.31320E-04
  589.00      4.35820E-04
  591.00      4.35660E-04
  593.00      4.35700E-04
  595.00      4.36190E-04
  597.00      4.36280E-04
  599.00      4.35560E-04
  601.00      4.33790E-04
  603.00      4.31200E-04
  605.00      4.28960E-04
  607.00      4.26130E-04
  609.00      4.24280E-04
  611.00      4.21320E-04
  613.00      4.18960E-04
  615.00      4.16910E-04
  617.00      4.13380E-04
  619.00      4.12440E-04
  621.00      4.10160E-04
  623.00      4.06340E-04
  625.00      4.05240E-04
  627.00      4.03170E-04
  629.00      4.00940E-04
  631.00      3.96680E-04
  633.00      3.96420E-04
  635.00      3.94120E-04
  637.00      3.92010E-04
  639.00      3.89790E-04
  641.00      3.85400E-04
  643.00      3.85530E-04
  645.00      3.83150E-04
  647.00      3.80910E-04
  649.00      3.79040E-04
  651.00      3.76860E-04
  653.00      3.72010E-04
  655.00      3.69490E-04
  657.00      3.45180E-04
  659.00      3.68460E-04
  661.00      3.66930E-04
  663.00      3.64990E-04
  665.00      3.63010E-04
  667.00      3.58760E-04
  669.00      3.54540E-04
  671.00      3.56600E-04
  673.00      3.54810E-04
  675.00      3.52970E-04
  677.00      3.51470E-04
  679.00      3.49700E-04
  681.00      3.47890E-04
  683.00      3.46050E-04
  685.00      3.44180E-04
  687.00      3.42310E-04
  689.00      3.37470E-04
  691.00      3.38650E-04
  693.00      3.37120E-04
  695.00      3.35370E-04
  697.00      3.33640E-04
  699.00      3.31920E-04
  701.00      3.30030E-04
  703.00      3.27920E-04
  705.00      3.26570E-04
  707.00      3.22510E-04
  709.00      3.23520E-04
  711.00      3.21820E-04
  713.00      3.20180E-04
  715.00      3.18630E-04
  717.00      3.14950E-04
  719.00      3.14480E-04
  721.00      3.13850E-04
  723.00      3.12110E-04
  725.00      3.10680E-04
  727.00      3.09170E-04
  729.00      3.06590E-04
  731.00      3.05940E-04
  733.00      3.04590E-04
  735.00      3.03090E-04
  737.00      3.01530E-04
  739.00      3.00110E-04
  741.00      2.98580E-04
  743.00      2.97200E-04
  745.00      2.95540E-04
  747.00      2.94240E-04
  749.00      2.92250E-04
  751.00      2.91360E-04
  753.00      2.90040E-04
  755.00      2.88620E-04
  757.00      2.87200E-04
  759.00      2.82880E-04
  761.00      2.84210E-04
  763.00      2.83050E-04
  765.00      2.81750E-04
  767.00      2.80490E-04
  769.00      2.78710E-04
  771.00      2.77630E-04
  773.00      2.76030E-04
  775.00      2.75110E-04
  777.00      2.73940E-04
  779.00      2.72640E-04
  781.00      2.71340E-04
  783.00      2.70090E-04
  785.00      2.68520E-04
  787.00      2.67440E-04
  789.00      2.66290E-04
  791.00      2.65180E-04
  793.00      2.63980E-04
  795.00      2.62770E-04
  797.00      2.61380E-04
  799.00      2.60340E-04
  801.00      2.59160E-04
  803.00      2.57820E-04
  805.00      2.56820E-04
  807.00      2.55650E-04
  809.00      2.54440E-04
  811.00      2.53200E-04
  813.00      2.52200E-04
  815.00      2.50960E-04
  817.00      2.49770E-04
  819.00      2.47920E-04
  821.00      2.40100E-04
  823.00      2.37870E-04
  825.00      2.37970E-04
  827.00      2.36870E-04
  829.00      2.36100E-04
  831.00      2.35180E-04
  833.00      2.33790E-04
  835.00      2.32670E-04
  837.00      2.32100E-04
  839.00      2.31350E-04
  841.00      2.30510E-04
  843.00      2.29700E-04
  845.00      2.28640E-04
  847.00      2.28070E-04
  849.00      2.27410E-04
  851.00      2.25870E-04
  853.00      2.26100E-04
  855.00      2.24400E-04
  857.00      2.25250E-04
  859.00      2.22730E-04
  861.00      2.22260E-04
  863.00      2.23910E-04
  865.00      2.22180E-04
  867.00      2.17140E-04
  869.00      2.22230E-04
  871.00      2.22350E-04
  873.00      2.20590E-04
  875.00      2.11830E-04
  877.00      2.18310E-04
  879.00      2.20130E-04
  881.00      2.19500E-04
  883.00      2.18520E-04
  885.00      2.13550E-04
  887.00      2.05360E-04
  889.00      2.15230E-04
  891.00      2.15380E-04
  893.00      2.14250E-04
  895.00      2.13650E-04
  897.00      2.12910E-04
  899.00      2.10600E-04
  901.00      1.99240E-04
  903.00      2.04510E-04
  905.00      2.08950E-04
  907.00      2.07990E-04
  909.00      2.07620E-04
  911.00      2.06630E-04
  913.00      2.06170E-04
  915.00      2.05370E-04
  917.00      2.04340E-04
  919.00      2.03410E-04
  921.00      1.99990E-04
  923.00      1.87380E-04
  925.00      1.98480E-04
  927.00      2.00060E-04
  929.00      1.99540E-04
  931.00      1.98560E-04
  933.00      1.97940E-04
  935.00      1.94340E-04
  937.00      1.95640E-04
  939.00      1.95610E-04
  941.00      1.94700E-04
  943.00      1.94010E-04
  945.00      1.93330E-04
  947.00      1.92270E-04
  949.00      1.91770E-04
  951.00      1.90040E-04
  953.00      1.86900E-04
  955.00      1.75290E-04
  957.00      1.87020E-04
  959.00      1.87900E-04
  961.00      1.87200E-04
  963.00      1.86280E-04
  965.00      1.85930E-04
  967.00      1.85230E-04
  969.00      1.84480E-04
  971.00      1.81490E-04
  973.00      1.82760E-04
  975.00      1.82300E-04
  977.00      1.80870E-04
  979.00      1.80980E-04
  981.00      1.80290E-04
  983.00      1.79560E-04
  985.00      1.78920E-04
  987.00      1.78250E-04
  989.00      1.77530E-04
  991.00      1.76790E-04
  993.00      1.76230E-04
  995.00      1.75580E-04
  997.00      1.74900E-04
  999.00      1.74260E-04
  1002.5      1.70070E-04
  1007.5      1.66850E-04
  1012.5      1.67650E-04
  1017.5      1.68350E-04
  1022.5      1.66770E-04
  1027.5      1.65220E-04
  1032.5      1.63440E-04
  1037.5      1.62290E-04
  1042.5      1.60360E-04
  1047.5      1.59390E-04
  1052.5      1.57960E-04
  1057.5      1.56560E-04
  1062.5      1.55180E-04
  1067.5      1.53730E-04
  1072.5      1.52460E-04
  1077.5      1.51120E-04
  1082.5      1.48930E-04
  1087.5      1.48470E-04
  1092.5      1.41250E-04
  1097.5      1.44870E-04
  1102.5      1.44490E-04
  1107.5      1.43470E-04
  1112.5      1.42260E-04
  1117.5      1.41110E-04
  1122.5      1.39890E-04
  1127.5      1.38730E-04
  1132.5      1.37550E-04
  1137.5      1.36420E-04
  1142.5      1.35300E-04
  1147.5      1.34190E-04
  1152.5      1.33090E-04
  1157.5      1.31970E-04
  1162.5      1.30050E-04
  1167.5      1.29280E-04
  1172.5      1.28810E-04
  1177.5      1.27770E-04
  1182.5      1.26710E-04
  1187.5      1.25720E-04
  1192.5      1.24720E-04
  1197.5      1.23120E-04
  1202.5      1.22770E-04
  1207.5      1.21780E-04
  1212.5      1.20790E-04
  1217.5      1.19900E-04
  1222.5      1.18970E-04
  1227.5      1.18050E-04
  1232.5      1.17130E-04
  1237.5      1.16230E-04
  1242.5      1.15340E-04
  1247.5      1.14460E-04
  1252.5      1.13500E-04
  1257.5      1.12710E-04
  1262.5      1.11880E-04
  1267.5      1.11040E-04
  1272.5      1.10200E-04
  1277.5      1.08570E-04
  1282.5      1.03970E-04
  1287.5      1.07620E-04
  1292.5      1.06970E-04
  1297.5      1.05930E-04
  1302.5      1.05380E-04
  1307.5      1.04630E-04
  1312.5      1.03870E-04
  1317.5      1.03110E-04
  1322.5      1.02370E-04
  1327.5      1.01630E-04
  1332.5      1.00900E-04
  1337.5      1.00180E-04
  1342.5      9.94360E-05
  1347.5      9.87570E-05
  1352.5      9.80540E-05
  1357.5      9.73700E-05
  1362.5      9.66800E-05
  1367.5      9.60080E-05
  1372.5      9.53140E-05
  1377.5      9.46740E-05
  1382.5      9.40190E-05
  1387.5      9.33680E-05
  1392.5      9.27160E-05
  1397.5      9.20890E-05
