 Castelli and Kurucz 2004-2012 Atmosphere
 T     44000.     G    5.00000 [0.0] VTURB=2  L/H=1.25 NOVER NEW ODF           
 Wavelength  Eddington Hnu
   (nm)    (ergs/s/cm2/Hz/sr)
  9.0900      6.37250E-22
  9.3500      2.00350E-21
  9.6100      5.85610E-21
  9.7700      1.12360E-20
  9.9600      2.34000E-20
  10.200      5.69110E-20
  10.380      1.08080E-19
  10.560      2.00930E-19
  10.770      4.03800E-19
  11.040      9.53680E-19
  11.400      2.82050E-18
  11.780      8.27100E-18
  12.130      2.10910E-17
  12.480      5.10600E-17
  12.710      8.90490E-17
  12.840      1.20920E-16
  13.050      1.95600E-16
  13.240      2.98680E-16
  13.390      4.14770E-16
  13.660      7.30830E-16
  13.980      1.41170E-15
  14.330      2.78420E-15
  14.720      5.62420E-15
  15.100      1.13140E-14
  15.520      2.30210E-14
  15.880      4.12660E-14
  16.200      6.87560E-14
  16.600      1.26330E-13
  17.030      2.31880E-13
  17.340      3.54410E-13
  17.680      5.63880E-13
  18.020      8.75560E-13
  18.170      1.04140E-12
  18.610      1.81540E-12
  19.100      3.22050E-12
  19.390      4.50460E-12
  19.840      7.34520E-12
  20.180      1.04040E-11
  20.500      1.45420E-11
  21.050      2.49520E-11
  21.620      4.21660E-11
  21.980      5.86870E-11
  22.300      7.70890E-11
  22.680      1.06130E-10
  23.000      2.70820E-08
  23.400      1.10080E-07
  24.000      1.72550E-07
  24.650      2.91700E-07
  25.240      6.91610E-07
  25.680      1.38040E-06
  26.000      1.84730E-06
  26.400      1.34360E-05
  26.850      1.79440E-05
  27.350      2.31180E-05
  27.850      1.47110E-05
  28.400      3.51730E-05
  29.000      5.53750E-05
  29.600      4.11640E-05
  30.100      3.20990E-05
  30.800      9.03160E-05
  31.800      3.33130E-05
  32.800      5.47670E-05
  33.800      4.13850E-05
  34.800      4.71350E-05
  35.700      1.32990E-04
  36.600      2.74430E-04
  37.500      3.69900E-04
  38.500      3.47640E-04
  39.500      5.75100E-04
  40.500      8.66970E-04
  41.400      8.48600E-04
  42.200      8.20360E-04
  43.000      7.80920E-04
  44.100      9.58420E-04
  45.100      1.03330E-03
  46.000      8.89780E-04
  47.000      9.88150E-04
  48.000      1.15040E-03
  49.000      9.23480E-04
  50.000      1.27180E-03
  50.600      1.03120E-03
  51.200      1.58530E-03
  52.000      1.49980E-03
  53.000      1.41220E-03
  54.000      1.24330E-03
  55.000      1.14380E-03
  56.000      1.55040E-03
  57.000      1.75070E-03
  58.000      1.73740E-03
  59.000      1.79360E-03
  60.000      1.56070E-03
  61.000      1.50370E-03
  62.000      1.90690E-03
  63.000      1.81340E-03
  64.000      2.02230E-03
  65.000      1.93790E-03
  65.800      1.75260E-03
  66.500      2.03570E-03
  67.500      2.15080E-03
  68.500      1.93130E-03
  69.500      2.17130E-03
  70.500      1.92860E-03
  71.600      2.25490E-03
  72.600      2.30960E-03
  73.500      2.33770E-03
  74.500      2.25980E-03
  75.500      2.25920E-03
  76.500      2.12650E-03
  77.500      2.28690E-03
  78.500      2.13810E-03
  79.500      2.31280E-03
  80.500      2.34990E-03
  81.500      2.37680E-03
  82.500      2.41560E-03
  83.500      2.18070E-03
  84.500      2.40610E-03
  85.500      2.34980E-03
  86.500      2.45620E-03
  87.500      2.47770E-03
  88.500      2.46120E-03
  89.500      2.47130E-03
  90.500      2.43400E-03
  91.500      1.85030E-03
  92.500      2.98300E-03
  93.500      4.00700E-03
  94.500      4.80330E-03
  95.500      5.47160E-03
  96.500      6.15920E-03
  97.500      4.52510E-03
  98.500      5.71430E-03
  99.500      5.14830E-03
  100.50      5.32470E-03
  101.50      5.53100E-03
  102.50      4.78470E-03
  103.50      5.79720E-03
  104.50      6.07260E-03
  105.50      6.00090E-03
  106.50      5.68970E-03
  107.50      5.86040E-03
  108.50      5.41130E-03
  109.50      5.77270E-03
  110.50      5.66110E-03
  111.50      5.65940E-03
  112.50      5.44810E-03
  113.50      5.65620E-03
  114.50      5.67810E-03
  115.50      5.41880E-03
  116.50      5.18240E-03
  117.50      4.63420E-03
  118.50      5.09520E-03
  119.50      4.93650E-03
  120.50      4.90410E-03
  121.50      4.05090E-03
  122.50      4.75820E-03
  123.50      4.78610E-03
  124.50      4.72830E-03
  125.50      4.83610E-03
  126.50      4.89940E-03
  127.50      4.95520E-03
  128.50      4.95540E-03
  129.50      4.93930E-03
  130.50      4.83430E-03
  131.50      4.87020E-03
  132.50      4.82760E-03
  133.50      4.80230E-03
  134.50      4.77440E-03
  135.50      4.64500E-03
  136.50      4.52250E-03
  137.50      4.40900E-03
  138.50      4.43930E-03
  139.50      4.31200E-03
  140.50      4.16750E-03
  141.50      4.50090E-03
  142.50      4.21910E-03
  143.50      4.40800E-03
  144.20      4.26460E-03
  144.70      4.28050E-03
  145.50      4.18930E-03
  146.50      4.20910E-03
  147.50      4.20090E-03
  148.50      4.26550E-03
  149.50      4.19010E-03
  150.50      4.19840E-03
  151.20      4.20210E-03
  151.70      4.13430E-03
  152.50      4.13330E-03
  153.50      3.87670E-03
  154.50      3.35530E-03
  155.50      3.44760E-03
  156.50      3.73980E-03
  157.50      3.83760E-03
  158.50      3.80400E-03
  159.50      3.83750E-03
  160.50      3.69430E-03
  161.50      3.61920E-03
  162.50      3.66770E-03
  163.50      3.65370E-03
  164.50      3.54370E-03
  165.50      3.70840E-03
  166.50      3.67890E-03
  167.20      3.52100E-03
  167.70      3.78040E-03
  168.50      3.73530E-03
  169.50      3.71770E-03
  170.50      3.65030E-03
  171.50      3.53740E-03
  172.50      3.51640E-03
  173.50      3.61980E-03
  174.50      3.60200E-03
  175.50      3.55470E-03
  176.50      3.53420E-03
  177.50      3.49300E-03
  178.50      3.51970E-03
  179.50      3.45450E-03
  180.50      3.43690E-03
  181.50      3.41050E-03
  182.50      3.37680E-03
  183.50      3.37820E-03
  184.50      3.36500E-03
  185.50      3.34910E-03
  186.50      3.33680E-03
  187.50      3.28530E-03
  188.50      3.25680E-03
  189.50      3.28950E-03
  190.50      3.27170E-03
  191.50      3.24770E-03
  192.50      3.13810E-03
  193.50      3.21660E-03
  194.50      3.20220E-03
  195.50      3.12630E-03
  196.70      3.14270E-03
  197.60      3.12140E-03
  198.40      3.12070E-03
  199.50      3.09110E-03
  200.50      3.08510E-03
  201.50      3.06280E-03
  202.50      3.04270E-03
  203.50      3.01300E-03
  204.50      2.97900E-03
  205.50      2.22580E-03
  206.50      2.14070E-03
  207.40      2.18700E-03
  207.80      2.23610E-03
  208.50      2.37700E-03
  209.50      2.66170E-03
  210.50      2.83010E-03
  211.50      2.86510E-03
  212.50      2.82890E-03
  213.50      2.82530E-03
  214.50      2.80680E-03
  215.50      2.82670E-03
  216.50      2.68560E-03
  217.50      2.81660E-03
  218.50      2.68950E-03
  219.50      2.79140E-03
  220.50      2.77540E-03
  221.50      2.63200E-03
  222.50      2.73910E-03
  223.50      2.72700E-03
  224.50      2.69900E-03
  225.50      2.57490E-03
  226.50      2.66880E-03
  227.50      2.66340E-03
  228.50      2.62370E-03
  229.50      2.56510E-03
  230.50      2.49350E-03
  231.50      2.56290E-03
  232.50      2.57030E-03
  233.50      2.55580E-03
  234.50      2.52880E-03
  235.50      2.50300E-03
  236.50      2.48390E-03
  237.50      2.45370E-03
  238.50      2.32580E-03
  239.50      2.40760E-03
  240.50      2.40110E-03
  241.50      2.39430E-03
  242.50      2.40120E-03
  243.50      2.37910E-03
  244.50      2.36710E-03
  245.50      2.34050E-03
  246.50      2.33650E-03
  247.50      2.33310E-03
  248.50      2.30330E-03
  249.50      2.11070E-03
  250.50      2.26320E-03
  251.30      2.09100E-03
  251.80      2.21380E-03
  252.50      2.23260E-03
  253.50      2.24310E-03
  254.50      2.23340E-03
  255.50      2.21670E-03
  256.50      2.20560E-03
  257.50      2.19010E-03
  258.50      2.17840E-03
  259.50      2.13570E-03
  260.50      2.15370E-03
  261.50      2.12470E-03
  262.50      2.13000E-03
  263.50      2.11980E-03
  264.50      2.09980E-03
  265.50      2.09390E-03
  266.50      2.07860E-03
  267.50      2.04580E-03
  268.50      2.05020E-03
  269.50      2.03420E-03
  270.50      2.03630E-03
  271.50      2.01950E-03
  272.50      2.00670E-03
  273.50      1.92520E-03
  274.50      1.98940E-03
  275.50      1.97500E-03
  276.50      1.96380E-03
  277.50      1.95240E-03
  278.50      1.93290E-03
  279.50      1.91390E-03
  280.50      1.91590E-03
  281.50      1.90730E-03
  282.50      1.89260E-03
  283.50      1.88670E-03
  284.50      1.87980E-03
  285.50      1.86830E-03
  286.50      1.85060E-03
  287.50      1.84150E-03
  288.50      1.83560E-03
  289.50      1.82360E-03
  291.00      1.80810E-03
  293.00      1.79230E-03
  295.00      1.77160E-03
  297.00      1.74870E-03
  299.00      1.72260E-03
  301.00      1.70580E-03
  303.00      1.67860E-03
  305.00      1.66810E-03
  307.00      1.64840E-03
  309.00      1.63850E-03
  311.00      1.62270E-03
  313.00      1.60440E-03
  315.00      1.59260E-03
  317.00      1.57400E-03
  319.00      1.55950E-03
  321.00      1.51340E-03
  323.00      1.53000E-03
  325.00      1.51590E-03
  327.00      1.48740E-03
  329.00      1.48220E-03
  331.00      1.46620E-03
  333.00      1.45140E-03
  335.00      1.42940E-03
  337.00      1.42170E-03
  339.00      1.40870E-03
  341.00      1.39400E-03
  343.00      1.38550E-03
  345.00      1.36460E-03
  347.00      1.35830E-03
  349.00      1.34630E-03
  351.00      1.33530E-03
  353.00      1.32030E-03
  355.00      1.30800E-03
  357.00      1.29710E-03
  359.00      1.28440E-03
  361.00      1.27060E-03
  363.00      1.25850E-03
  364.00      1.22840E-03
  365.00      1.11050E-03
  367.00      1.10210E-03
  369.00      1.09450E-03
  371.00      1.08890E-03
  373.00      1.09920E-03
  375.00      1.11180E-03
  377.00      1.12320E-03
  379.00      1.14930E-03
  381.00      1.17260E-03
  383.00      1.11710E-03
  385.00      1.17320E-03
  387.00      1.17510E-03
  389.00      1.07220E-03
  391.00      1.16650E-03
  393.00      1.15060E-03
  395.00      1.14310E-03
  397.00      1.02870E-03
  399.00      1.12690E-03
  401.00      1.12200E-03
  403.00      1.09100E-03
  405.00      1.10780E-03
  407.00      1.09370E-03
  409.00      1.04840E-03
  411.00      9.88650E-04
  413.00      1.06470E-03
  415.00      1.05940E-03
  417.00      1.05380E-03
  419.00      1.03830E-03
  421.00      1.01720E-03
  423.00      1.02960E-03
  425.00      1.02040E-03
  427.00      1.01200E-03
  429.00      1.00360E-03
  431.00      9.91320E-04
  433.00      9.45240E-04
  435.00      9.06460E-04
  437.00      9.66430E-04
  439.00      9.55790E-04
  441.00      9.50840E-04
  443.00      9.46810E-04
  445.00      9.38300E-04
  447.00      9.23560E-04
  449.00      9.24630E-04
  451.00      9.13650E-04
  453.00      9.05370E-04
  455.00      8.80790E-04
  457.00      8.95080E-04
  459.00      8.87840E-04
  461.00      8.82200E-04
  463.00      8.70810E-04
  465.00      8.50410E-04
  467.00      8.59250E-04
  469.00      8.23600E-04
  471.00      8.48230E-04
  473.00      8.45470E-04
  475.00      8.39170E-04
  477.00      8.32760E-04
  479.00      8.26060E-04
  481.00      8.20140E-04
  483.00      8.12010E-04
  485.00      7.83010E-04
  487.00      7.37940E-04
  489.00      7.92600E-04
  491.00      7.89670E-04
  493.00      7.80790E-04
  495.00      7.78840E-04
  497.00      7.73670E-04
  499.00      7.68320E-04
  501.00      7.59860E-04
  503.00      7.56530E-04
  505.00      7.50970E-04
  507.00      7.46430E-04
  509.00      7.41320E-04
  511.00      7.36130E-04
  513.00      7.30780E-04
  515.00      7.25690E-04
  517.00      7.20730E-04
  519.00      7.15730E-04
  521.00      7.10720E-04
  523.00      7.06020E-04
  525.00      7.00250E-04
  527.00      6.95180E-04
  529.00      6.91590E-04
  531.00      6.86880E-04
  533.00      6.82130E-04
  535.00      6.77640E-04
  537.00      6.73040E-04
  539.00      6.68480E-04
  541.00      6.47940E-04
  543.00      6.59230E-04
  545.00      6.55300E-04
  547.00      6.50810E-04
  549.00      6.46630E-04
  551.00      6.41760E-04
  553.00      6.38160E-04
  555.00      6.34020E-04
  557.00      6.29530E-04
  559.00      6.23950E-04
  561.00      6.21740E-04
  563.00      6.17720E-04
  565.00      6.13720E-04
  567.00      6.09770E-04
  569.00      5.96290E-04
  571.00      5.58530E-04
  573.00      5.55270E-04
  575.00      5.51970E-04
  577.00      5.48920E-04
  579.00      5.45930E-04
  581.00      5.40720E-04
  583.00      5.40870E-04
  585.00      5.39800E-04
  587.00      5.34700E-04
  589.00      5.38160E-04
  591.00      5.38070E-04
  593.00      5.38290E-04
  595.00      5.39010E-04
  597.00      5.39970E-04
  599.00      5.41480E-04
  601.00      5.41420E-04
  603.00      5.41160E-04
  605.00      5.40780E-04
  607.00      5.37690E-04
  609.00      5.35030E-04
  611.00      5.31870E-04
  613.00      5.29030E-04
  615.00      5.26540E-04
  617.00      5.21980E-04
  619.00      5.20430E-04
  621.00      5.17750E-04
  623.00      5.12550E-04
  625.00      5.11000E-04
  627.00      5.08660E-04
  629.00      5.05650E-04
  631.00      4.99810E-04
  633.00      4.99390E-04
  635.00      4.96880E-04
  637.00      4.94080E-04
  639.00      4.90700E-04
  641.00      4.84590E-04
  643.00      4.85460E-04
  645.00      4.82620E-04
  647.00      4.79810E-04
  649.00      4.77280E-04
  651.00      4.73690E-04
  653.00      4.66130E-04
  655.00      4.60320E-04
  657.00      4.29290E-04
  659.00      4.62010E-04
  661.00      4.61470E-04
  663.00      4.58940E-04
  665.00      4.56380E-04
  667.00      4.50770E-04
  669.00      4.43910E-04
  671.00      4.48120E-04
  673.00      4.46060E-04
  675.00      4.43590E-04
  677.00      4.41430E-04
  679.00      4.39140E-04
  681.00      4.36750E-04
  683.00      4.34380E-04
  685.00      4.31990E-04
  687.00      4.29480E-04
  689.00      4.20360E-04
  691.00      4.24450E-04
  693.00      4.22820E-04
  695.00      4.20560E-04
  697.00      4.18330E-04
  699.00      4.16080E-04
  701.00      4.13720E-04
  703.00      4.11190E-04
  705.00      4.09280E-04
  707.00      4.05340E-04
  709.00      4.05260E-04
  711.00      4.03050E-04
  713.00      4.00930E-04
  715.00      3.98960E-04
  717.00      3.92030E-04
  719.00      3.91740E-04
  721.00      3.92800E-04
  723.00      3.90750E-04
  725.00      3.88770E-04
  727.00      3.86790E-04
  729.00      3.84180E-04
  731.00      3.82630E-04
  733.00      3.80910E-04
  735.00      3.78980E-04
  737.00      3.76950E-04
  739.00      3.75090E-04
  741.00      3.73150E-04
  743.00      3.71410E-04
  745.00      3.69240E-04
  747.00      3.67670E-04
  749.00      3.65230E-04
  751.00      3.63910E-04
  753.00      3.62230E-04
  755.00      3.60400E-04
  757.00      3.58520E-04
  759.00      3.49630E-04
  761.00      3.54250E-04
  763.00      3.53340E-04
  765.00      3.51640E-04
  767.00      3.49960E-04
  769.00      3.47810E-04
  771.00      3.46360E-04
  773.00      3.44340E-04
  775.00      3.43130E-04
  777.00      3.41610E-04
  779.00      3.39950E-04
  781.00      3.38320E-04
  783.00      3.36690E-04
  785.00      3.34680E-04
  787.00      3.33330E-04
  789.00      3.31860E-04
  791.00      3.30380E-04
  793.00      3.28840E-04
  795.00      3.27290E-04
  797.00      3.25510E-04
  799.00      3.24220E-04
  801.00      3.22700E-04
  803.00      3.21030E-04
  805.00      3.19710E-04
  807.00      3.18220E-04
  809.00      3.16740E-04
  811.00      3.15280E-04
  813.00      3.13820E-04
  815.00      3.12380E-04
  817.00      3.10700E-04
  819.00      3.08000E-04
  821.00      2.94190E-04
  823.00      2.90630E-04
  825.00      2.91050E-04
  827.00      2.90340E-04
  829.00      2.89190E-04
  831.00      2.87990E-04
  833.00      2.86430E-04
  835.00      2.85300E-04
  837.00      2.84290E-04
  839.00      2.83190E-04
  841.00      2.82100E-04
  843.00      2.81020E-04
  845.00      2.79860E-04
  847.00      2.78970E-04
  849.00      2.78110E-04
  851.00      2.76950E-04
  853.00      2.76420E-04
  855.00      2.75420E-04
  857.00      2.74870E-04
  859.00      2.73670E-04
  861.00      2.73100E-04
  863.00      2.73050E-04
  865.00      2.71880E-04
  867.00      2.69840E-04
  869.00      2.71130E-04
  871.00      2.70960E-04
  873.00      2.69630E-04
  875.00      2.65580E-04
  877.00      2.67780E-04
  879.00      2.68980E-04
  881.00      2.68770E-04
  883.00      2.67900E-04
  885.00      2.63340E-04
  887.00      2.58210E-04
  889.00      2.64210E-04
  891.00      2.64950E-04
  893.00      2.64290E-04
  895.00      2.63550E-04
  897.00      2.62270E-04
  899.00      2.59150E-04
  901.00      2.48920E-04
  903.00      2.51990E-04
  905.00      2.56970E-04
  907.00      2.56750E-04
  909.00      2.56220E-04
  911.00      2.55120E-04
  913.00      2.54580E-04
  915.00      2.53740E-04
  917.00      2.52030E-04
  919.00      2.50310E-04
  921.00      2.45630E-04
  923.00      2.33080E-04
  925.00      2.42930E-04
  927.00      2.46040E-04
  929.00      2.45870E-04
  931.00      2.45190E-04
  933.00      2.43830E-04
  935.00      2.36800E-04
  937.00      2.41260E-04
  939.00      2.41280E-04
  941.00      2.40380E-04
  943.00      2.39490E-04
  945.00      2.38600E-04
  947.00      2.37450E-04
  949.00      2.36220E-04
  951.00      2.33960E-04
  953.00      2.28740E-04
  955.00      2.16250E-04
  957.00      2.28540E-04
  959.00      2.30870E-04
  961.00      2.30760E-04
  963.00      2.29950E-04
  965.00      2.29300E-04
  967.00      2.28410E-04
  969.00      2.27510E-04
  971.00      2.25210E-04
  973.00      2.25520E-04
  975.00      2.24420E-04
  977.00      2.22590E-04
  979.00      2.23080E-04
  981.00      2.22230E-04
  983.00      2.21290E-04
  985.00      2.20520E-04
  987.00      2.19670E-04
  989.00      2.18810E-04
  991.00      2.17920E-04
  993.00      2.17140E-04
  995.00      2.16310E-04
  997.00      2.15470E-04
  999.00      2.14350E-04
  1002.5      2.08220E-04
  1007.5      2.04270E-04
  1012.5      2.05010E-04
  1017.5      2.07240E-04
  1022.5      2.05310E-04
  1027.5      2.03340E-04
  1032.5      2.01270E-04
  1037.5      1.99660E-04
  1042.5      1.96700E-04
  1047.5      1.96050E-04
  1052.5      1.94260E-04
  1057.5      1.92510E-04
  1062.5      1.90780E-04
  1067.5      1.89050E-04
  1072.5      1.87390E-04
  1077.5      1.85720E-04
  1082.5      1.83420E-04
  1087.5      1.82100E-04
  1092.5      1.72480E-04
  1097.5      1.76850E-04
  1102.5      1.77570E-04
  1107.5      1.76180E-04
  1112.5      1.74670E-04
  1117.5      1.73280E-04
  1122.5      1.71780E-04
  1127.5      1.70310E-04
  1132.5      1.68860E-04
  1137.5      1.67450E-04
  1142.5      1.66060E-04
  1147.5      1.64670E-04
  1152.5      1.63300E-04
  1157.5      1.61910E-04
  1162.5      1.58430E-04
  1167.5      1.57730E-04
  1172.5      1.57960E-04
  1177.5      1.56680E-04
  1182.5      1.55380E-04
  1187.5      1.54140E-04
  1192.5      1.52900E-04
  1197.5      1.51260E-04
  1202.5      1.50460E-04
  1207.5      1.49250E-04
  1212.5      1.48040E-04
  1217.5      1.46900E-04
  1222.5      1.45750E-04
  1227.5      1.44600E-04
  1232.5      1.43470E-04
  1237.5      1.42350E-04
  1242.5      1.41250E-04
  1247.5      1.40160E-04
  1252.5      1.39040E-04
  1257.5      1.38000E-04
  1262.5      1.36950E-04
  1267.5      1.35910E-04
  1272.5      1.34870E-04
  1277.5      1.32690E-04
  1282.5      1.26040E-04
  1287.5      1.31320E-04
  1292.5      1.30870E-04
  1297.5      1.29790E-04
  1302.5      1.28920E-04
  1307.5      1.27980E-04
  1312.5      1.27030E-04
  1317.5      1.26100E-04
  1322.5      1.25180E-04
  1327.5      1.24270E-04
  1332.5      1.23360E-04
  1337.5      1.22470E-04
  1342.5      1.21570E-04
  1347.5      1.20710E-04
  1352.5      1.19850E-04
  1357.5      1.18990E-04
  1362.5      1.18150E-04
  1367.5      1.17310E-04
  1372.5      1.16470E-04
  1377.5      1.15660E-04
  1382.5      1.14850E-04
  1387.5      1.14050E-04
  1392.5      1.13250E-04
  1397.5      1.12470E-04
