 Castelli and Kurucz 2004-2012 Atmosphere
 T     38000.     G    4.50000 [0.0] VTURB=2  L/H=1.25 NOVER NEW ODF           
 Wavelength  Eddington Hnu
   (nm)    (ergs/s/cm2/Hz/sr)
  9.0900      1.13170E-26
  9.3500      4.59590E-26
  9.6100      1.72480E-25
  9.7700      3.80950E-25
  9.9600      9.38610E-25
  10.200      2.80480E-24
  10.380      6.18680E-24
  10.560      1.33120E-23
  10.770      3.15920E-23
  11.040      9.17880E-23
  11.400      3.54020E-22
  11.780      1.35870E-21
  12.130      4.38430E-21
  12.480      1.33110E-20
  12.710      2.67950E-20
  12.840      3.93870E-20
  13.050      7.22470E-20
  13.240      1.23260E-19
  13.390      1.86250E-19
  13.660      3.82550E-19
  13.980      8.73520E-19
  14.330      2.06590E-18
  14.720      5.10690E-18
  15.100      1.21130E-17
  15.520      2.96900E-17
  15.880      6.18400E-17
  16.200      1.15370E-16
  16.600      2.46370E-16
  17.030      5.32970E-16
  17.340      9.12560E-16
  17.680      1.61780E-15
  18.020      2.80180E-15
  18.170      3.54840E-15
  18.610      6.98410E-15
  19.100      1.43210E-14
  19.390      2.16010E-14
  19.840      3.99130E-14
  20.180      6.22000E-14
  20.500      9.35350E-14
  21.050      1.83460E-13
  21.620      3.54440E-13
  21.980      5.33100E-13
  22.300      7.53810E-13
  22.680      1.12560E-12
  23.000      8.35760E-10
  23.400      2.50660E-09
  24.000      3.68670E-09
  24.650      5.59810E-09
  25.240      9.38310E-09
  25.680      1.26620E-08
  26.000      1.78850E-08
  26.400      4.22770E-08
  26.850      6.50140E-08
  27.350      8.14770E-08
  27.850      8.07570E-08
  28.400      1.65740E-07
  29.000      2.29590E-07
  29.600      2.50250E-07
  30.100      4.75230E-07
  30.800      2.45900E-06
  31.800      2.29080E-06
  32.800      4.00530E-06
  33.800      4.97360E-06
  34.800      6.62290E-06
  35.700      1.62210E-05
  36.600      3.46880E-05
  37.500      4.48650E-05
  38.500      4.71960E-05
  39.500      8.02190E-05
  40.500      1.17950E-04
  41.400      1.15360E-04
  42.200      1.19890E-04
  43.000      1.14490E-04
  44.100      1.39300E-04
  45.100      1.49240E-04
  46.000      1.32740E-04
  47.000      1.45300E-04
  48.000      1.71900E-04
  49.000      1.40550E-04
  50.000      1.87920E-04
  50.600      1.81760E-04
  51.200      4.91920E-04
  52.000      4.68620E-04
  53.000      4.32730E-04
  54.000      3.96700E-04
  55.000      3.95850E-04
  56.000      5.49590E-04
  57.000      6.27750E-04
  58.000      6.13600E-04
  59.000      6.43720E-04
  60.000      5.25130E-04
  61.000      5.78650E-04
  62.000      7.45230E-04
  63.000      7.26070E-04
  64.000      7.97800E-04
  65.000      7.75250E-04
  65.800      6.74770E-04
  66.500      8.06060E-04
  67.500      9.00600E-04
  68.500      7.55240E-04
  69.500      9.21910E-04
  70.500      7.67830E-04
  71.600      9.99760E-04
  72.600      1.01610E-03
  73.500      1.04670E-03
  74.500      9.94070E-04
  75.500      1.00680E-03
  76.500      9.70280E-04
  77.500      1.04720E-03
  78.500      1.01250E-03
  79.500      1.09390E-03
  80.500      1.09240E-03
  81.500      1.11440E-03
  82.500      1.15450E-03
  83.500      9.91990E-04
  84.500      1.15420E-03
  85.500      1.14460E-03
  86.500      1.20050E-03
  87.500      1.21610E-03
  88.500      1.22500E-03
  89.500      1.23830E-03
  90.500      1.22310E-03
  91.500      1.04490E-03
  92.500      1.94300E-03
  93.500      2.77860E-03
  94.500      3.34840E-03
  95.500      3.73120E-03
  96.500      4.19070E-03
  97.500      2.79810E-03
  98.500      3.78460E-03
  99.500      3.43770E-03
  100.50      3.51960E-03
  101.50      3.72190E-03
  102.50      3.24300E-03
  103.50      3.86190E-03
  104.50      4.14420E-03
  105.50      4.07220E-03
  106.50      3.84330E-03
  107.50      3.91300E-03
  108.50      3.67700E-03
  109.50      3.88870E-03
  110.50      3.80250E-03
  111.50      3.79840E-03
  112.50      3.54030E-03
  113.50      3.79390E-03
  114.50      3.79800E-03
  115.50      3.60410E-03
  116.50      3.51100E-03
  117.50      2.86550E-03
  118.50      3.35980E-03
  119.50      3.28810E-03
  120.50      3.26150E-03
  121.50      2.73790E-03
  122.50      3.17110E-03
  123.50      3.31410E-03
  124.50      3.28300E-03
  125.50      3.30990E-03
  126.50      3.39520E-03
  127.50      3.48270E-03
  128.50      3.49890E-03
  129.50      3.44530E-03
  130.50      3.40220E-03
  131.50      3.49950E-03
  132.50      3.46020E-03
  133.50      3.42350E-03
  134.50      3.44830E-03
  135.50      3.35570E-03
  136.50      3.29650E-03
  137.50      3.23010E-03
  138.50      3.21780E-03
  139.50      3.02440E-03
  140.50      2.95300E-03
  141.50      3.23110E-03
  142.50      2.97220E-03
  143.50      3.14810E-03
  144.20      3.08280E-03
  144.70      3.09510E-03
  145.50      3.00360E-03
  146.50      3.01900E-03
  147.50      3.02800E-03
  148.50      3.07520E-03
  149.50      3.01510E-03
  150.50      3.03670E-03
  151.20      3.03200E-03
  151.70      3.01860E-03
  152.50      2.97400E-03
  153.50      2.73590E-03
  154.50      2.31760E-03
  155.50      2.39090E-03
  156.50      2.64490E-03
  157.50      2.75620E-03
  158.50      2.76440E-03
  159.50      2.78010E-03
  160.50      2.64770E-03
  161.50      2.58510E-03
  162.50      2.64230E-03
  163.50      2.65030E-03
  164.50      2.61060E-03
  165.50      2.70730E-03
  166.50      2.68110E-03
  167.20      2.53000E-03
  167.70      2.82270E-03
  168.50      2.75670E-03
  169.50      2.72540E-03
  170.50      2.69760E-03
  171.50      2.61600E-03
  172.50      2.58130E-03
  173.50      2.67510E-03
  174.50      2.66980E-03
  175.50      2.63260E-03
  176.50      2.62800E-03
  177.50      2.58800E-03
  178.50      2.62280E-03
  179.50      2.57200E-03
  180.50      2.57180E-03
  181.50      2.55270E-03
  182.50      2.52180E-03
  183.50      2.54100E-03
  184.50      2.52090E-03
  185.50      2.52460E-03
  186.50      2.51960E-03
  187.50      2.47590E-03
  188.50      2.44760E-03
  189.50      2.47500E-03
  190.50      2.48190E-03
  191.50      2.46060E-03
  192.50      2.36400E-03
  193.50      2.44750E-03
  194.50      2.44840E-03
  195.50      2.34890E-03
  196.70      2.40050E-03
  197.60      2.39830E-03
  198.40      2.39240E-03
  199.50      2.36060E-03
  200.50      2.38180E-03
  201.50      2.36830E-03
  202.50      2.35400E-03
  203.50      2.32910E-03
  204.50      2.30640E-03
  205.50      1.76320E-03
  206.50      1.70470E-03
  207.40      1.76490E-03
  207.80      1.80150E-03
  208.50      1.94620E-03
  209.50      2.15620E-03
  210.50      2.21560E-03
  211.50      2.23740E-03
  212.50      2.20620E-03
  213.50      2.20880E-03
  214.50      2.19640E-03
  215.50      2.21430E-03
  216.50      2.11480E-03
  217.50      2.20210E-03
  218.50      2.12260E-03
  219.50      2.18910E-03
  220.50      2.17560E-03
  221.50      2.08660E-03
  222.50      2.14620E-03
  223.50      2.13590E-03
  224.50      2.11420E-03
  225.50      2.04340E-03
  226.50      2.09520E-03
  227.50      2.08990E-03
  228.50      2.05840E-03
  229.50      1.97860E-03
  230.50      1.98030E-03
  231.50      2.01520E-03
  232.50      2.02000E-03
  233.50      2.00850E-03
  234.50      1.98890E-03
  235.50      1.96760E-03
  236.50      1.95310E-03
  237.50      1.92980E-03
  238.50      1.84700E-03
  239.50      1.89360E-03
  240.50      1.89730E-03
  241.50      1.89110E-03
  242.50      1.89400E-03
  243.50      1.87780E-03
  244.50      1.86880E-03
  245.50      1.85210E-03
  246.50      1.84620E-03
  247.50      1.84200E-03
  248.50      1.81320E-03
  249.50      1.55790E-03
  250.50      1.78210E-03
  251.30      1.68290E-03
  251.80      1.74860E-03
  252.50      1.77510E-03
  253.50      1.77800E-03
  254.50      1.76840E-03
  255.50      1.75520E-03
  256.50      1.74710E-03
  257.50      1.73630E-03
  258.50      1.72770E-03
  259.50      1.70120E-03
  260.50      1.71050E-03
  261.50      1.69010E-03
  262.50      1.69170E-03
  263.50      1.68550E-03
  264.50      1.66990E-03
  265.50      1.66510E-03
  266.50      1.65160E-03
  267.50      1.62450E-03
  268.50      1.63280E-03
  269.50      1.61950E-03
  270.50      1.62100E-03
  271.50      1.60640E-03
  272.50      1.59850E-03
  273.50      1.54990E-03
  274.50      1.58730E-03
  275.50      1.57630E-03
  276.50      1.56520E-03
  277.50      1.56080E-03
  278.50      1.54630E-03
  279.50      1.52410E-03
  280.50      1.53050E-03
  281.50      1.52630E-03
  282.50      1.51540E-03
  283.50      1.50830E-03
  284.50      1.50540E-03
  285.50      1.49620E-03
  286.50      1.48250E-03
  287.50      1.47690E-03
  288.50      1.47110E-03
  289.50      1.46250E-03
  291.00      1.44830E-03
  293.00      1.43810E-03
  295.00      1.42050E-03
  297.00      1.40420E-03
  299.00      1.38270E-03
  301.00      1.36880E-03
  303.00      1.34810E-03
  305.00      1.34140E-03
  307.00      1.32980E-03
  309.00      1.31840E-03
  311.00      1.30790E-03
  313.00      1.29340E-03
  315.00      1.28410E-03
  317.00      1.27010E-03
  319.00      1.25840E-03
  321.00      1.22890E-03
  323.00      1.23570E-03
  325.00      1.22580E-03
  327.00      1.20330E-03
  329.00      1.19920E-03
  331.00      1.18660E-03
  333.00      1.17510E-03
  335.00      1.15750E-03
  337.00      1.15130E-03
  339.00      1.14410E-03
  341.00      1.13270E-03
  343.00      1.12410E-03
  345.00      1.10770E-03
  347.00      1.10370E-03
  349.00      1.09460E-03
  351.00      1.08550E-03
  353.00      1.07420E-03
  355.00      1.06420E-03
  357.00      1.05650E-03
  359.00      1.04520E-03
  361.00      1.03400E-03
  363.00      1.02510E-03
  364.00      1.00700E-03
  365.00      9.27470E-04
  367.00      9.20980E-04
  369.00      9.14900E-04
  371.00      9.08100E-04
  373.00      9.14520E-04
  375.00      9.25770E-04
  377.00      9.30350E-04
  379.00      9.54630E-04
  381.00      9.73960E-04
  383.00      9.18890E-04
  385.00      9.77940E-04
  387.00      9.73890E-04
  389.00      8.89070E-04
  391.00      9.72090E-04
  393.00      9.55400E-04
  395.00      9.49280E-04
  397.00      8.54190E-04
  399.00      9.39110E-04
  401.00      9.31850E-04
  403.00      9.07060E-04
  405.00      9.21080E-04
  407.00      9.06000E-04
  409.00      8.72430E-04
  411.00      8.21560E-04
  413.00      8.83560E-04
  415.00      8.78580E-04
  417.00      8.76480E-04
  419.00      8.65960E-04
  421.00      8.51140E-04
  423.00      8.57510E-04
  425.00      8.48560E-04
  427.00      8.41090E-04
  429.00      8.34820E-04
  431.00      8.24190E-04
  433.00      7.90510E-04
  435.00      7.54700E-04
  437.00      8.05830E-04
  439.00      7.93990E-04
  441.00      7.91580E-04
  443.00      7.89540E-04
  445.00      7.82990E-04
  447.00      7.67660E-04
  449.00      7.71600E-04
  451.00      7.61060E-04
  453.00      7.56560E-04
  455.00      7.40310E-04
  457.00      7.48170E-04
  459.00      7.41090E-04
  461.00      7.36670E-04
  463.00      7.27130E-04
  465.00      7.05230E-04
  467.00      7.17670E-04
  469.00      6.94460E-04
  471.00      7.07100E-04
  473.00      7.08230E-04
  475.00      7.03020E-04
  477.00      6.98030E-04
  479.00      6.92870E-04
  481.00      6.87610E-04
  483.00      6.81490E-04
  485.00      6.59660E-04
  487.00      6.18560E-04
  489.00      6.65690E-04
  491.00      6.62340E-04
  493.00      6.52830E-04
  495.00      6.53000E-04
  497.00      6.49640E-04
  499.00      6.45250E-04
  501.00      6.36220E-04
  503.00      6.35100E-04
  505.00      6.30180E-04
  507.00      6.27290E-04
  509.00      6.23010E-04
  511.00      6.18740E-04
  513.00      6.14340E-04
  515.00      6.10050E-04
  517.00      6.05910E-04
  519.00      6.01880E-04
  521.00      5.97890E-04
  523.00      5.93980E-04
  525.00      5.88840E-04
  527.00      5.84740E-04
  529.00      5.82070E-04
  531.00      5.78140E-04
  533.00      5.74270E-04
  535.00      5.70560E-04
  537.00      5.66780E-04
  539.00      5.62950E-04
  541.00      5.49770E-04
  543.00      5.55660E-04
  545.00      5.52100E-04
  547.00      5.48400E-04
  549.00      5.44930E-04
  551.00      5.40920E-04
  553.00      5.37930E-04
  555.00      5.34530E-04
  557.00      5.30800E-04
  559.00      5.26110E-04
  561.00      5.24370E-04
  563.00      5.21030E-04
  565.00      5.17710E-04
  567.00      5.14350E-04
  569.00      5.03740E-04
  571.00      4.80110E-04
  573.00      4.77360E-04
  575.00      4.74470E-04
  577.00      4.71990E-04
  579.00      4.69410E-04
  581.00      4.65490E-04
  583.00      4.64790E-04
  585.00      4.64370E-04
  587.00      4.57690E-04
  589.00      4.62560E-04
  591.00      4.62260E-04
  593.00      4.62030E-04
  595.00      4.62160E-04
  597.00      4.62510E-04
  599.00      4.62810E-04
  601.00      4.61770E-04
  603.00      4.59600E-04
  605.00      4.58070E-04
  607.00      4.55330E-04
  609.00      4.53060E-04
  611.00      4.49950E-04
  613.00      4.47390E-04
  615.00      4.44990E-04
  617.00      4.41470E-04
  619.00      4.40080E-04
  621.00      4.37660E-04
  623.00      4.33800E-04
  625.00      4.32290E-04
  627.00      4.30090E-04
  629.00      4.27630E-04
  631.00      4.23260E-04
  633.00      4.22690E-04
  635.00      4.20240E-04
  637.00      4.17950E-04
  639.00      4.15500E-04
  641.00      4.10910E-04
  643.00      4.10910E-04
  645.00      4.08300E-04
  647.00      4.05890E-04
  649.00      4.03860E-04
  651.00      4.01280E-04
  653.00      3.95880E-04
  655.00      3.90920E-04
  657.00      3.62920E-04
  659.00      3.91600E-04
  661.00      3.90710E-04
  663.00      3.88620E-04
  665.00      3.86480E-04
  667.00      3.81470E-04
  669.00      3.76890E-04
  671.00      3.79520E-04
  673.00      3.77600E-04
  675.00      3.75610E-04
  677.00      3.73990E-04
  679.00      3.72070E-04
  681.00      3.70110E-04
  683.00      3.68120E-04
  685.00      3.66100E-04
  687.00      3.64030E-04
  689.00      3.58290E-04
  691.00      3.60060E-04
  693.00      3.58480E-04
  695.00      3.56580E-04
  697.00      3.54720E-04
  699.00      3.52840E-04
  701.00      3.50790E-04
  703.00      3.48540E-04
  705.00      3.47060E-04
  707.00      3.42590E-04
  709.00      3.43780E-04
  711.00      3.41950E-04
  713.00      3.40200E-04
  715.00      3.38500E-04
  717.00      3.34140E-04
  719.00      3.33620E-04
  721.00      3.33350E-04
  723.00      3.31450E-04
  725.00      3.29930E-04
  727.00      3.28300E-04
  729.00      3.25460E-04
  731.00      3.24830E-04
  733.00      3.23370E-04
  735.00      3.21750E-04
  737.00      3.20070E-04
  739.00      3.18550E-04
  741.00      3.16900E-04
  743.00      3.15400E-04
  745.00      3.13630E-04
  747.00      3.12220E-04
  749.00      3.10040E-04
  751.00      3.09120E-04
  753.00      3.07700E-04
  755.00      3.06170E-04
  757.00      3.04640E-04
  759.00      2.99280E-04
  761.00      3.01330E-04
  763.00      3.00180E-04
  765.00      2.98770E-04
  767.00      2.97410E-04
  769.00      2.95490E-04
  771.00      2.94330E-04
  773.00      2.92580E-04
  775.00      2.91650E-04
  777.00      2.90390E-04
  779.00      2.88990E-04
  781.00      2.87590E-04
  783.00      2.86250E-04
  785.00      2.84590E-04
  787.00      2.83410E-04
  789.00      2.82180E-04
  791.00      2.80990E-04
  793.00      2.79690E-04
  795.00      2.78390E-04
  797.00      2.76920E-04
  799.00      2.75780E-04
  801.00      2.74520E-04
  803.00      2.73090E-04
  805.00      2.72010E-04
  807.00      2.70760E-04
  809.00      2.69490E-04
  811.00      2.68180E-04
  813.00      2.67050E-04
  815.00      2.65780E-04
  817.00      2.64450E-04
  819.00      2.62430E-04
  821.00      2.53890E-04
  823.00      2.51280E-04
  825.00      2.51480E-04
  827.00      2.50440E-04
  829.00      2.49640E-04
  831.00      2.48660E-04
  833.00      2.47170E-04
  835.00      2.45950E-04
  837.00      2.45330E-04
  839.00      2.44490E-04
  841.00      2.43530E-04
  843.00      2.42600E-04
  845.00      2.41350E-04
  847.00      2.40790E-04
  849.00      2.39940E-04
  851.00      2.38580E-04
  853.00      2.38380E-04
  855.00      2.37200E-04
  857.00      2.37250E-04
  859.00      2.35070E-04
  861.00      2.34790E-04
  863.00      2.35620E-04
  865.00      2.33790E-04
  867.00      2.30240E-04
  869.00      2.33630E-04
  871.00      2.33770E-04
  873.00      2.31690E-04
  875.00      2.24660E-04
  877.00      2.29300E-04
  879.00      2.31600E-04
  881.00      2.31320E-04
  883.00      2.30220E-04
  885.00      2.24290E-04
  887.00      2.17060E-04
  889.00      2.26480E-04
  891.00      2.27220E-04
  893.00      2.26380E-04
  895.00      2.25580E-04
  897.00      2.24650E-04
  899.00      2.21700E-04
  901.00      2.09590E-04
  903.00      2.14350E-04
  905.00      2.20190E-04
  907.00      2.19440E-04
  909.00      2.19370E-04
  911.00      2.18490E-04
  913.00      2.17990E-04
  915.00      2.17150E-04
  917.00      2.15900E-04
  919.00      2.14490E-04
  921.00      2.09880E-04
  923.00      1.96320E-04
  925.00      2.07970E-04
  927.00      2.10880E-04
  929.00      2.10740E-04
  931.00      2.09810E-04
  933.00      2.09080E-04
  935.00      2.04630E-04
  937.00      2.06790E-04
  939.00      2.06700E-04
  941.00      2.05740E-04
  943.00      2.05000E-04
  945.00      2.04270E-04
  947.00      2.03080E-04
  949.00      2.02440E-04
  951.00      2.00190E-04
  953.00      1.95630E-04
  955.00      1.82990E-04
  957.00      1.96050E-04
  959.00      1.97940E-04
  961.00      1.97570E-04
  963.00      1.96680E-04
  965.00      1.96370E-04
  967.00      1.95630E-04
  969.00      1.94820E-04
  971.00      1.91800E-04
  973.00      1.93020E-04
  975.00      1.92460E-04
  977.00      1.91090E-04
  979.00      1.91100E-04
  981.00      1.90360E-04
  983.00      1.89590E-04
  985.00      1.88890E-04
  987.00      1.88180E-04
  989.00      1.87410E-04
  991.00      1.86610E-04
  993.00      1.86030E-04
  995.00      1.85330E-04
  997.00      1.84600E-04
  999.00      1.83860E-04
  1002.5      1.78300E-04
  1007.5      1.74840E-04
  1012.5      1.76520E-04
  1017.5      1.77630E-04
  1022.5      1.75950E-04
  1027.5      1.74300E-04
  1032.5      1.72370E-04
  1037.5      1.71180E-04
  1042.5      1.69090E-04
  1047.5      1.68090E-04
  1052.5      1.66570E-04
  1057.5      1.65080E-04
  1062.5      1.63610E-04
  1067.5      1.62070E-04
  1072.5      1.60710E-04
  1077.5      1.59290E-04
  1082.5      1.56970E-04
  1087.5      1.56290E-04
  1092.5      1.47560E-04
  1097.5      1.51880E-04
  1102.5      1.52220E-04
  1107.5      1.51140E-04
  1112.5      1.49870E-04
  1117.5      1.48640E-04
  1122.5      1.47350E-04
  1127.5      1.46120E-04
  1132.5      1.44870E-04
  1137.5      1.43670E-04
  1142.5      1.42480E-04
  1147.5      1.41300E-04
  1152.5      1.40130E-04
  1157.5      1.38950E-04
  1162.5      1.36730E-04
  1167.5      1.36000E-04
  1172.5      1.35590E-04
  1177.5      1.34490E-04
  1182.5      1.33370E-04
  1187.5      1.32320E-04
  1192.5      1.31260E-04
  1197.5      1.29470E-04
  1202.5      1.29190E-04
  1207.5      1.28140E-04
  1212.5      1.27100E-04
  1217.5      1.26150E-04
  1222.5      1.25160E-04
  1227.5      1.24180E-04
  1232.5      1.23210E-04
  1237.5      1.22260E-04
  1242.5      1.21320E-04
  1247.5      1.20390E-04
  1252.5      1.19370E-04
  1257.5      1.18530E-04
  1262.5      1.17650E-04
  1267.5      1.16760E-04
  1272.5      1.15870E-04
  1277.5      1.13880E-04
  1282.5      1.08280E-04
  1287.5      1.12950E-04
  1292.5      1.12460E-04
  1297.5      1.11340E-04
  1302.5      1.10780E-04
  1307.5      1.09990E-04
  1312.5      1.09180E-04
  1317.5      1.08380E-04
  1322.5      1.07600E-04
  1327.5      1.06820E-04
  1332.5      1.06040E-04
  1337.5      1.05280E-04
  1342.5      1.04490E-04
  1347.5      1.03770E-04
  1352.5      1.03030E-04
  1357.5      1.02310E-04
  1362.5      1.01580E-04
  1367.5      1.00870E-04
  1372.5      1.00140E-04
  1377.5      9.94590E-05
  1382.5      9.87660E-05
  1387.5      9.80790E-05
  1392.5      9.73900E-05
  1397.5      9.67270E-05
