 Castelli and Kurucz 2004-2012 Atmosphere
 T     33000.     G    4.50000 [0.0] VTURB=2  L/H=1.25 NOVER NEW ODF           
 Wavelength  Eddington Hnu
   (nm)    (ergs/s/cm2/Hz/sr)
  9.0900      5.87200E-32
  9.3500      3.29960E-31
  9.6100      1.70420E-30
  9.7700      4.50500E-30
  9.9600      1.37750E-29
  10.200      5.35710E-29
  10.380      1.43120E-28
  10.560      3.71000E-28
  10.770      1.08650E-27
  11.040      4.09600E-27
  11.400      2.19640E-26
  11.780      1.16900E-25
  12.130      5.00160E-25
  12.480      1.98120E-24
  12.710      4.70820E-24
  12.840      7.57930E-24
  13.050      1.60380E-23
  13.240      3.10130E-23
  13.390      5.15230E-23
  13.660      1.25170E-22
  13.980      3.43610E-22
  14.330      9.86170E-22
  14.720      3.01400E-21
  15.100      8.48660E-21
  15.520      2.51620E-20
  15.880      6.11050E-20
  16.200      1.30340E-19
  16.600      3.23050E-19
  17.030      8.16970E-19
  17.340      1.55560E-18
  17.680      3.07610E-18
  18.020      5.91930E-18
  18.170      7.86720E-18
  18.610      1.75270E-17
  19.100      4.10760E-17
  19.390      6.66590E-17
  19.840      1.37860E-16
  20.180      2.33500E-16
  20.500      3.77730E-16
  21.050      8.37070E-16
  21.620      1.82710E-15
  21.980      2.94970E-15
  22.300      4.44810E-15
  22.680      7.18420E-15
  23.000      3.45970E-12
  23.400      8.04530E-12
  24.000      1.33280E-11
  24.650      2.34290E-11
  25.240      3.95190E-11
  25.680      5.47130E-11
  26.000      9.51100E-11
  26.400      1.57780E-10
  26.850      2.38940E-10
  27.350      3.35330E-10
  27.850      4.32940E-10
  28.400      9.06030E-10
  29.000      1.33680E-09
  29.600      1.81230E-09
  30.100      2.85810E-09
  30.800      6.28540E-09
  31.800      1.42010E-08
  32.800      2.13300E-08
  33.800      3.90330E-08
  34.800      6.23110E-08
  35.700      1.23040E-07
  36.600      2.34430E-07
  37.500      2.90930E-07
  38.500      4.24590E-07
  39.500      6.91080E-07
  40.500      8.82530E-07
  41.400      1.15110E-06
  42.200      1.33570E-06
  43.000      1.58810E-06
  44.100      2.05350E-06
  45.100      2.42210E-06
  46.000      2.69690E-06
  47.000      3.31290E-06
  48.000      4.02480E-06
  49.000      4.58720E-06
  50.000      5.66390E-06
  50.600      1.10180E-05
  51.200      6.90700E-05
  52.000      6.68740E-05
  53.000      6.29570E-05
  54.000      5.97710E-05
  55.000      7.30090E-05
  56.000      9.29290E-05
  57.000      1.00700E-04
  58.000      9.56140E-05
  59.000      1.04860E-04
  60.000      9.05510E-05
  61.000      1.10530E-04
  62.000      1.32200E-04
  63.000      1.32130E-04
  64.000      1.34770E-04
  65.000      1.38750E-04
  65.800      1.24270E-04
  66.500      1.44510E-04
  67.500      1.60900E-04
  68.500      1.36020E-04
  69.500      1.78120E-04
  70.500      1.53670E-04
  71.600      1.99510E-04
  72.600      2.00140E-04
  73.500      2.05470E-04
  74.500      2.05550E-04
  75.500      2.10390E-04
  76.500      2.18990E-04
  77.500      2.30120E-04
  78.500      2.42920E-04
  79.500      2.48630E-04
  80.500      2.46030E-04
  81.500      2.50810E-04
  82.500      2.68650E-04
  83.500      2.32100E-04
  84.500      2.70360E-04
  85.500      2.74360E-04
  86.500      2.88340E-04
  87.500      2.96530E-04
  88.500      3.07670E-04
  89.500      3.16480E-04
  90.500      3.14370E-04
  91.500      3.31320E-04
  92.500      9.49100E-04
  93.500      1.54600E-03
  94.500      2.18570E-03
  95.500      2.44720E-03
  96.500      2.88310E-03
  97.500      1.24940E-03
  98.500      2.50370E-03
  99.500      2.29760E-03
  100.50      2.45060E-03
  101.50      2.58890E-03
  102.50      1.96570E-03
  103.50      2.57680E-03
  104.50      3.00660E-03
  105.50      2.91160E-03
  106.50      2.58100E-03
  107.50      2.71990E-03
  108.50      2.53160E-03
  109.50      2.74520E-03
  110.50      2.66590E-03
  111.50      2.66960E-03
  112.50      2.27140E-03
  113.50      2.63910E-03
  114.50      2.55870E-03
  115.50      2.49860E-03
  116.50      2.45560E-03
  117.50      1.70770E-03
  118.50      2.31320E-03
  119.50      2.28270E-03
  120.50      2.19930E-03
  121.50      1.68490E-03
  122.50      2.20000E-03
  123.50      2.38490E-03
  124.50      2.33450E-03
  125.50      2.35550E-03
  126.50      2.44050E-03
  127.50      2.52290E-03
  128.50      2.54730E-03
  129.50      2.39480E-03
  130.50      2.42620E-03
  131.50      2.57670E-03
  132.50      2.51040E-03
  133.50      2.46990E-03
  134.50      2.49460E-03
  135.50      2.47100E-03
  136.50      2.41270E-03
  137.50      2.38180E-03
  138.50      2.33730E-03
  139.50      1.93830E-03
  140.50      1.99970E-03
  141.50      2.29140E-03
  142.50      2.09670E-03
  143.50      2.24510E-03
  144.20      2.25010E-03
  144.70      2.24680E-03
  145.50      2.16930E-03
  146.50      2.14060E-03
  147.50      2.16800E-03
  148.50      2.19050E-03
  149.50      2.14630E-03
  150.50      2.10330E-03
  151.20      2.06400E-03
  151.70      2.08930E-03
  152.50      2.04610E-03
  153.50      1.81770E-03
  154.50      1.61350E-03
  155.50      1.62570E-03
  156.50      1.80590E-03
  157.50      1.90650E-03
  158.50      1.93600E-03
  159.50      1.94110E-03
  160.50      1.86030E-03
  161.50      1.79770E-03
  162.50      1.85640E-03
  163.50      1.88850E-03
  164.50      1.88630E-03
  165.50      1.92930E-03
  166.50      1.91990E-03
  167.20      1.80120E-03
  167.70      2.06500E-03
  168.50      1.98680E-03
  169.50      1.93880E-03
  170.50      1.92950E-03
  171.50      1.87110E-03
  172.50      1.82050E-03
  173.50      1.89850E-03
  174.50      1.89450E-03
  175.50      1.88350E-03
  176.50      1.87510E-03
  177.50      1.83310E-03
  178.50      1.87020E-03
  179.50      1.85060E-03
  180.50      1.86420E-03
  181.50      1.82230E-03
  182.50      1.81760E-03
  183.50      1.82750E-03
  184.50      1.74260E-03
  185.50      1.77660E-03
  186.50      1.79490E-03
  187.50      1.77920E-03
  188.50      1.70200E-03
  189.50      1.67500E-03
  190.50      1.73550E-03
  191.50      1.69970E-03
  192.50      1.61550E-03
  193.50      1.71630E-03
  194.50      1.74940E-03
  195.50      1.61740E-03
  196.70      1.70060E-03
  197.60      1.75040E-03
  198.40      1.69330E-03
  199.50      1.66620E-03
  200.50      1.70500E-03
  201.50      1.71450E-03
  202.50      1.72600E-03
  203.50      1.66860E-03
  204.50      1.66400E-03
  205.50      1.39830E-03
  206.50      1.36530E-03
  207.40      1.41880E-03
  207.80      1.40100E-03
  208.50      1.46740E-03
  209.50      1.54330E-03
  210.50      1.61740E-03
  211.50      1.63980E-03
  212.50      1.62690E-03
  213.50      1.62360E-03
  214.50      1.60510E-03
  215.50      1.62090E-03
  216.50      1.57500E-03
  217.50      1.60810E-03
  218.50      1.57380E-03
  219.50      1.60720E-03
  220.50      1.59700E-03
  221.50      1.55390E-03
  222.50      1.57370E-03
  223.50      1.56140E-03
  224.50      1.55260E-03
  225.50      1.51540E-03
  226.50      1.53900E-03
  227.50      1.53400E-03
  228.50      1.51180E-03
  229.50      1.39640E-03
  230.50      1.46800E-03
  231.50      1.47970E-03
  232.50      1.48100E-03
  233.50      1.46930E-03
  234.50      1.46560E-03
  235.50      1.45120E-03
  236.50      1.44170E-03
  237.50      1.42470E-03
  238.50      1.38340E-03
  239.50      1.39890E-03
  240.50      1.40410E-03
  241.50      1.39610E-03
  242.50      1.39510E-03
  243.50      1.38030E-03
  244.50      1.37670E-03
  245.50      1.36900E-03
  246.50      1.36270E-03
  247.50      1.35350E-03
  248.50      1.33300E-03
  249.50      1.09290E-03
  250.50      1.30270E-03
  251.30      1.25310E-03
  251.80      1.28600E-03
  252.50      1.31450E-03
  253.50      1.31280E-03
  254.50      1.29400E-03
  255.50      1.28970E-03
  256.50      1.28580E-03
  257.50      1.27980E-03
  258.50      1.27460E-03
  259.50      1.26400E-03
  260.50      1.26460E-03
  261.50      1.25160E-03
  262.50      1.25010E-03
  263.50      1.24450E-03
  264.50      1.23380E-03
  265.50      1.22900E-03
  266.50      1.21110E-03
  267.50      1.19720E-03
  268.50      1.20750E-03
  269.50      1.18700E-03
  270.50      1.18510E-03
  271.50      1.17840E-03
  272.50      1.17410E-03
  273.50      1.15500E-03
  274.50      1.16730E-03
  275.50      1.16200E-03
  276.50      1.14940E-03
  277.50      1.15520E-03
  278.50      1.14460E-03
  279.50      1.11710E-03
  280.50      1.12700E-03
  281.50      1.13020E-03
  282.50      1.11910E-03
  283.50      1.10460E-03
  284.50      1.11290E-03
  285.50      1.10410E-03
  286.50      1.09640E-03
  287.50      1.09200E-03
  288.50      1.08670E-03
  289.50      1.08070E-03
  291.00      1.06780E-03
  293.00      1.06390E-03
  295.00      1.04600E-03
  297.00      1.03960E-03
  299.00      1.02390E-03
  301.00      1.00940E-03
  303.00      9.99400E-04
  305.00      9.95280E-04
  307.00      9.90230E-04
  309.00      9.71320E-04
  311.00      9.70990E-04
  313.00      9.58270E-04
  315.00      9.51070E-04
  317.00      9.40310E-04
  319.00      9.30540E-04
  321.00      9.19120E-04
  323.00      9.14200E-04
  325.00      9.09240E-04
  327.00      8.95430E-04
  329.00      8.89930E-04
  331.00      8.81680E-04
  333.00      8.71150E-04
  335.00      8.61450E-04
  337.00      8.54770E-04
  339.00      8.51540E-04
  341.00      8.43320E-04
  343.00      8.35700E-04
  345.00      8.24360E-04
  347.00      8.19150E-04
  349.00      8.11700E-04
  351.00      8.05400E-04
  353.00      8.00460E-04
  355.00      7.92520E-04
  357.00      7.87810E-04
  359.00      7.76270E-04
  361.00      7.70460E-04
  363.00      7.63430E-04
  364.00      7.61150E-04
  365.00      7.34500E-04
  367.00      7.31050E-04
  369.00      7.25020E-04
  371.00      7.09140E-04
  373.00      7.00460E-04
  375.00      7.04800E-04
  377.00      6.96320E-04
  379.00      7.23530E-04
  381.00      7.47040E-04
  383.00      6.82010E-04
  385.00      7.61720E-04
  387.00      7.56390E-04
  389.00      6.61200E-04
  391.00      7.64970E-04
  393.00      7.52920E-04
  395.00      7.43350E-04
  397.00      6.35530E-04
  399.00      7.36910E-04
  401.00      7.34300E-04
  403.00      7.09860E-04
  405.00      7.26750E-04
  407.00      7.06320E-04
  409.00      6.70730E-04
  411.00      6.18470E-04
  413.00      6.91460E-04
  415.00      6.90070E-04
  417.00      6.91890E-04
  419.00      6.85530E-04
  421.00      6.79650E-04
  423.00      6.77820E-04
  425.00      6.66990E-04
  427.00      6.57920E-04
  429.00      6.53960E-04
  431.00      6.42890E-04
  433.00      6.06240E-04
  435.00      5.69460E-04
  437.00      6.29640E-04
  439.00      6.21400E-04
  441.00      6.23350E-04
  443.00      6.23400E-04
  445.00      6.17940E-04
  447.00      5.98040E-04
  449.00      6.09160E-04
  451.00      6.03190E-04
  453.00      6.00830E-04
  455.00      5.92690E-04
  457.00      5.92750E-04
  459.00      5.86700E-04
  461.00      5.80860E-04
  463.00      5.73470E-04
  465.00      5.53570E-04
  467.00      5.66470E-04
  469.00      5.58360E-04
  471.00      5.53840E-04
  473.00      5.59840E-04
  475.00      5.54990E-04
  477.00      5.53700E-04
  479.00      5.49370E-04
  481.00      5.44100E-04
  483.00      5.37160E-04
  485.00      5.11890E-04
  487.00      4.70700E-04
  489.00      5.25520E-04
  491.00      5.23730E-04
  493.00      5.12210E-04
  495.00      5.15730E-04
  497.00      5.15190E-04
  499.00      5.11380E-04
  501.00      4.99330E-04
  503.00      5.02810E-04
  505.00      4.98030E-04
  507.00      4.97380E-04
  509.00      4.93560E-04
  511.00      4.89910E-04
  513.00      4.85810E-04
  515.00      4.82630E-04
  517.00      4.79560E-04
  519.00      4.76860E-04
  521.00      4.73820E-04
  523.00      4.70600E-04
  525.00      4.66610E-04
  527.00      4.63350E-04
  529.00      4.61200E-04
  531.00      4.58050E-04
  533.00      4.55090E-04
  535.00      4.52030E-04
  537.00      4.49120E-04
  539.00      4.45930E-04
  541.00      4.40040E-04
  543.00      4.40390E-04
  545.00      4.37430E-04
  547.00      4.34530E-04
  549.00      4.31720E-04
  551.00      4.29020E-04
  553.00      4.26120E-04
  555.00      4.23670E-04
  557.00      4.20840E-04
  559.00      4.17660E-04
  561.00      4.15630E-04
  563.00      4.13040E-04
  565.00      4.10180E-04
  567.00      4.06910E-04
  569.00      4.00690E-04
  571.00      3.96540E-04
  573.00      3.94440E-04
  575.00      3.91440E-04
  577.00      3.89960E-04
  579.00      3.87460E-04
  581.00      3.84810E-04
  583.00      3.82060E-04
  585.00      3.80840E-04
  587.00      3.70350E-04
  589.00      3.75670E-04
  591.00      3.74780E-04
  593.00      3.72910E-04
  595.00      3.71160E-04
  597.00      3.70180E-04
  599.00      3.67950E-04
  601.00      3.66900E-04
  603.00      3.64520E-04
  605.00      3.62630E-04
  607.00      3.60700E-04
  609.00      3.58640E-04
  611.00      3.56420E-04
  613.00      3.54450E-04
  615.00      3.51760E-04
  617.00      3.49890E-04
  619.00      3.48210E-04
  621.00      3.46340E-04
  623.00      3.44290E-04
  625.00      3.42060E-04
  627.00      3.40270E-04
  629.00      3.38430E-04
  631.00      3.36250E-04
  633.00      3.34580E-04
  635.00      3.32480E-04
  637.00      3.30820E-04
  639.00      3.28910E-04
  641.00      3.26960E-04
  643.00      3.25270E-04
  645.00      3.23320E-04
  647.00      3.20980E-04
  649.00      3.19380E-04
  651.00      3.17530E-04
  653.00      3.14600E-04
  655.00      3.06170E-04
  657.00      2.78330E-04
  659.00      3.08030E-04
  661.00      3.08870E-04
  663.00      3.07580E-04
  665.00      3.05820E-04
  667.00      3.01340E-04
  669.00      2.99610E-04
  671.00      3.00600E-04
  673.00      2.98710E-04
  675.00      2.97520E-04
  677.00      2.96200E-04
  679.00      2.93860E-04
  681.00      2.92970E-04
  683.00      2.91370E-04
  685.00      2.89910E-04
  687.00      2.88280E-04
  689.00      2.86180E-04
  691.00      2.84820E-04
  693.00      2.83900E-04
  695.00      2.82400E-04
  697.00      2.80930E-04
  699.00      2.79450E-04
  701.00      2.77880E-04
  703.00      2.76150E-04
  705.00      2.74940E-04
  707.00      2.70090E-04
  709.00      2.72280E-04
  711.00      2.70560E-04
  713.00      2.69290E-04
  715.00      2.68130E-04
  717.00      2.66430E-04
  719.00      2.65250E-04
  721.00      2.64060E-04
  723.00      2.60970E-04
  725.00      2.61100E-04
  727.00      2.60070E-04
  729.00      2.57090E-04
  731.00      2.57400E-04
  733.00      2.56130E-04
  735.00      2.54880E-04
  737.00      2.53630E-04
  739.00      2.52370E-04
  741.00      2.51120E-04
  743.00      2.49880E-04
  745.00      2.48630E-04
  747.00      2.47010E-04
  749.00      2.45810E-04
  751.00      2.44950E-04
  753.00      2.43720E-04
  755.00      2.42650E-04
  757.00      2.41440E-04
  759.00      2.39730E-04
  761.00      2.38820E-04
  763.00      2.37900E-04
  765.00      2.36770E-04
  767.00      2.35690E-04
  769.00      2.34330E-04
  771.00      2.33300E-04
  773.00      2.31980E-04
  775.00      2.31210E-04
  777.00      2.30110E-04
  779.00      2.29050E-04
  781.00      2.27890E-04
  783.00      2.26900E-04
  785.00      2.25920E-04
  787.00      2.24620E-04
  789.00      2.23480E-04
  791.00      2.22700E-04
  793.00      2.21620E-04
  795.00      2.20710E-04
  797.00      2.19540E-04
  799.00      2.18640E-04
  801.00      2.17580E-04
  803.00      2.16510E-04
  805.00      2.15610E-04
  807.00      2.14610E-04
  809.00      2.13430E-04
  811.00      2.11850E-04
  813.00      2.11690E-04
  815.00      2.10540E-04
  817.00      2.09770E-04
  819.00      2.08130E-04
  821.00      2.06170E-04
  823.00      2.04930E-04
  825.00      2.04680E-04
  827.00      2.02850E-04
  829.00      2.02850E-04
  831.00      2.02120E-04
  833.00      2.00980E-04
  835.00      1.99450E-04
  837.00      1.99120E-04
  839.00      1.98570E-04
  841.00      1.97630E-04
  843.00      1.96780E-04
  845.00      1.95070E-04
  847.00      1.95070E-04
  849.00      1.93970E-04
  851.00      1.92720E-04
  853.00      1.92260E-04
  855.00      1.90920E-04
  857.00      1.91510E-04
  859.00      1.87800E-04
  861.00      1.88090E-04
  863.00      1.89900E-04
  865.00      1.86880E-04
  867.00      1.82090E-04
  869.00      1.87480E-04
  871.00      1.88020E-04
  873.00      1.84590E-04
  875.00      1.75260E-04
  877.00      1.81500E-04
  879.00      1.85500E-04
  881.00      1.85410E-04
  883.00      1.83770E-04
  885.00      1.76000E-04
  887.00      1.68150E-04
  889.00      1.80100E-04
  891.00      1.81720E-04
  893.00      1.81310E-04
  895.00      1.80740E-04
  897.00      1.79730E-04
  899.00      1.76020E-04
  901.00      1.62280E-04
  903.00      1.67960E-04
  905.00      1.75650E-04
  907.00      1.74940E-04
  909.00      1.75430E-04
  911.00      1.75430E-04
  913.00      1.74770E-04
  915.00      1.74070E-04
  917.00      1.72640E-04
  919.00      1.71460E-04
  921.00      1.65620E-04
  923.00      1.51150E-04
  925.00      1.64180E-04
  927.00      1.68460E-04
  929.00      1.68620E-04
  931.00      1.67780E-04
  933.00      1.67520E-04
  935.00      1.66330E-04
  937.00      1.66330E-04
  939.00      1.65750E-04
  941.00      1.64980E-04
  943.00      1.64360E-04
  945.00      1.63690E-04
  947.00      1.62310E-04
  949.00      1.61940E-04
  951.00      1.59470E-04
  953.00      1.53940E-04
  955.00      1.41050E-04
  957.00      1.55320E-04
  959.00      1.58250E-04
  961.00      1.57910E-04
  963.00      1.57200E-04
  965.00      1.57460E-04
  967.00      1.56880E-04
  969.00      1.56160E-04
  971.00      1.53690E-04
  973.00      1.54800E-04
  975.00      1.54420E-04
  977.00      1.53830E-04
  979.00      1.53230E-04
  981.00      1.52580E-04
  983.00      1.52060E-04
  985.00      1.51440E-04
  987.00      1.50830E-04
  989.00      1.50130E-04
  991.00      1.49150E-04
  993.00      1.49160E-04
  995.00      1.48590E-04
  997.00      1.47940E-04
  999.00      1.47090E-04
  1002.5      1.41030E-04
  1007.5      1.38000E-04
  1012.5      1.42530E-04
  1017.5      1.42450E-04
  1022.5      1.41060E-04
  1027.5      1.39820E-04
  1032.5      1.38080E-04
  1037.5      1.37280E-04
  1042.5      1.36030E-04
  1047.5      1.34800E-04
  1052.5      1.33570E-04
  1057.5      1.32390E-04
  1062.5      1.31200E-04
  1067.5      1.29870E-04
  1072.5      1.28890E-04
  1077.5      1.27750E-04
  1082.5      1.25560E-04
  1087.5      1.25120E-04
  1092.5      1.15860E-04
  1097.5      1.20840E-04
  1102.5      1.21660E-04
  1107.5      1.21160E-04
  1112.5      1.20190E-04
  1117.5      1.19180E-04
  1122.5      1.18120E-04
  1127.5      1.17160E-04
  1132.5      1.16110E-04
  1137.5      1.15180E-04
  1142.5      1.14210E-04
  1147.5      1.13280E-04
  1152.5      1.12370E-04
  1157.5      1.11410E-04
  1162.5      1.10340E-04
  1167.5      1.09480E-04
  1172.5      1.08730E-04
  1177.5      1.07840E-04
  1182.5      1.06950E-04
  1187.5      1.06110E-04
  1192.5      1.05260E-04
  1197.5      1.03440E-04
  1202.5      1.03600E-04
  1207.5      1.02770E-04
  1212.5      1.01940E-04
  1217.5      1.01160E-04
  1222.5      1.00370E-04
  1227.5      9.95910E-05
  1232.5      9.88110E-05
  1237.5      9.80450E-05
  1242.5      9.72990E-05
  1247.5      9.65330E-05
  1252.5      9.56220E-05
  1257.5      9.50540E-05
  1262.5      9.43430E-05
  1267.5      9.36480E-05
  1272.5      9.29040E-05
  1277.5      9.07810E-05
  1282.5      8.51940E-05
  1287.5      9.03040E-05
  1292.5      9.01920E-05
  1297.5      8.90230E-05
  1302.5      8.88310E-05
  1307.5      8.82220E-05
  1312.5      8.75780E-05
  1317.5      8.69390E-05
  1322.5      8.63080E-05
  1327.5      8.56840E-05
  1332.5      8.50540E-05
  1337.5      8.44240E-05
  1342.5      8.37800E-05
  1347.5      8.32420E-05
  1352.5      8.26240E-05
  1357.5      8.20670E-05
  1362.5      8.14390E-05
  1367.5      8.09160E-05
  1372.5      8.03030E-05
  1377.5      7.97940E-05
  1382.5      7.92380E-05
  1387.5      7.86840E-05
  1392.5      7.81050E-05
  1397.5      7.75960E-05
