 Castelli and Kurucz 2004-2012 Atmosphere
 T     47000.     G    5.00000 [0.0] VTURB=2  L/H=1.25 NOVER NEW ODF           
 Wavelength  Eddington Hnu
   (nm)    (ergs/s/cm2/Hz/sr)
  9.0900      6.52720E-20
  9.3500      1.87250E-19
  9.6100      4.99390E-19
  9.7700      9.13540E-19
  9.9600      1.79360E-18
  10.200      4.06290E-18
  10.380      7.32920E-18
  10.560      1.29650E-17
  10.770      2.46410E-17
  11.040      5.43210E-17
  11.400      1.47220E-16
  11.780      3.94800E-16
  12.130      9.33860E-16
  12.480      2.09740E-15
  12.710      3.49290E-15
  12.840      4.66070E-15
  13.050      7.21060E-15
  13.240      1.06010E-14
  13.390      1.43070E-14
  13.660      2.38770E-14
  13.980      4.34870E-14
  14.330      8.00450E-14
  14.720      1.48500E-13
  15.100      2.81930E-13
  15.520      5.32320E-13
  15.880      9.00300E-13
  16.200      1.50440E-12
  16.600      2.58900E-12
  17.030      4.35870E-12
  17.340      6.29620E-12
  17.680      9.52710E-12
  18.020      1.40870E-11
  18.170      1.61030E-11
  18.610      2.66320E-11
  19.100      4.34280E-11
  19.390      5.94320E-11
  19.840      9.07400E-11
  20.180      1.20050E-10
  20.500      1.63280E-10
  21.050      2.59630E-10
  21.620      4.06200E-10
  21.980      5.43320E-10
  22.300      6.79560E-10
  22.680      8.90680E-10
  23.000      1.04070E-07
  23.400      4.78270E-07
  24.000      8.51600E-07
  24.650      2.10090E-06
  25.240      8.30480E-06
  25.680      2.03600E-05
  26.000      1.98140E-05
  26.400      8.52990E-05
  26.850      1.07620E-04
  27.350      1.33410E-04
  27.850      9.29500E-05
  28.400      1.83990E-04
  29.000      2.74400E-04
  29.600      2.24240E-04
  30.100      1.50020E-04
  30.800      2.41200E-04
  31.800      7.88140E-05
  32.800      1.15700E-04
  33.800      7.94920E-05
  34.800      8.70040E-05
  35.700      2.43980E-04
  36.600      5.01430E-04
  37.500      6.65350E-04
  38.500      5.93810E-04
  39.500      9.90860E-04
  40.500      1.50220E-03
  41.400      1.49030E-03
  42.200      1.40410E-03
  43.000      1.34700E-03
  44.100      1.68480E-03
  45.100      1.79190E-03
  46.000      1.54730E-03
  47.000      1.74650E-03
  48.000      2.01140E-03
  49.000      1.67490E-03
  50.000      2.29830E-03
  50.600      1.89910E-03
  51.200      2.47710E-03
  52.000      2.36820E-03
  53.000      2.24910E-03
  54.000      1.93600E-03
  55.000      1.72000E-03
  56.000      2.30020E-03
  57.000      2.61430E-03
  58.000      2.63260E-03
  59.000      2.69380E-03
  60.000      2.40320E-03
  61.000      2.16640E-03
  62.000      2.74270E-03
  63.000      2.55260E-03
  64.000      2.90790E-03
  65.000      2.77500E-03
  65.800      2.53540E-03
  66.500      2.92540E-03
  67.500      3.02260E-03
  68.500      2.76010E-03
  69.500      3.05090E-03
  70.500      2.76510E-03
  71.600      3.09920E-03
  72.600      3.19060E-03
  73.500      3.19900E-03
  74.500      3.10300E-03
  75.500      3.08680E-03
  76.500      2.86340E-03
  77.500      3.10580E-03
  78.500      2.85940E-03
  79.500      3.10350E-03
  80.500      3.17990E-03
  81.500      3.19770E-03
  82.500      3.23460E-03
  83.500      2.97050E-03
  84.500      3.21050E-03
  85.500      3.10780E-03
  86.500      3.25340E-03
  87.500      3.27870E-03
  88.500      3.23760E-03
  89.500      3.23960E-03
  90.500      3.18550E-03
  91.500      2.37660E-03
  92.500      3.67070E-03
  93.500      4.74820E-03
  94.500      5.52530E-03
  95.500      6.32750E-03
  96.500      6.92570E-03
  97.500      5.37390E-03
  98.500      6.46330E-03
  99.500      5.82420E-03
  100.50      6.03810E-03
  101.50      6.20650E-03
  102.50      5.55850E-03
  103.50      6.56790E-03
  104.50      6.81470E-03
  105.50      6.75010E-03
  106.50      6.42420E-03
  107.50      6.66370E-03
  108.50      6.14700E-03
  109.50      6.53850E-03
  110.50      6.45030E-03
  111.50      6.44940E-03
  112.50      6.28210E-03
  113.50      6.45190E-03
  114.50      6.48480E-03
  115.50      6.24340E-03
  116.50      5.92630E-03
  117.50      5.50070E-03
  118.50      5.91560E-03
  119.50      5.69200E-03
  120.50      5.67240E-03
  121.50      4.76170E-03
  122.50      5.52140E-03
  123.50      5.41240E-03
  124.50      5.32170E-03
  125.50      5.51040E-03
  126.50      5.55510E-03
  127.50      5.58140E-03
  128.50      5.57040E-03
  129.50      5.58830E-03
  130.50      5.44480E-03
  131.50      5.43790E-03
  132.50      5.39140E-03
  133.50      5.36580E-03
  134.50      5.31410E-03
  135.50      5.16890E-03
  136.50      5.00530E-03
  137.50      4.85910E-03
  138.50      4.93980E-03
  139.50      4.83970E-03
  140.50      4.66700E-03
  141.50      5.04690E-03
  142.50      4.79070E-03
  143.50      4.96600E-03
  144.20      4.77000E-03
  144.70      4.79050E-03
  145.50      4.70820E-03
  146.50      4.71730E-03
  147.50      4.72170E-03
  148.50      4.78440E-03
  149.50      4.70190E-03
  150.50      4.68320E-03
  151.20      4.68830E-03
  151.70      4.59530E-03
  152.50      4.63090E-03
  153.50      4.39040E-03
  154.50      3.85680E-03
  155.50      3.94370E-03
  156.50      4.25670E-03
  157.50      4.34130E-03
  158.50      4.28070E-03
  159.50      4.32030E-03
  160.50      4.18590E-03
  161.50      4.11670E-03
  162.50      4.15700E-03
  163.50      4.14270E-03
  164.50      3.98990E-03
  165.50      4.17100E-03
  166.50      4.14900E-03
  167.20      3.99730E-03
  167.70      4.21850E-03
  168.50      4.18740E-03
  169.50      4.17880E-03
  170.50      4.09320E-03
  171.50      3.96120E-03
  172.50      3.95270E-03
  173.50      4.06010E-03
  174.50      4.03160E-03
  175.50      3.98630E-03
  176.50      3.95740E-03
  177.50      3.91580E-03
  178.50      3.93320E-03
  179.50      3.86520E-03
  180.50      3.84120E-03
  181.50      3.80450E-03
  182.50      3.77770E-03
  183.50      3.76560E-03
  184.50      3.75390E-03
  185.50      3.72860E-03
  186.50      3.71560E-03
  187.50      3.66530E-03
  188.50      3.63240E-03
  189.50      3.65910E-03
  190.50      3.63400E-03
  191.50      3.60840E-03
  192.50      3.49640E-03
  193.50      3.56740E-03
  194.50      3.54860E-03
  195.50      3.48520E-03
  196.70      3.48450E-03
  197.60      3.45250E-03
  198.40      3.45540E-03
  199.50      3.42230E-03
  200.50      3.41010E-03
  201.50      3.38550E-03
  202.50      3.36420E-03
  203.50      3.32930E-03
  204.50      3.29040E-03
  205.50      2.47920E-03
  206.50      2.38780E-03
  207.40      2.43730E-03
  207.80      2.49220E-03
  208.50      2.64400E-03
  209.50      2.95070E-03
  210.50      3.12190E-03
  211.50      3.15610E-03
  212.50      3.12020E-03
  213.50      3.11340E-03
  214.50      3.09080E-03
  215.50      3.11060E-03
  216.50      2.95900E-03
  217.50      3.09650E-03
  218.50      2.96220E-03
  219.50      3.06660E-03
  220.50      3.04800E-03
  221.50      2.89570E-03
  222.50      3.01000E-03
  223.50      2.99510E-03
  224.50      2.96750E-03
  225.50      2.83310E-03
  226.50      2.93060E-03
  227.50      2.92460E-03
  228.50      2.88320E-03
  229.50      2.83320E-03
  230.50      2.74230E-03
  231.50      2.81540E-03
  232.50      2.82250E-03
  233.50      2.80580E-03
  234.50      2.77600E-03
  235.50      2.74870E-03
  236.50      2.72800E-03
  237.50      2.69740E-03
  238.50      2.56150E-03
  239.50      2.64790E-03
  240.50      2.63130E-03
  241.50      2.62430E-03
  242.50      2.63380E-03
  243.50      2.60860E-03
  244.50      2.59540E-03
  245.50      2.56270E-03
  246.50      2.55980E-03
  247.50      2.55770E-03
  248.50      2.52600E-03
  249.50      2.37060E-03
  250.50      2.48630E-03
  251.30      2.29760E-03
  251.80      2.43190E-03
  252.50      2.44260E-03
  253.50      2.45800E-03
  254.50      2.44860E-03
  255.50      2.43090E-03
  256.50      2.41920E-03
  257.50      2.40090E-03
  258.50      2.38710E-03
  259.50      2.33680E-03
  260.50      2.36080E-03
  261.50      2.32570E-03
  262.50      2.33400E-03
  263.50      2.32170E-03
  264.50      2.29990E-03
  265.50      2.29290E-03
  266.50      2.27750E-03
  267.50      2.24330E-03
  268.50      2.24580E-03
  269.50      2.22690E-03
  270.50      2.22940E-03
  271.50      2.21250E-03
  272.50      2.19770E-03
  273.50      2.10880E-03
  274.50      2.17690E-03
  275.50      2.16090E-03
  276.50      2.14980E-03
  277.50      2.13530E-03
  278.50      2.11300E-03
  279.50      2.09800E-03
  280.50      2.09630E-03
  281.50      2.08540E-03
  282.50      2.06830E-03
  283.50      2.06370E-03
  284.50      2.05450E-03
  285.50      2.04190E-03
  286.50      2.02070E-03
  287.50      2.00860E-03
  288.50      2.00520E-03
  289.50      1.99160E-03
  291.00      1.97670E-03
  293.00      1.95850E-03
  295.00      1.93620E-03
  297.00      1.91090E-03
  299.00      1.88350E-03
  301.00      1.86480E-03
  303.00      1.83570E-03
  305.00      1.82290E-03
  307.00      1.79760E-03
  309.00      1.78920E-03
  311.00      1.77100E-03
  313.00      1.75100E-03
  315.00      1.73760E-03
  317.00      1.71740E-03
  319.00      1.70200E-03
  321.00      1.65060E-03
  323.00      1.66920E-03
  325.00      1.65290E-03
  327.00      1.62250E-03
  329.00      1.61620E-03
  331.00      1.59890E-03
  333.00      1.58260E-03
  335.00      1.55840E-03
  337.00      1.54990E-03
  339.00      1.53320E-03
  341.00      1.51680E-03
  343.00      1.50870E-03
  345.00      1.48630E-03
  347.00      1.47810E-03
  349.00      1.46470E-03
  351.00      1.45360E-03
  353.00      1.43690E-03
  355.00      1.42380E-03
  357.00      1.41080E-03
  359.00      1.39780E-03
  361.00      1.38330E-03
  363.00      1.36940E-03
  364.00      1.33540E-03
  365.00      1.20450E-03
  367.00      1.19510E-03
  369.00      1.18710E-03
  371.00      1.18280E-03
  373.00      1.19380E-03
  375.00      1.20850E-03
  377.00      1.22340E-03
  379.00      1.24930E-03
  381.00      1.27190E-03
  383.00      1.21800E-03
  385.00      1.26960E-03
  387.00      1.27260E-03
  389.00      1.16890E-03
  391.00      1.25920E-03
  393.00      1.24150E-03
  395.00      1.23590E-03
  397.00      1.12160E-03
  399.00      1.21650E-03
  401.00      1.21130E-03
  403.00      1.17970E-03
  405.00      1.19420E-03
  407.00      1.18140E-03
  409.00      1.13610E-03
  411.00      1.07470E-03
  413.00      1.14970E-03
  415.00      1.14370E-03
  417.00      1.13600E-03
  419.00      1.11940E-03
  421.00      1.09650E-03
  423.00      1.10930E-03
  425.00      1.09970E-03
  427.00      1.09070E-03
  429.00      1.08180E-03
  431.00      1.06930E-03
  433.00      1.02300E-03
  435.00      9.83640E-04
  437.00      1.04140E-03
  439.00      1.03180E-03
  441.00      1.02460E-03
  443.00      1.01990E-03
  445.00      1.01010E-03
  447.00      9.98290E-04
  449.00      9.95950E-04
  451.00      9.85160E-04
  453.00      9.75600E-04
  455.00      9.49140E-04
  457.00      9.63920E-04
  459.00      9.56430E-04
  461.00      9.50200E-04
  463.00      9.38400E-04
  465.00      9.19300E-04
  467.00      9.25600E-04
  469.00      8.86730E-04
  471.00      9.14340E-04
  473.00      9.09420E-04
  475.00      9.02670E-04
  477.00      8.95670E-04
  479.00      8.88030E-04
  481.00      8.82060E-04
  483.00      8.73710E-04
  485.00      8.45240E-04
  487.00      7.99320E-04
  489.00      8.52950E-04
  491.00      8.49370E-04
  493.00      8.41720E-04
  495.00      8.37740E-04
  497.00      8.31720E-04
  499.00      8.25980E-04
  501.00      8.17990E-04
  503.00      8.13550E-04
  505.00      8.07590E-04
  507.00      8.02300E-04
  509.00      7.96840E-04
  511.00      7.91160E-04
  513.00      7.85380E-04
  515.00      7.79930E-04
  517.00      7.74710E-04
  519.00      7.69260E-04
  521.00      7.63700E-04
  523.00      7.58690E-04
  525.00      7.52670E-04
  527.00      7.47230E-04
  529.00      7.43140E-04
  531.00      7.38050E-04
  533.00      7.32910E-04
  535.00      7.28090E-04
  537.00      7.23090E-04
  539.00      7.18180E-04
  541.00      6.96210E-04
  543.00      7.08210E-04
  545.00      7.03950E-04
  547.00      6.99080E-04
  549.00      6.94590E-04
  551.00      6.89440E-04
  553.00      6.85460E-04
  555.00      6.80990E-04
  557.00      6.76080E-04
  559.00      6.70270E-04
  561.00      6.67740E-04
  563.00      6.63400E-04
  565.00      6.59090E-04
  567.00      6.54840E-04
  569.00      6.40430E-04
  571.00      5.98420E-04
  573.00      5.94890E-04
  575.00      5.91320E-04
  577.00      5.88060E-04
  579.00      5.84880E-04
  581.00      5.78830E-04
  583.00      5.79760E-04
  585.00      5.78530E-04
  587.00      5.74610E-04
  589.00      5.76980E-04
  591.00      5.76960E-04
  593.00      5.77310E-04
  595.00      5.78250E-04
  597.00      5.79420E-04
  599.00      5.81290E-04
  601.00      5.81130E-04
  603.00      5.81170E-04
  605.00      5.80410E-04
  607.00      5.77000E-04
  609.00      5.74230E-04
  611.00      5.70860E-04
  613.00      5.67740E-04
  615.00      5.65170E-04
  617.00      5.60090E-04
  619.00      5.58520E-04
  621.00      5.55590E-04
  623.00      5.49830E-04
  625.00      5.48240E-04
  627.00      5.45850E-04
  629.00      5.42510E-04
  631.00      5.36050E-04
  633.00      5.35840E-04
  635.00      5.33180E-04
  637.00      5.30150E-04
  639.00      5.26400E-04
  641.00      5.19580E-04
  643.00      5.20850E-04
  645.00      5.17850E-04
  647.00      5.14840E-04
  649.00      5.12110E-04
  651.00      5.08230E-04
  653.00      4.99850E-04
  655.00      4.94860E-04
  657.00      4.62930E-04
  659.00      4.95990E-04
  661.00      4.95050E-04
  663.00      4.92290E-04
  665.00      4.89540E-04
  667.00      4.84210E-04
  669.00      4.76320E-04
  671.00      4.80830E-04
  673.00      4.78580E-04
  675.00      4.75890E-04
  677.00      4.73460E-04
  679.00      4.70960E-04
  681.00      4.68380E-04
  683.00      4.65830E-04
  685.00      4.63270E-04
  687.00      4.60590E-04
  689.00      4.50360E-04
  691.00      4.55170E-04
  693.00      4.53390E-04
  695.00      4.50960E-04
  697.00      4.48560E-04
  699.00      4.46140E-04
  701.00      4.43630E-04
  703.00      4.40980E-04
  705.00      4.38840E-04
  707.00      4.35470E-04
  709.00      4.34490E-04
  711.00      4.32050E-04
  713.00      4.29760E-04
  715.00      4.27710E-04
  717.00      4.20000E-04
  719.00      4.19720E-04
  721.00      4.21080E-04
  723.00      4.18910E-04
  725.00      4.16750E-04
  727.00      4.14610E-04
  729.00      4.12170E-04
  731.00      4.10150E-04
  733.00      4.08290E-04
  735.00      4.06210E-04
  737.00      4.04040E-04
  739.00      4.01950E-04
  741.00      3.99950E-04
  743.00      3.98070E-04
  745.00      3.95750E-04
  747.00      3.94070E-04
  749.00      3.91600E-04
  751.00      3.90030E-04
  753.00      3.88210E-04
  755.00      3.86260E-04
  757.00      3.84220E-04
  759.00      3.74390E-04
  761.00      3.79640E-04
  763.00      3.78650E-04
  765.00      3.76820E-04
  767.00      3.74960E-04
  769.00      3.72770E-04
  771.00      3.71130E-04
  773.00      3.69050E-04
  775.00      3.67720E-04
  777.00      3.66020E-04
  779.00      3.64250E-04
  781.00      3.62500E-04
  783.00      3.60730E-04
  785.00      3.58590E-04
  787.00      3.57170E-04
  789.00      3.55550E-04
  791.00      3.53940E-04
  793.00      3.52270E-04
  795.00      3.50580E-04
  797.00      3.48700E-04
  799.00      3.47310E-04
  801.00      3.45670E-04
  803.00      3.43910E-04
  805.00      3.42450E-04
  807.00      3.40860E-04
  809.00      3.39270E-04
  811.00      3.37690E-04
  813.00      3.36130E-04
  815.00      3.34580E-04
  817.00      3.32780E-04
  819.00      3.29810E-04
  821.00      3.14110E-04
  823.00      3.10310E-04
  825.00      3.10760E-04
  827.00      3.10020E-04
  829.00      3.08740E-04
  831.00      3.07440E-04
  833.00      3.05850E-04
  835.00      3.04680E-04
  837.00      3.03520E-04
  839.00      3.02310E-04
  841.00      3.01170E-04
  843.00      3.00030E-04
  845.00      2.98870E-04
  847.00      2.97900E-04
  849.00      2.97020E-04
  851.00      2.95910E-04
  853.00      2.95270E-04
  855.00      2.94220E-04
  857.00      2.93640E-04
  859.00      2.92560E-04
  861.00      2.91860E-04
  863.00      2.91740E-04
  865.00      2.90670E-04
  867.00      2.88660E-04
  869.00      2.89810E-04
  871.00      2.89600E-04
  873.00      2.88460E-04
  875.00      2.84550E-04
  877.00      2.86660E-04
  879.00      2.87640E-04
  881.00      2.87430E-04
  883.00      2.86640E-04
  885.00      2.82330E-04
  887.00      2.77190E-04
  889.00      2.82810E-04
  891.00      2.83410E-04
  893.00      2.82690E-04
  895.00      2.81850E-04
  897.00      2.80490E-04
  899.00      2.77520E-04
  901.00      2.67520E-04
  903.00      2.70370E-04
  905.00      2.74960E-04
  907.00      2.74770E-04
  909.00      2.74020E-04
  911.00      2.72670E-04
  913.00      2.72110E-04
  915.00      2.71210E-04
  917.00      2.69570E-04
  919.00      2.67710E-04
  921.00      2.63360E-04
  923.00      2.50730E-04
  925.00      2.60360E-04
  927.00      2.63170E-04
  929.00      2.62960E-04
  931.00      2.62220E-04
  933.00      2.60580E-04
  935.00      2.52870E-04
  937.00      2.57750E-04
  939.00      2.57840E-04
  941.00      2.56930E-04
  943.00      2.55990E-04
  945.00      2.54980E-04
  947.00      2.53880E-04
  949.00      2.52580E-04
  951.00      2.50430E-04
  953.00      2.45340E-04
  955.00      2.32600E-04
  957.00      2.44800E-04
  959.00      2.46880E-04
  961.00      2.46700E-04
  963.00      2.45850E-04
  965.00      2.45020E-04
  967.00      2.44060E-04
  969.00      2.43100E-04
  971.00      2.41170E-04
  973.00      2.41030E-04
  975.00      2.39700E-04
  977.00      2.37640E-04
  979.00      2.38330E-04
  981.00      2.37440E-04
  983.00      2.36440E-04
  985.00      2.35600E-04
  987.00      2.34690E-04
  989.00      2.33780E-04
  991.00      2.32850E-04
  993.00      2.31980E-04
  995.00      2.31090E-04
  997.00      2.30200E-04
  999.00      2.29120E-04
  1002.5      2.23040E-04
  1007.5      2.18870E-04
  1012.5      2.18980E-04
  1017.5      2.21400E-04
  1022.5      2.19320E-04
  1027.5      2.17210E-04
  1032.5      2.15100E-04
  1037.5      2.13270E-04
  1042.5      2.09950E-04
  1047.5      2.09400E-04
  1052.5      2.07490E-04
  1057.5      2.05610E-04
  1062.5      2.03760E-04
  1067.5      2.01920E-04
  1072.5      2.00120E-04
  1077.5      1.98340E-04
  1082.5      1.96140E-04
  1087.5      1.94560E-04
  1092.5      1.84940E-04
  1097.5      1.89170E-04
  1102.5      1.89690E-04
  1107.5      1.88130E-04
  1112.5      1.86500E-04
  1117.5      1.85030E-04
  1122.5      1.83430E-04
  1127.5      1.81850E-04
  1132.5      1.80300E-04
  1137.5      1.78800E-04
  1142.5      1.77300E-04
  1147.5      1.75810E-04
  1152.5      1.74340E-04
  1157.5      1.72860E-04
  1162.5      1.69030E-04
  1167.5      1.68260E-04
  1172.5      1.68630E-04
  1177.5      1.67260E-04
  1182.5      1.65880E-04
  1187.5      1.64540E-04
  1192.5      1.63220E-04
  1197.5      1.61680E-04
  1202.5      1.60600E-04
  1207.5      1.59310E-04
  1212.5      1.58020E-04
  1217.5      1.56800E-04
  1222.5      1.55560E-04
  1227.5      1.54330E-04
  1232.5      1.53120E-04
  1237.5      1.51930E-04
  1242.5      1.50740E-04
  1247.5      1.49580E-04
  1252.5      1.48400E-04
  1257.5      1.47270E-04
  1262.5      1.46150E-04
  1267.5      1.45030E-04
  1272.5      1.43930E-04
  1277.5      1.41890E-04
  1282.5      1.34950E-04
  1287.5      1.40230E-04
  1292.5      1.39640E-04
  1297.5      1.38560E-04
  1302.5      1.37570E-04
  1307.5      1.36550E-04
  1312.5      1.35540E-04
  1317.5      1.34540E-04
  1322.5      1.33550E-04
  1327.5      1.32580E-04
  1332.5      1.31610E-04
  1337.5      1.30660E-04
  1342.5      1.29710E-04
  1347.5      1.28780E-04
  1352.5      1.27850E-04
  1357.5      1.26940E-04
  1362.5      1.26040E-04
  1367.5      1.25140E-04
  1372.5      1.24250E-04
  1377.5      1.23380E-04
  1382.5      1.22510E-04
  1387.5      1.21650E-04
  1392.5      1.20800E-04
  1397.5      1.19960E-04
