 Castelli and Kurucz 2004-2012 Atmosphere
 T     42000.     G    4.50000 [0.0] VTURB=2  L/H=1.25 NOVER NEW ODF           
 Wavelength  Eddington Hnu
   (nm)    (ergs/s/cm2/Hz/sr)
  9.0900      1.42760E-23
  9.3500      4.87090E-23
  9.6100      1.53780E-22
  9.7700      3.08600E-22
  9.9600      6.76760E-22
  10.200      1.75260E-21
  10.380      3.48280E-21
  10.560      6.76700E-21
  10.770      1.42970E-20
  11.040      3.59400E-20
  11.400      1.15180E-19
  11.780      3.66650E-19
  12.130      1.00600E-18
  12.480      2.61550E-18
  12.710      4.77570E-18
  12.840      6.65230E-18
  13.050      1.12050E-17
  13.240      1.77420E-17
  13.390      2.53480E-17
  13.660      4.70260E-17
  13.980      9.62860E-17
  14.330      2.02100E-16
  14.720      4.37130E-16
  15.100      9.34860E-16
  15.520      2.03330E-15
  15.880      3.84780E-15
  16.200      6.69870E-15
  16.600      1.30190E-14
  17.030      2.53660E-14
  17.340      4.03720E-14
  17.680      6.69750E-14
  18.020      1.08290E-13
  18.170      1.31260E-13
  18.610      2.40380E-13
  19.100      4.50210E-13
  19.390      6.47970E-13
  19.840      1.10640E-12
  20.180      1.62090E-12
  20.500      2.33360E-12
  21.050      4.20890E-12
  21.620      7.47460E-12
  21.980      1.07150E-11
  22.300      1.44510E-11
  22.680      2.05040E-11
  23.000      1.01080E-08
  23.400      3.73580E-08
  24.000      5.54860E-08
  24.650      9.25200E-08
  25.240      1.93750E-07
  25.680      3.25160E-07
  26.000      4.67920E-07
  26.400      4.16480E-06
  26.850      5.45510E-06
  27.350      7.16470E-06
  27.850      4.30320E-06
  28.400      1.13830E-05
  29.000      1.94040E-05
  29.600      1.39600E-05
  30.100      1.26560E-05
  30.800      3.99580E-05
  31.800      1.53260E-05
  32.800      2.65940E-05
  33.800      2.14750E-05
  34.800      2.52220E-05
  35.700      7.29250E-05
  36.600      1.62040E-04
  37.500      2.22280E-04
  38.500      2.06340E-04
  39.500      3.64860E-04
  40.500      5.83950E-04
  41.400      5.77240E-04
  42.200      5.62970E-04
  43.000      5.39040E-04
  44.100      6.82870E-04
  45.100      7.34600E-04
  46.000      6.30580E-04
  47.000      7.10300E-04
  48.000      8.46770E-04
  49.000      6.48250E-04
  50.000      9.65930E-04
  50.600      7.45960E-04
  51.200      1.19240E-03
  52.000      1.12920E-03
  53.000      1.05740E-03
  54.000      9.25250E-04
  55.000      8.26850E-04
  56.000      1.15430E-03
  57.000      1.37180E-03
  58.000      1.36590E-03
  59.000      1.41420E-03
  60.000      1.19130E-03
  61.000      1.13650E-03
  62.000      1.51140E-03
  63.000      1.42610E-03
  64.000      1.63190E-03
  65.000      1.55910E-03
  65.800      1.38730E-03
  66.500      1.65190E-03
  67.500      1.76400E-03
  68.500      1.55590E-03
  69.500      1.78630E-03
  70.500      1.54120E-03
  71.600      1.87020E-03
  72.600      1.92200E-03
  73.500      1.95050E-03
  74.500      1.87590E-03
  75.500      1.87810E-03
  76.500      1.73350E-03
  77.500      1.91150E-03
  78.500      1.73770E-03
  79.500      1.93580E-03
  80.500      1.97630E-03
  81.500      2.00270E-03
  82.500      2.04050E-03
  83.500      1.80860E-03
  84.500      2.03370E-03
  85.500      1.97780E-03
  86.500      2.08620E-03
  87.500      2.11000E-03
  88.500      2.09730E-03
  89.500      2.10700E-03
  90.500      2.07590E-03
  91.500      1.63500E-03
  92.500      2.73450E-03
  93.500      3.67690E-03
  94.500      4.19110E-03
  95.500      4.71200E-03
  96.500      5.09670E-03
  97.500      3.90730E-03
  98.500      4.71110E-03
  99.500      4.28540E-03
  100.50      4.37530E-03
  101.50      4.57280E-03
  102.50      4.19120E-03
  103.50      4.82430E-03
  104.50      5.02620E-03
  105.50      4.97360E-03
  106.50      4.77560E-03
  107.50      4.87920E-03
  108.50      4.61000E-03
  109.50      4.81610E-03
  110.50      4.75280E-03
  111.50      4.73620E-03
  112.50      4.57660E-03
  113.50      4.75670E-03
  114.50      4.78700E-03
  115.50      4.57590E-03
  116.50      4.41800E-03
  117.50      3.91460E-03
  118.50      4.32020E-03
  119.50      4.18700E-03
  120.50      4.17850E-03
  121.50      3.61040E-03
  122.50      4.06660E-03
  123.50      4.08640E-03
  124.50      4.03190E-03
  125.50      4.12270E-03
  126.50      4.18870E-03
  127.50      4.24740E-03
  128.50      4.24660E-03
  129.50      4.25150E-03
  130.50      4.15440E-03
  131.50      4.19120E-03
  132.50      4.16030E-03
  133.50      4.13590E-03
  134.50      4.13140E-03
  135.50      4.00960E-03
  136.50      3.90900E-03
  137.50      3.80940E-03
  138.50      3.84910E-03
  139.50      3.73890E-03
  140.50      3.60560E-03
  141.50      3.91770E-03
  142.50      3.67030E-03
  143.50      3.83900E-03
  144.20      3.71300E-03
  144.70      3.73220E-03
  145.50      3.65090E-03
  146.50      3.67430E-03
  147.50      3.67820E-03
  148.50      3.73280E-03
  149.50      3.66790E-03
  150.50      3.68240E-03
  151.20      3.68840E-03
  151.70      3.62910E-03
  152.50      3.63240E-03
  153.50      3.40380E-03
  154.50      2.91130E-03
  155.50      3.00320E-03
  156.50      3.29240E-03
  157.50      3.39620E-03
  158.50      3.36930E-03
  159.50      3.39730E-03
  160.50      3.26600E-03
  161.50      3.20590E-03
  162.50      3.25140E-03
  163.50      3.25940E-03
  164.50      3.16570E-03
  165.50      3.29820E-03
  166.50      3.27250E-03
  167.20      3.12600E-03
  167.70      3.37570E-03
  168.50      3.33370E-03
  169.50      3.32090E-03
  170.50      3.26180E-03
  171.50      3.15390E-03
  172.50      3.14730E-03
  173.50      3.24680E-03
  174.50      3.23130E-03
  175.50      3.18990E-03
  176.50      3.17580E-03
  177.50      3.14120E-03
  178.50      3.16530E-03
  179.50      3.10640E-03
  180.50      3.09610E-03
  181.50      3.07080E-03
  182.50      3.04390E-03
  183.50      3.04830E-03
  184.50      3.04110E-03
  185.50      3.02740E-03
  186.50      3.01780E-03
  187.50      2.97190E-03
  188.50      2.94860E-03
  189.50      2.98180E-03
  190.50      2.96850E-03
  191.50      2.94930E-03
  192.50      2.85100E-03
  193.50      2.92290E-03
  194.50      2.90990E-03
  195.50      2.83980E-03
  196.70      2.85830E-03
  197.60      2.83970E-03
  198.40      2.84180E-03
  199.50      2.81560E-03
  200.50      2.81230E-03
  201.50      2.79300E-03
  202.50      2.77590E-03
  203.50      2.74910E-03
  204.50      2.71810E-03
  205.50      2.04810E-03
  206.50      1.98380E-03
  207.40      2.05280E-03
  207.80      2.11350E-03
  208.50      2.29740E-03
  209.50      2.55940E-03
  210.50      2.60600E-03
  211.50      2.62350E-03
  212.50      2.59220E-03
  213.50      2.59150E-03
  214.50      2.57500E-03
  215.50      2.59660E-03
  216.50      2.47450E-03
  217.50      2.58110E-03
  218.50      2.48500E-03
  219.50      2.56080E-03
  220.50      2.54410E-03
  221.50      2.43850E-03
  222.50      2.51150E-03
  223.50      2.49910E-03
  224.50      2.47780E-03
  225.50      2.39020E-03
  226.50      2.44930E-03
  227.50      2.44400E-03
  228.50      2.40970E-03
  229.50      2.35350E-03
  230.50      2.31650E-03
  231.50      2.35730E-03
  232.50      2.36250E-03
  233.50      2.34950E-03
  234.50      2.32430E-03
  235.50      2.30220E-03
  236.50      2.28510E-03
  237.50      2.25920E-03
  238.50      2.16210E-03
  239.50      2.21860E-03
  240.50      2.21190E-03
  241.50      2.20500E-03
  242.50      2.21150E-03
  243.50      2.19160E-03
  244.50      2.18130E-03
  245.50      2.15770E-03
  246.50      2.15290E-03
  247.50      2.15160E-03
  248.50      2.12240E-03
  249.50      1.91760E-03
  250.50      2.09350E-03
  251.30      1.96220E-03
  251.80      2.04830E-03
  252.50      2.06360E-03
  253.50      2.07220E-03
  254.50      2.06480E-03
  255.50      2.04980E-03
  256.50      2.04000E-03
  257.50      2.02550E-03
  258.50      2.01540E-03
  259.50      1.97570E-03
  260.50      1.99370E-03
  261.50      1.96650E-03
  262.50      1.97230E-03
  263.50      1.96370E-03
  264.50      1.94510E-03
  265.50      1.94010E-03
  266.50      1.92670E-03
  267.50      1.89670E-03
  268.50      1.90140E-03
  269.50      1.88740E-03
  270.50      1.88930E-03
  271.50      1.87410E-03
  272.50      1.86420E-03
  273.50      1.80150E-03
  274.50      1.84770E-03
  275.50      1.83390E-03
  276.50      1.82440E-03
  277.50      1.81360E-03
  278.50      1.79500E-03
  279.50      1.77940E-03
  280.50      1.78110E-03
  281.50      1.77290E-03
  282.50      1.75970E-03
  283.50      1.75460E-03
  284.50      1.74810E-03
  285.50      1.73780E-03
  286.50      1.72130E-03
  287.50      1.71220E-03
  288.50      1.70780E-03
  289.50      1.69810E-03
  291.00      1.68390E-03
  293.00      1.66970E-03
  295.00      1.65120E-03
  297.00      1.63010E-03
  299.00      1.60610E-03
  301.00      1.59100E-03
  303.00      1.56580E-03
  305.00      1.55670E-03
  307.00      1.53810E-03
  309.00      1.53000E-03
  311.00      1.51550E-03
  313.00      1.49910E-03
  315.00      1.48870E-03
  317.00      1.47170E-03
  319.00      1.45930E-03
  321.00      1.41980E-03
  323.00      1.43150E-03
  325.00      1.41870E-03
  327.00      1.39220E-03
  329.00      1.38760E-03
  331.00      1.37290E-03
  333.00      1.35960E-03
  335.00      1.33890E-03
  337.00      1.33220E-03
  339.00      1.32030E-03
  341.00      1.30660E-03
  343.00      1.29900E-03
  345.00      1.27990E-03
  347.00      1.27410E-03
  349.00      1.26290E-03
  351.00      1.25310E-03
  353.00      1.23900E-03
  355.00      1.22800E-03
  357.00      1.21780E-03
  359.00      1.20640E-03
  361.00      1.19360E-03
  363.00      1.18230E-03
  364.00      1.15480E-03
  365.00      1.04530E-03
  367.00      1.03750E-03
  369.00      1.03220E-03
  371.00      1.03090E-03
  373.00      1.04360E-03
  375.00      1.06140E-03
  377.00      1.07400E-03
  379.00      1.09580E-03
  381.00      1.11220E-03
  383.00      1.06320E-03
  385.00      1.11130E-03
  387.00      1.10920E-03
  389.00      1.02730E-03
  391.00      1.10040E-03
  393.00      1.08040E-03
  395.00      1.07790E-03
  397.00      9.87160E-04
  399.00      1.06360E-03
  401.00      1.05620E-03
  403.00      1.02930E-03
  405.00      1.04120E-03
  407.00      1.02940E-03
  409.00      9.96360E-04
  411.00      9.44810E-04
  413.00      1.00300E-03
  415.00      9.96600E-04
  417.00      9.90860E-04
  419.00      9.79090E-04
  421.00      9.59920E-04
  423.00      9.68380E-04
  425.00      9.59890E-04
  427.00      9.52280E-04
  429.00      9.44720E-04
  431.00      9.34580E-04
  433.00      9.00900E-04
  435.00      8.66270E-04
  437.00      9.11550E-04
  439.00      9.01050E-04
  441.00      8.94990E-04
  443.00      8.91650E-04
  445.00      8.83940E-04
  447.00      8.72200E-04
  449.00      8.71450E-04
  451.00      8.61020E-04
  453.00      8.54490E-04
  455.00      8.34380E-04
  457.00      8.44090E-04
  459.00      8.37240E-04
  461.00      8.32120E-04
  463.00      8.21820E-04
  465.00      8.02700E-04
  467.00      8.11280E-04
  469.00      7.80090E-04
  471.00      8.01080E-04
  473.00      7.97980E-04
  475.00      7.92150E-04
  477.00      7.86170E-04
  479.00      7.79990E-04
  481.00      7.74610E-04
  483.00      7.68170E-04
  485.00      7.47890E-04
  487.00      7.06910E-04
  489.00      7.50680E-04
  491.00      7.46360E-04
  493.00      7.38670E-04
  495.00      7.36190E-04
  497.00      7.31210E-04
  499.00      7.26300E-04
  501.00      7.18630E-04
  503.00      7.15350E-04
  505.00      7.10120E-04
  507.00      7.05860E-04
  509.00      7.01150E-04
  511.00      6.96320E-04
  513.00      6.91260E-04
  515.00      6.86530E-04
  517.00      6.81990E-04
  519.00      6.77290E-04
  521.00      6.72600E-04
  523.00      6.68240E-04
  525.00      6.62790E-04
  527.00      6.58070E-04
  529.00      6.54780E-04
  531.00      6.50380E-04
  533.00      6.45910E-04
  535.00      6.41760E-04
  537.00      6.37450E-04
  539.00      6.33180E-04
  541.00      6.16870E-04
  543.00      6.24870E-04
  545.00      6.20870E-04
  547.00      6.16620E-04
  549.00      6.12760E-04
  551.00      6.08170E-04
  553.00      6.04840E-04
  555.00      6.00970E-04
  557.00      5.96640E-04
  559.00      5.91390E-04
  561.00      5.89480E-04
  563.00      5.85700E-04
  565.00      5.81960E-04
  567.00      5.78260E-04
  569.00      5.65510E-04
  571.00      5.30300E-04
  573.00      5.27230E-04
  575.00      5.24110E-04
  577.00      5.21350E-04
  579.00      5.18780E-04
  581.00      5.14170E-04
  583.00      5.15160E-04
  585.00      5.14910E-04
  587.00      5.10770E-04
  589.00      5.14500E-04
  591.00      5.14880E-04
  593.00      5.15690E-04
  595.00      5.17100E-04
  597.00      5.18380E-04
  599.00      5.19900E-04
  601.00      5.18610E-04
  603.00      5.16470E-04
  605.00      5.14700E-04
  607.00      5.11220E-04
  609.00      5.09080E-04
  611.00      5.05360E-04
  613.00      5.02470E-04
  615.00      5.00350E-04
  617.00      4.95480E-04
  619.00      4.94580E-04
  621.00      4.91980E-04
  623.00      4.86630E-04
  625.00      4.85720E-04
  627.00      4.83400E-04
  629.00      4.80650E-04
  631.00      4.74480E-04
  633.00      4.74840E-04
  635.00      4.72330E-04
  637.00      4.69690E-04
  639.00      4.66670E-04
  641.00      4.60210E-04
  643.00      4.61740E-04
  645.00      4.58900E-04
  647.00      4.56250E-04
  649.00      4.53880E-04
  651.00      4.50880E-04
  653.00      4.43450E-04
  655.00      4.40760E-04
  657.00      4.12360E-04
  659.00      4.40570E-04
  661.00      4.39020E-04
  663.00      4.36600E-04
  665.00      4.34190E-04
  667.00      4.29510E-04
  669.00      4.22550E-04
  671.00      4.26500E-04
  673.00      4.24480E-04
  675.00      4.22120E-04
  677.00      4.20100E-04
  679.00      4.17930E-04
  681.00      4.15680E-04
  683.00      4.13450E-04
  685.00      4.11200E-04
  687.00      4.08920E-04
  689.00      4.00670E-04
  691.00      4.04390E-04
  693.00      4.02550E-04
  695.00      4.00410E-04
  697.00      3.98310E-04
  699.00      3.96200E-04
  701.00      3.93950E-04
  703.00      3.91540E-04
  705.00      3.89750E-04
  707.00      3.86100E-04
  709.00      3.85970E-04
  711.00      3.83870E-04
  713.00      3.81870E-04
  715.00      3.80020E-04
  717.00      3.74030E-04
  719.00      3.73860E-04
  721.00      3.74200E-04
  723.00      3.72270E-04
  725.00      3.70400E-04
  727.00      3.68520E-04
  729.00      3.66090E-04
  731.00      3.64570E-04
  733.00      3.62960E-04
  735.00      3.61140E-04
  737.00      3.59220E-04
  739.00      3.57450E-04
  741.00      3.55620E-04
  743.00      3.53980E-04
  745.00      3.51910E-04
  747.00      3.50420E-04
  749.00      3.48150E-04
  751.00      3.46880E-04
  753.00      3.45300E-04
  755.00      3.43570E-04
  757.00      3.41860E-04
  759.00      3.34450E-04
  761.00      3.38080E-04
  763.00      3.36890E-04
  765.00      3.35280E-04
  767.00      3.33700E-04
  769.00      3.31660E-04
  771.00      3.30280E-04
  773.00      3.28400E-04
  775.00      3.27210E-04
  777.00      3.25790E-04
  779.00      3.24220E-04
  781.00      3.22680E-04
  783.00      3.21120E-04
  785.00      3.19150E-04
  787.00      3.17940E-04
  789.00      3.16560E-04
  791.00      3.15160E-04
  793.00      3.13700E-04
  795.00      3.12230E-04
  797.00      3.10520E-04
  799.00      3.09330E-04
  801.00      3.07890E-04
  803.00      3.06300E-04
  805.00      3.05050E-04
  807.00      3.03640E-04
  809.00      3.02250E-04
  811.00      3.00850E-04
  813.00      2.99480E-04
  815.00      2.98110E-04
  817.00      2.96510E-04
  819.00      2.93960E-04
  821.00      2.80750E-04
  823.00      2.77620E-04
  825.00      2.77980E-04
  827.00      2.77100E-04
  829.00      2.76000E-04
  831.00      2.74870E-04
  833.00      2.73380E-04
  835.00      2.72320E-04
  837.00      2.71410E-04
  839.00      2.70420E-04
  841.00      2.69480E-04
  843.00      2.68560E-04
  845.00      2.67560E-04
  847.00      2.66780E-04
  849.00      2.66080E-04
  851.00      2.64940E-04
  853.00      2.64680E-04
  855.00      2.63560E-04
  857.00      2.63480E-04
  859.00      2.62070E-04
  861.00      2.61510E-04
  863.00      2.62030E-04
  865.00      2.60830E-04
  867.00      2.57820E-04
  869.00      2.60450E-04
  871.00      2.60490E-04
  873.00      2.59230E-04
  875.00      2.53230E-04
  877.00      2.57300E-04
  879.00      2.58730E-04
  881.00      2.58390E-04
  883.00      2.57560E-04
  885.00      2.52660E-04
  887.00      2.45670E-04
  889.00      2.53670E-04
  891.00      2.53970E-04
  893.00      2.52860E-04
  895.00      2.52260E-04
  897.00      2.51050E-04
  899.00      2.48580E-04
  901.00      2.37410E-04
  903.00      2.41580E-04
  905.00      2.46320E-04
  907.00      2.45860E-04
  909.00      2.45220E-04
  911.00      2.43690E-04
  913.00      2.43360E-04
  915.00      2.42460E-04
  917.00      2.41280E-04
  919.00      2.39800E-04
  921.00      2.36050E-04
  923.00      2.22890E-04
  925.00      2.33600E-04
  927.00      2.35760E-04
  929.00      2.35490E-04
  931.00      2.34500E-04
  933.00      2.33380E-04
  935.00      2.27360E-04
  937.00      2.30440E-04
  939.00      2.30720E-04
  941.00      2.29760E-04
  943.00      2.28940E-04
  945.00      2.28070E-04
  947.00      2.27030E-04
  949.00      2.26190E-04
  951.00      2.24260E-04
  953.00      2.20250E-04
  955.00      2.07710E-04
  957.00      2.19920E-04
  959.00      2.21270E-04
  961.00      2.20860E-04
  963.00      2.19900E-04
  965.00      2.19220E-04
  967.00      2.18380E-04
  969.00      2.17520E-04
  971.00      2.15210E-04
  973.00      2.15620E-04
  975.00      2.14650E-04
  977.00      2.12530E-04
  979.00      2.13320E-04
  981.00      2.12510E-04
  983.00      2.11610E-04
  985.00      2.10870E-04
  987.00      2.10060E-04
  989.00      2.09250E-04
  991.00      2.08410E-04
  993.00      2.07660E-04
  995.00      2.06870E-04
  997.00      2.06080E-04
  999.00      2.05290E-04
  1002.5      2.00210E-04
  1007.5      1.96470E-04
  1012.5      1.96510E-04
  1017.5      1.98260E-04
  1022.5      1.96400E-04
  1027.5      1.94520E-04
  1032.5      1.92560E-04
  1037.5      1.91030E-04
  1042.5      1.88240E-04
  1047.5      1.87590E-04
  1052.5      1.85890E-04
  1057.5      1.84220E-04
  1062.5      1.82570E-04
  1067.5      1.80920E-04
  1072.5      1.79340E-04
  1077.5      1.77760E-04
  1082.5      1.75560E-04
  1087.5      1.74530E-04
  1092.5      1.66240E-04
  1097.5      1.70100E-04
  1102.5      1.70040E-04
  1107.5      1.68670E-04
  1112.5      1.67230E-04
  1117.5      1.65910E-04
  1122.5      1.64470E-04
  1127.5      1.63080E-04
  1132.5      1.61690E-04
  1137.5      1.60350E-04
  1142.5      1.59020E-04
  1147.5      1.57700E-04
  1152.5      1.56390E-04
  1157.5      1.55060E-04
  1162.5      1.52100E-04
  1167.5      1.51330E-04
  1172.5      1.51310E-04
  1177.5      1.50080E-04
  1182.5      1.48840E-04
  1187.5      1.47660E-04
  1192.5      1.46470E-04
  1197.5      1.44910E-04
  1202.5      1.44150E-04
  1207.5      1.42990E-04
  1212.5      1.41840E-04
  1217.5      1.40750E-04
  1222.5      1.39650E-04
  1227.5      1.38560E-04
  1232.5      1.37480E-04
  1237.5      1.36410E-04
  1242.5      1.35360E-04
  1247.5      1.34320E-04
  1252.5      1.33240E-04
  1257.5      1.32250E-04
  1262.5      1.31260E-04
  1267.5      1.30260E-04
  1272.5      1.29280E-04
  1277.5      1.27530E-04
  1282.5      1.21800E-04
  1287.5      1.26140E-04
  1292.5      1.25450E-04
  1297.5      1.24410E-04
  1302.5      1.23590E-04
  1307.5      1.22690E-04
  1312.5      1.21790E-04
  1317.5      1.20890E-04
  1322.5      1.20010E-04
  1327.5      1.19140E-04
  1332.5      1.18280E-04
  1337.5      1.17430E-04
  1342.5      1.16570E-04
  1347.5      1.15750E-04
  1352.5      1.14920E-04
  1357.5      1.14110E-04
  1362.5      1.13300E-04
  1367.5      1.12500E-04
  1372.5      1.11700E-04
  1377.5      1.10920E-04
  1382.5      1.10150E-04
  1387.5      1.09380E-04
  1392.5      1.08620E-04
  1397.5      1.07870E-04
