 Castelli and Kurucz 2004-2012 Atmosphere
 T     38000.     G    5.00000 [0.0] VTURB=2  L/H=1.25 NOVER NEW ODF           
 Wavelength  Eddington Hnu
   (nm)    (ergs/s/cm2/Hz/sr)
  9.0900      2.83750E-26
  9.3500      1.13930E-25
  9.6100      4.24500E-25
  9.7700      9.31520E-25
  9.9600      2.28430E-24
  10.200      6.78730E-24
  10.380      1.49170E-23
  10.560      3.19850E-23
  10.770      7.55980E-23
  11.040      2.18510E-22
  11.400      8.36970E-22
  11.780      3.18670E-21
  12.130      1.01980E-20
  12.480      3.06940E-20
  12.710      6.14010E-20
  12.840      8.99220E-20
  13.050      1.63960E-19
  13.240      2.78150E-19
  13.390      4.18180E-19
  13.660      8.51990E-19
  13.980      1.92210E-18
  14.330      4.48940E-18
  14.720      1.09610E-17
  15.100      2.55040E-17
  15.520      6.13610E-17
  15.880      1.25730E-16
  16.200      2.31310E-16
  16.600      4.84140E-16
  17.030      1.02590E-15
  17.340      1.73050E-15
  17.680      3.01660E-15
  18.020      5.13610E-15
  18.170      6.46930E-15
  18.610      1.24400E-14
  19.100      2.49070E-14
  19.390      3.70230E-14
  19.840      6.69990E-14
  20.180      1.02840E-13
  20.500      1.52310E-13
  21.050      2.91650E-13
  21.620      5.49860E-13
  21.980      8.15660E-13
  22.300      1.14010E-12
  22.680      1.67890E-12
  23.000      7.97580E-10
  23.400      2.37740E-09
  24.000      3.54310E-09
  24.650      5.32500E-09
  25.240      8.49340E-09
  25.680      1.13260E-08
  26.000      1.63440E-08
  26.400      3.26780E-08
  26.850      4.89930E-08
  27.350      6.14040E-08
  27.850      6.53830E-08
  28.400      1.22450E-07
  29.000      1.66210E-07
  29.600      1.92850E-07
  30.100      3.75640E-07
  30.800      1.66140E-06
  31.800      1.92830E-06
  32.800      2.98030E-06
  33.800      4.13460E-06
  34.800      5.66310E-06
  35.700      1.22960E-05
  36.600      2.42910E-05
  37.500      2.96090E-05
  38.500      3.24730E-05
  39.500      5.15280E-05
  40.500      6.76470E-05
  41.400      6.81200E-05
  42.200      7.13120E-05
  43.000      7.00440E-05
  44.100      8.26850E-05
  45.100      8.92580E-05
  46.000      8.30030E-05
  47.000      9.03780E-05
  48.000      1.04810E-04
  49.000      9.62220E-05
  50.000      1.17590E-04
  50.600      1.32010E-04
  51.200      4.49160E-04
  52.000      4.27740E-04
  53.000      3.98810E-04
  54.000      3.66990E-04
  55.000      3.91850E-04
  56.000      5.20110E-04
  57.000      5.66620E-04
  58.000      5.50000E-04
  59.000      5.79860E-04
  60.000      4.91270E-04
  61.000      5.54100E-04
  62.000      6.78910E-04
  63.000      6.68010E-04
  64.000      7.11930E-04
  65.000      7.02440E-04
  65.800      6.22050E-04
  66.500      7.22570E-04
  67.500      8.00530E-04
  68.500      6.79340E-04
  69.500      8.24430E-04
  70.500      7.10450E-04
  71.600      8.93230E-04
  72.600      9.01610E-04
  73.500      9.28110E-04
  74.500      8.90370E-04
  75.500      9.02070E-04
  76.500      8.94000E-04
  77.500      9.39650E-04
  78.500      9.42890E-04
  79.500      9.84710E-04
  80.500      9.77710E-04
  81.500      9.96170E-04
  82.500      1.03510E-03
  83.500      9.06740E-04
  84.500      1.03480E-03
  85.500      1.03300E-03
  86.500      1.07620E-03
  87.500      1.08970E-03
  88.500      1.10160E-03
  89.500      1.11550E-03
  90.500      1.10200E-03
  91.500      9.52020E-04
  92.500      1.74350E-03
  93.500      2.54690E-03
  94.500      3.38310E-03
  95.500      3.83540E-03
  96.500      4.57530E-03
  97.500      2.71860E-03
  98.500      4.16900E-03
  99.500      3.74190E-03
  100.50      3.90240E-03
  101.50      4.09350E-03
  102.50      3.20790E-03
  103.50      4.18230E-03
  104.50      4.59020E-03
  105.50      4.49790E-03
  106.50      4.14710E-03
  107.50      4.26640E-03
  108.50      3.92990E-03
  109.50      4.25130E-03
  110.50      4.12270E-03
  111.50      4.13410E-03
  112.50      3.76230E-03
  113.50      4.09900E-03
  114.50      4.05960E-03
  115.50      3.86720E-03
  116.50      3.75470E-03
  117.50      2.98520E-03
  118.50      3.58300E-03
  119.50      3.51670E-03
  120.50      3.45370E-03
  121.50      2.68390E-03
  122.50      3.35230E-03
  123.50      3.55720E-03
  124.50      3.52500E-03
  125.50      3.54520E-03
  126.50      3.63800E-03
  127.50      3.72780E-03
  128.50      3.75130E-03
  129.50      3.64130E-03
  130.50      3.62630E-03
  131.50      3.75120E-03
  132.50      3.68800E-03
  133.50      3.64690E-03
  134.50      3.66330E-03
  135.50      3.58760E-03
  136.50      3.52060E-03
  137.50      3.46140E-03
  138.50      3.42050E-03
  139.50      3.15410E-03
  140.50      3.11240E-03
  141.50      3.40420E-03
  142.50      3.12030E-03
  143.50      3.31350E-03
  144.20      3.26790E-03
  144.70      3.27200E-03
  145.50      3.17090E-03
  146.50      3.17620E-03
  147.50      3.17510E-03
  148.50      3.22540E-03
  149.50      3.15900E-03
  150.50      3.16480E-03
  151.20      3.15390E-03
  151.70      3.14800E-03
  152.50      3.08890E-03
  153.50      2.82270E-03
  154.50      2.43190E-03
  155.50      2.49270E-03
  156.50      2.73110E-03
  157.50      2.83890E-03
  158.50      2.85990E-03
  159.50      2.87510E-03
  160.50      2.73830E-03
  161.50      2.66050E-03
  162.50      2.72670E-03
  163.50      2.72550E-03
  164.50      2.69020E-03
  165.50      2.79570E-03
  166.50      2.76770E-03
  167.20      2.61040E-03
  167.70      2.91770E-03
  168.50      2.84230E-03
  169.50      2.80160E-03
  170.50      2.77450E-03
  171.50      2.70150E-03
  172.50      2.64290E-03
  173.50      2.74130E-03
  174.50      2.73660E-03
  175.50      2.69860E-03
  176.50      2.69040E-03
  177.50      2.64600E-03
  178.50      2.68420E-03
  179.50      2.63470E-03
  180.50      2.63450E-03
  181.50      2.61150E-03
  182.50      2.57890E-03
  183.50      2.59860E-03
  184.50      2.55930E-03
  185.50      2.56700E-03
  186.50      2.56590E-03
  187.50      2.52270E-03
  188.50      2.48150E-03
  189.50      2.49840E-03
  190.50      2.51710E-03
  191.50      2.48780E-03
  192.50      2.38230E-03
  193.50      2.47740E-03
  194.50      2.48690E-03
  195.50      2.36900E-03
  196.70      2.43250E-03
  197.60      2.44130E-03
  198.40      2.42240E-03
  199.50      2.38420E-03
  200.50      2.41530E-03
  201.50      2.40470E-03
  202.50      2.39120E-03
  203.50      2.36060E-03
  204.50      2.34040E-03
  205.50      1.81620E-03
  206.50      1.75040E-03
  207.40      1.78780E-03
  207.80      1.80520E-03
  208.50      1.90000E-03
  209.50      2.07610E-03
  210.50      2.22740E-03
  211.50      2.26660E-03
  212.50      2.23280E-03
  213.50      2.23470E-03
  214.50      2.22040E-03
  215.50      2.23090E-03
  216.50      2.13720E-03
  217.50      2.22020E-03
  218.50      2.13780E-03
  219.50      2.20630E-03
  220.50      2.19450E-03
  221.50      2.09590E-03
  222.50      2.16400E-03
  223.50      2.15450E-03
  224.50      2.12980E-03
  225.50      2.04630E-03
  226.50      2.11150E-03
  227.50      2.10560E-03
  228.50      2.07160E-03
  229.50      1.97940E-03
  230.50      1.98010E-03
  231.50      2.02800E-03
  232.50      2.03200E-03
  233.50      2.02010E-03
  234.50      2.00260E-03
  235.50      1.98030E-03
  236.50      1.96580E-03
  237.50      1.94180E-03
  238.50      1.84930E-03
  239.50      1.90320E-03
  240.50      1.91030E-03
  241.50      1.90310E-03
  242.50      1.90390E-03
  243.50      1.88670E-03
  244.50      1.87790E-03
  245.50      1.86180E-03
  246.50      1.85580E-03
  247.50      1.84860E-03
  248.50      1.82260E-03
  249.50      1.57980E-03
  250.50      1.78560E-03
  251.30      1.67220E-03
  251.80      1.74740E-03
  252.50      1.78270E-03
  253.50      1.78340E-03
  254.50      1.77050E-03
  255.50      1.75770E-03
  256.50      1.74950E-03
  257.50      1.73940E-03
  258.50      1.73050E-03
  259.50      1.70800E-03
  260.50      1.71330E-03
  261.50      1.69450E-03
  262.50      1.69420E-03
  263.50      1.68690E-03
  264.50      1.67220E-03
  265.50      1.66620E-03
  266.50      1.65050E-03
  267.50      1.62370E-03
  268.50      1.63320E-03
  269.50      1.61730E-03
  270.50      1.61770E-03
  271.50      1.60350E-03
  272.50      1.59370E-03
  273.50      1.54230E-03
  274.50      1.58390E-03
  275.50      1.57390E-03
  276.50      1.56020E-03
  277.50      1.55920E-03
  278.50      1.54570E-03
  279.50      1.51780E-03
  280.50      1.52610E-03
  281.50      1.52400E-03
  282.50      1.51140E-03
  283.50      1.50210E-03
  284.50      1.50200E-03
  285.50      1.49210E-03
  286.50      1.47820E-03
  287.50      1.47350E-03
  288.50      1.46660E-03
  289.50      1.45680E-03
  291.00      1.44180E-03
  293.00      1.43280E-03
  295.00      1.41260E-03
  297.00      1.39840E-03
  299.00      1.37670E-03
  301.00      1.36150E-03
  303.00      1.34210E-03
  305.00      1.33510E-03
  307.00      1.32510E-03
  309.00      1.31000E-03
  311.00      1.30090E-03
  313.00      1.28560E-03
  315.00      1.27560E-03
  317.00      1.26130E-03
  319.00      1.24810E-03
  321.00      1.22040E-03
  323.00      1.22670E-03
  325.00      1.21700E-03
  327.00      1.19520E-03
  329.00      1.19040E-03
  331.00      1.17790E-03
  333.00      1.16580E-03
  335.00      1.14910E-03
  337.00      1.14190E-03
  339.00      1.13540E-03
  341.00      1.12400E-03
  343.00      1.11450E-03
  345.00      1.09820E-03
  347.00      1.09300E-03
  349.00      1.08370E-03
  351.00      1.07470E-03
  353.00      1.06470E-03
  355.00      1.05420E-03
  357.00      1.04710E-03
  359.00      1.03410E-03
  361.00      1.02390E-03
  363.00      1.01450E-03
  364.00      1.00120E-03
  365.00      9.34550E-04
  367.00      9.28250E-04
  369.00      9.20980E-04
  371.00      9.08080E-04
  373.00      9.10730E-04
  375.00      9.12780E-04
  377.00      9.07960E-04
  379.00      9.31040E-04
  381.00      9.55800E-04
  383.00      8.90830E-04
  385.00      9.65510E-04
  387.00      9.65560E-04
  389.00      8.56550E-04
  391.00      9.67560E-04
  393.00      9.57670E-04
  395.00      9.43890E-04
  397.00      8.21910E-04
  399.00      9.33250E-04
  401.00      9.30480E-04
  403.00      9.00850E-04
  405.00      9.21450E-04
  407.00      9.02940E-04
  409.00      8.56030E-04
  411.00      7.96890E-04
  413.00      8.80160E-04
  415.00      8.76910E-04
  417.00      8.76990E-04
  419.00      8.65550E-04
  421.00      8.52380E-04
  423.00      8.58430E-04
  425.00      8.47890E-04
  427.00      8.39330E-04
  429.00      8.32970E-04
  431.00      8.20320E-04
  433.00      7.72910E-04
  435.00      7.33090E-04
  437.00      8.02220E-04
  439.00      7.89350E-04
  441.00      7.90740E-04
  443.00      7.88980E-04
  445.00      7.82460E-04
  447.00      7.59970E-04
  449.00      7.70510E-04
  451.00      7.60490E-04
  453.00      7.55990E-04
  455.00      7.39330E-04
  457.00      7.47820E-04
  459.00      7.40260E-04
  461.00      7.34990E-04
  463.00      7.24630E-04
  465.00      7.01290E-04
  467.00      7.15360E-04
  469.00      6.93890E-04
  471.00      7.03200E-04
  473.00      7.06900E-04
  475.00      7.01430E-04
  477.00      6.96810E-04
  479.00      6.91540E-04
  481.00      6.85680E-04
  483.00      6.77560E-04
  485.00      6.45290E-04
  487.00      6.00280E-04
  489.00      6.61150E-04
  491.00      6.59300E-04
  493.00      6.47290E-04
  495.00      6.50460E-04
  497.00      6.47790E-04
  499.00      6.43200E-04
  501.00      6.32270E-04
  503.00      6.32730E-04
  505.00      6.27490E-04
  507.00      6.25160E-04
  509.00      6.20740E-04
  511.00      6.16330E-04
  513.00      6.11860E-04
  515.00      6.07570E-04
  517.00      6.03250E-04
  519.00      5.99320E-04
  521.00      5.95380E-04
  523.00      5.91370E-04
  525.00      5.86200E-04
  527.00      5.82140E-04
  529.00      5.79390E-04
  531.00      5.75410E-04
  533.00      5.71520E-04
  535.00      5.67770E-04
  537.00      5.63930E-04
  539.00      5.60080E-04
  541.00      5.46290E-04
  543.00      5.52620E-04
  545.00      5.49120E-04
  547.00      5.45430E-04
  549.00      5.41900E-04
  551.00      5.38020E-04
  553.00      5.34830E-04
  555.00      5.31470E-04
  557.00      5.27810E-04
  559.00      5.23250E-04
  561.00      5.21220E-04
  563.00      5.17870E-04
  565.00      5.14520E-04
  567.00      5.11030E-04
  569.00      5.01290E-04
  571.00      4.83460E-04
  573.00      4.80690E-04
  575.00      4.77660E-04
  577.00      4.75170E-04
  579.00      4.72350E-04
  581.00      4.68420E-04
  583.00      4.66370E-04
  585.00      4.65100E-04
  587.00      4.55450E-04
  589.00      4.61080E-04
  591.00      4.60300E-04
  593.00      4.59140E-04
  595.00      4.58180E-04
  597.00      4.57620E-04
  599.00      4.56780E-04
  601.00      4.55980E-04
  603.00      4.54560E-04
  605.00      4.53630E-04
  607.00      4.51530E-04
  609.00      4.49210E-04
  611.00      4.46360E-04
  613.00      4.43910E-04
  615.00      4.41070E-04
  617.00      4.38370E-04
  619.00      4.36230E-04
  621.00      4.33790E-04
  623.00      4.30870E-04
  625.00      4.28530E-04
  627.00      4.26180E-04
  629.00      4.23750E-04
  631.00      4.20410E-04
  633.00      4.18810E-04
  635.00      4.16280E-04
  637.00      4.14050E-04
  639.00      4.11620E-04
  641.00      4.08100E-04
  643.00      4.07010E-04
  645.00      4.04430E-04
  647.00      4.01930E-04
  649.00      3.99840E-04
  651.00      3.97020E-04
  653.00      3.92340E-04
  655.00      3.82760E-04
  657.00      3.52250E-04
  659.00      3.86060E-04
  661.00      3.86440E-04
  663.00      3.84700E-04
  665.00      3.82560E-04
  667.00      3.76810E-04
  669.00      3.73480E-04
  671.00      3.75530E-04
  673.00      3.73640E-04
  675.00      3.71720E-04
  677.00      3.70130E-04
  679.00      3.68060E-04
  681.00      3.66240E-04
  683.00      3.64250E-04
  685.00      3.62250E-04
  687.00      3.60160E-04
  689.00      3.55650E-04
  691.00      3.56050E-04
  693.00      3.54640E-04
  695.00      3.52750E-04
  697.00      3.50890E-04
  699.00      3.49000E-04
  701.00      3.46980E-04
  703.00      3.44700E-04
  705.00      3.43240E-04
  707.00      3.38220E-04
  709.00      3.39980E-04
  711.00      3.38150E-04
  713.00      3.36410E-04
  715.00      3.34720E-04
  717.00      3.31150E-04
  719.00      3.30120E-04
  721.00      3.29580E-04
  723.00      3.27390E-04
  725.00      3.26140E-04
  727.00      3.24550E-04
  729.00      3.21390E-04
  731.00      3.21140E-04
  733.00      3.19630E-04
  735.00      3.18010E-04
  737.00      3.16380E-04
  739.00      3.14840E-04
  741.00      3.13210E-04
  743.00      3.11690E-04
  745.00      3.10000E-04
  747.00      3.08470E-04
  749.00      3.06310E-04
  751.00      3.05470E-04
  753.00      3.04020E-04
  755.00      3.02530E-04
  757.00      3.00980E-04
  759.00      2.96400E-04
  761.00      2.97660E-04
  763.00      2.96540E-04
  765.00      2.95130E-04
  767.00      2.93780E-04
  769.00      2.91860E-04
  771.00      2.90710E-04
  773.00      2.88910E-04
  775.00      2.88110E-04
  777.00      2.86790E-04
  779.00      2.85420E-04
  781.00      2.84000E-04
  783.00      2.82680E-04
  785.00      2.81200E-04
  787.00      2.79870E-04
  789.00      2.78620E-04
  791.00      2.77460E-04
  793.00      2.76140E-04
  795.00      2.74890E-04
  797.00      2.73470E-04
  799.00      2.72280E-04
  801.00      2.71030E-04
  803.00      2.69640E-04
  805.00      2.68540E-04
  807.00      2.67290E-04
  809.00      2.66010E-04
  811.00      2.64580E-04
  813.00      2.63620E-04
  815.00      2.62310E-04
  817.00      2.61080E-04
  819.00      2.59180E-04
  821.00      2.52850E-04
  823.00      2.50340E-04
  825.00      2.50360E-04
  827.00      2.49280E-04
  829.00      2.48610E-04
  831.00      2.47660E-04
  833.00      2.46140E-04
  835.00      2.44760E-04
  837.00      2.44210E-04
  839.00      2.43400E-04
  841.00      2.42330E-04
  843.00      2.41330E-04
  845.00      2.39830E-04
  847.00      2.39360E-04
  849.00      2.38310E-04
  851.00      2.36890E-04
  853.00      2.36400E-04
  855.00      2.35470E-04
  857.00      2.34920E-04
  859.00      2.32730E-04
  861.00      2.32690E-04
  863.00      2.32840E-04
  865.00      2.30850E-04
  867.00      2.28460E-04
  869.00      2.30420E-04
  871.00      2.30360E-04
  873.00      2.27870E-04
  875.00      2.22640E-04
  877.00      2.25320E-04
  879.00      2.27660E-04
  881.00      2.27520E-04
  883.00      2.26010E-04
  885.00      2.19720E-04
  887.00      2.14270E-04
  889.00      2.22180E-04
  891.00      2.23620E-04
  893.00      2.23220E-04
  895.00      2.22480E-04
  897.00      2.21260E-04
  899.00      2.17280E-04
  901.00      2.05650E-04
  903.00      2.09580E-04
  905.00      2.16250E-04
  907.00      2.15920E-04
  909.00      2.16280E-04
  911.00      2.15800E-04
  913.00      2.15220E-04
  915.00      2.14200E-04
  917.00      2.12710E-04
  919.00      2.11010E-04
  921.00      2.04870E-04
  923.00      1.91790E-04
  925.00      2.02870E-04
  927.00      2.07320E-04
  929.00      2.07630E-04
  931.00      2.06860E-04
  933.00      2.06330E-04
  935.00      2.02360E-04
  937.00      2.04540E-04
  939.00      2.04180E-04
  941.00      2.03190E-04
  943.00      2.02450E-04
  945.00      2.01670E-04
  947.00      2.00070E-04
  949.00      1.99390E-04
  951.00      1.96550E-04
  953.00      1.90370E-04
  955.00      1.77940E-04
  957.00      1.91230E-04
  959.00      1.94630E-04
  961.00      1.94600E-04
  963.00      1.93850E-04
  965.00      1.93890E-04
  967.00      1.93180E-04
  969.00      1.92340E-04
  971.00      1.89200E-04
  973.00      1.90570E-04
  975.00      1.90130E-04
  977.00      1.89120E-04
  979.00      1.88670E-04
  981.00      1.87940E-04
  983.00      1.87190E-04
  985.00      1.86470E-04
  987.00      1.85750E-04
  989.00      1.84960E-04
  991.00      1.84090E-04
  993.00      1.83640E-04
  995.00      1.82950E-04
  997.00      1.82110E-04
  999.00      1.80960E-04
  1002.5      1.74130E-04
  1007.5      1.70640E-04
  1012.5      1.74210E-04
  1017.5      1.75300E-04
  1022.5      1.73620E-04
  1027.5      1.72010E-04
  1032.5      1.69990E-04
  1037.5      1.68900E-04
  1042.5      1.67110E-04
  1047.5      1.65830E-04
  1052.5      1.64320E-04
  1057.5      1.62840E-04
  1062.5      1.61380E-04
  1067.5      1.59810E-04
  1072.5      1.58510E-04
  1077.5      1.57110E-04
  1082.5      1.54690E-04
  1087.5      1.53750E-04
  1092.5      1.43530E-04
  1097.5      1.48500E-04
  1102.5      1.49760E-04
  1107.5      1.48970E-04
  1112.5      1.47760E-04
  1117.5      1.46530E-04
  1122.5      1.45240E-04
  1127.5      1.44030E-04
  1132.5      1.42790E-04
  1137.5      1.41600E-04
  1142.5      1.40420E-04
  1147.5      1.39250E-04
  1152.5      1.38100E-04
  1157.5      1.36940E-04
  1162.5      1.34860E-04
  1167.5      1.34230E-04
  1172.5      1.33610E-04
  1177.5      1.32520E-04
  1182.5      1.31410E-04
  1187.5      1.30370E-04
  1192.5      1.29320E-04
  1197.5      1.27260E-04
  1202.5      1.27270E-04
  1207.5      1.26240E-04
  1212.5      1.25200E-04
  1217.5      1.24260E-04
  1222.5      1.23290E-04
  1227.5      1.22320E-04
  1232.5      1.21360E-04
  1237.5      1.20420E-04
  1242.5      1.19490E-04
  1247.5      1.18560E-04
  1252.5      1.17510E-04
  1257.5      1.16730E-04
  1262.5      1.15860E-04
  1267.5      1.14980E-04
  1272.5      1.14010E-04
  1277.5      1.11560E-04
  1282.5      1.05140E-04
  1287.5      1.10790E-04
  1292.5      1.10680E-04
  1297.5      1.09490E-04
  1302.5      1.09070E-04
  1307.5      1.08290E-04
  1312.5      1.07490E-04
  1317.5      1.06700E-04
  1322.5      1.05920E-04
  1327.5      1.05150E-04
  1332.5      1.04390E-04
  1337.5      1.03630E-04
  1342.5      1.02850E-04
  1347.5      1.02150E-04
  1352.5      1.01410E-04
  1357.5      1.00700E-04
  1362.5      9.99740E-05
  1367.5      9.92800E-05
  1372.5      9.85500E-05
  1377.5      9.78900E-05
  1382.5      9.72060E-05
  1387.5      9.65270E-05
  1392.5      9.58430E-05
  1397.5      9.51920E-05
