 Castelli and Kurucz 2004-2012 Atmosphere
 T     40000.     G    5.00000 [0.0] VTURB=2  L/H=1.25 NOVER NEW ODF           
 Wavelength  Eddington Hnu
   (nm)    (ergs/s/cm2/Hz/sr)
  9.0900      1.08920E-24
  9.3500      3.97420E-24
  9.6100      1.34670E-23
  9.7700      2.80260E-23
  9.9600      6.44500E-23
  10.200      1.77030E-22
  10.380      3.67350E-22
  10.560      7.44730E-22
  10.770      1.65150E-21
  11.040      4.40960E-21
  11.400      1.52590E-20
  11.780      5.24620E-20
  12.130      1.53620E-19
  12.480      4.24870E-19
  12.710      8.06020E-19
  12.840      1.14650E-18
  13.050      1.99640E-18
  13.240      3.25350E-18
  13.390      4.74530E-18
  13.660      9.15580E-18
  13.980      1.94940E-17
  14.330      4.28300E-17
  14.720      9.77320E-17
  15.100      2.16090E-16
  15.520      4.90710E-16
  15.880      9.61360E-16
  16.200      1.70460E-15
  16.600      3.42410E-15
  17.030      6.95170E-15
  17.340      1.13920E-14
  17.680      1.93060E-14
  18.020      3.20020E-14
  18.170      3.96880E-14
  18.610      7.41880E-14
  19.100      1.43780E-13
  19.390      2.10090E-13
  19.840      3.69780E-13
  20.180      5.56190E-13
  20.500      8.10510E-13
  21.050      1.50760E-12
  21.620      2.76360E-12
  21.980      4.02710E-12
  22.300      5.53720E-12
  22.680      8.00540E-12
  23.000      3.35140E-09
  23.400      1.14430E-08
  24.000      1.72610E-08
  24.650      2.59220E-08
  25.240      4.33050E-08
  25.680      5.80160E-08
  26.000      7.83150E-08
  26.400      2.36320E-07
  26.850      3.38010E-07
  27.350      4.23860E-07
  27.850      3.57080E-07
  28.400      7.94850E-07
  29.000      1.13410E-06
  29.600      1.03430E-06
  30.100      1.83030E-06
  30.800      1.03790E-05
  31.800      6.82130E-06
  32.800      1.16040E-05
  33.800      1.22600E-05
  34.800      1.55130E-05
  35.700      3.80350E-05
  36.600      7.64620E-05
  37.500      9.92720E-05
  38.500      1.01690E-04
  39.500      1.63520E-04
  40.500      2.31150E-04
  41.400      2.24830E-04
  42.200      2.27460E-04
  43.000      2.16960E-04
  44.100      2.58010E-04
  45.100      2.78580E-04
  46.000      2.46430E-04
  47.000      2.65970E-04
  48.000      3.09390E-04
  49.000      2.58370E-04
  50.000      3.31380E-04
  50.600      3.08680E-04
  51.200      7.41770E-04
  52.000      7.02540E-04
  53.000      6.55520E-04
  54.000      5.96370E-04
  55.000      5.97410E-04
  56.000      8.07320E-04
  57.000      8.91750E-04
  58.000      8.72520E-04
  59.000      9.12000E-04
  60.000      7.73490E-04
  61.000      8.29320E-04
  62.000      1.03370E-03
  63.000      1.00690E-03
  64.000      1.09240E-03
  65.000      1.06180E-03
  65.800      9.47370E-04
  66.500      1.10280E-03
  67.500      1.20610E-03
  68.500      1.04410E-03
  69.500      1.22750E-03
  70.500      1.06350E-03
  71.600      1.31260E-03
  72.600      1.33300E-03
  73.500      1.36760E-03
  74.500      1.31200E-03
  75.500      1.32300E-03
  76.500      1.28320E-03
  77.500      1.36110E-03
  78.500      1.32670E-03
  79.500      1.40860E-03
  80.500      1.41070E-03
  81.500      1.43550E-03
  82.500      1.47660E-03
  83.500      1.30310E-03
  84.500      1.47630E-03
  85.500      1.46270E-03
  86.500      1.52460E-03
  87.500      1.54060E-03
  88.500      1.54650E-03
  89.500      1.56020E-03
  90.500      1.54060E-03
  91.500      1.25270E-03
  92.500      2.15220E-03
  93.500      3.04260E-03
  94.500      3.86390E-03
  95.500      4.37830E-03
  96.500      5.12140E-03
  97.500      3.35590E-03
  98.500      4.69980E-03
  99.500      4.22450E-03
  100.50      4.37660E-03
  101.50      4.58900E-03
  102.50      3.74600E-03
  103.50      4.73390E-03
  104.50      5.08600E-03
  105.50      5.00010E-03
  106.50      4.67920E-03
  107.50      4.79480E-03
  108.50      4.42240E-03
  109.50      4.75430E-03
  110.50      4.62540E-03
  111.50      4.63190E-03
  112.50      4.32790E-03
  113.50      4.61040E-03
  114.50      4.60120E-03
  115.50      4.36520E-03
  116.50      4.21870E-03
  117.50      3.52010E-03
  118.50      4.06230E-03
  119.50      3.97160E-03
  120.50      3.92160E-03
  121.50      3.13560E-03
  122.50      3.79720E-03
  123.50      3.96060E-03
  124.50      3.93020E-03
  125.50      3.96530E-03
  126.50      4.05020E-03
  127.50      4.13470E-03
  128.50      4.15120E-03
  129.50      4.07600E-03
  130.50      4.03060E-03
  131.50      4.12760E-03
  132.50      4.07510E-03
  133.50      4.03960E-03
  134.50      4.04440E-03
  135.50      3.94550E-03
  136.50      3.86630E-03
  137.50      3.78950E-03
  138.50      3.76780E-03
  139.50      3.56840E-03
  140.50      3.48130E-03
  141.50      3.77520E-03
  142.50      3.48330E-03
  143.50      3.67850E-03
  144.20      3.60060E-03
  144.70      3.60990E-03
  145.50      3.50890E-03
  146.50      3.52500E-03
  147.50      3.51870E-03
  148.50      3.57620E-03
  149.50      3.50620E-03
  150.50      3.52440E-03
  151.20      3.51960E-03
  151.70      3.49410E-03
  152.50      3.44920E-03
  153.50      3.18380E-03
  154.50      2.73320E-03
  155.50      2.81060E-03
  156.50      3.06780E-03
  157.50      3.17600E-03
  158.50      3.17940E-03
  159.50      3.20140E-03
  160.50      3.05630E-03
  161.50      2.98000E-03
  162.50      3.03970E-03
  163.50      3.03080E-03
  164.50      2.97410E-03
  165.50      3.10250E-03
  166.50      3.07090E-03
  167.20      2.90990E-03
  167.70      3.20920E-03
  168.50      3.14300E-03
  169.50      3.11030E-03
  170.50      3.07050E-03
  171.50      2.98530E-03
  172.50      2.93900E-03
  173.50      3.03900E-03
  174.50      3.03180E-03
  175.50      2.98780E-03
  176.50      2.97770E-03
  177.50      2.93350E-03
  178.50      2.96910E-03
  179.50      2.91190E-03
  180.50      2.90550E-03
  181.50      2.88420E-03
  182.50      2.84800E-03
  183.50      2.86460E-03
  184.50      2.84120E-03
  185.50      2.84030E-03
  186.50      2.83250E-03
  187.50      2.78380E-03
  188.50      2.75300E-03
  189.50      2.78160E-03
  190.50      2.78270E-03
  191.50      2.75770E-03
  192.50      2.65120E-03
  193.50      2.73930E-03
  194.50      2.73730E-03
  195.50      2.63640E-03
  196.70      2.68300E-03
  197.60      2.67770E-03
  198.40      2.66950E-03
  199.50      2.63660E-03
  200.50      2.65140E-03
  201.50      2.63450E-03
  202.50      2.61710E-03
  203.50      2.59010E-03
  204.50      2.56460E-03
  205.50      1.94290E-03
  206.50      1.86910E-03
  207.40      1.90890E-03
  207.80      1.94140E-03
  208.50      2.05610E-03
  209.50      2.28040E-03
  210.50      2.43930E-03
  211.50      2.47650E-03
  212.50      2.44080E-03
  213.50      2.44120E-03
  214.50      2.42640E-03
  215.50      2.44110E-03
  216.50      2.32780E-03
  217.50      2.43190E-03
  218.50      2.32960E-03
  219.50      2.41370E-03
  220.50      2.40070E-03
  221.50      2.28240E-03
  222.50      2.36780E-03
  223.50      2.35810E-03
  224.50      2.33100E-03
  225.50      2.23070E-03
  226.50      2.30950E-03
  227.50      2.30370E-03
  228.50      2.26760E-03
  229.50      2.19030E-03
  230.50      2.15970E-03
  231.50      2.21780E-03
  232.50      2.22320E-03
  233.50      2.21070E-03
  234.50      2.18930E-03
  235.50      2.16510E-03
  236.50      2.14890E-03
  237.50      2.12200E-03
  238.50      2.01390E-03
  239.50      2.08070E-03
  240.50      2.08470E-03
  241.50      2.07800E-03
  242.50      2.08100E-03
  243.50      2.06240E-03
  244.50      2.05220E-03
  245.50      2.03270E-03
  246.50      2.02750E-03
  247.50      2.02170E-03
  248.50      1.99370E-03
  249.50      1.76070E-03
  250.50      1.95520E-03
  251.30      1.81880E-03
  251.80      1.91360E-03
  252.50      1.94370E-03
  253.50      1.94740E-03
  254.50      1.93630E-03
  255.50      1.92140E-03
  256.50      1.91220E-03
  257.50      1.90040E-03
  258.50      1.89050E-03
  259.50      1.86090E-03
  260.50      1.87030E-03
  261.50      1.84830E-03
  262.50      1.84950E-03
  263.50      1.84160E-03
  264.50      1.82490E-03
  265.50      1.81910E-03
  266.50      1.80420E-03
  267.50      1.77430E-03
  268.50      1.78220E-03
  269.50      1.76740E-03
  270.50      1.76880E-03
  271.50      1.75290E-03
  272.50      1.74200E-03
  273.50      1.67810E-03
  274.50      1.72990E-03
  275.50      1.71820E-03
  276.50      1.70550E-03
  277.50      1.70060E-03
  278.50      1.68500E-03
  279.50      1.66030E-03
  280.50      1.66630E-03
  281.50      1.66170E-03
  282.50      1.64920E-03
  283.50      1.64130E-03
  284.50      1.63790E-03
  285.50      1.62790E-03
  286.50      1.61260E-03
  287.50      1.60670E-03
  288.50      1.59980E-03
  289.50      1.58930E-03
  291.00      1.57400E-03
  293.00      1.56230E-03
  295.00      1.54240E-03
  297.00      1.52460E-03
  299.00      1.50130E-03
  301.00      1.48570E-03
  303.00      1.46310E-03
  305.00      1.45490E-03
  307.00      1.44210E-03
  309.00      1.42910E-03
  311.00      1.41720E-03
  313.00      1.40100E-03
  315.00      1.39050E-03
  317.00      1.37470E-03
  319.00      1.36120E-03
  321.00      1.32600E-03
  323.00      1.33690E-03
  325.00      1.32560E-03
  327.00      1.30110E-03
  329.00      1.29640E-03
  331.00      1.28250E-03
  333.00      1.26970E-03
  335.00      1.25070E-03
  337.00      1.24360E-03
  339.00      1.23510E-03
  341.00      1.22270E-03
  343.00      1.21300E-03
  345.00      1.19500E-03
  347.00      1.19000E-03
  349.00      1.18040E-03
  351.00      1.17040E-03
  353.00      1.15810E-03
  355.00      1.14700E-03
  357.00      1.13850E-03
  359.00      1.12590E-03
  361.00      1.11400E-03
  363.00      1.10390E-03
  364.00      1.08360E-03
  365.00      9.95960E-04
  367.00      9.88830E-04
  369.00      9.81420E-04
  371.00      9.71620E-04
  373.00      9.77980E-04
  375.00      9.84510E-04
  377.00      9.86700E-04
  379.00      1.01080E-03
  381.00      1.03480E-03
  383.00      9.74380E-04
  385.00      1.04060E-03
  387.00      1.04110E-03
  389.00      9.36340E-04
  391.00      1.03920E-03
  393.00      1.02700E-03
  395.00      1.01560E-03
  397.00      8.98400E-04
  399.00      1.00330E-03
  401.00      9.99270E-04
  403.00      9.69450E-04
  405.00      9.88450E-04
  407.00      9.71970E-04
  409.00      9.26190E-04
  411.00      8.67790E-04
  413.00      9.46860E-04
  415.00      9.42630E-04
  417.00      9.40770E-04
  419.00      9.27530E-04
  421.00      9.10960E-04
  423.00      9.20140E-04
  425.00      9.10420E-04
  427.00      9.02350E-04
  429.00      8.95110E-04
  431.00      8.82600E-04
  433.00      8.36380E-04
  435.00      7.97380E-04
  437.00      8.62190E-04
  439.00      8.49730E-04
  441.00      8.48790E-04
  443.00      8.46130E-04
  445.00      8.38940E-04
  447.00      8.19460E-04
  449.00      8.26300E-04
  451.00      8.15450E-04
  453.00      8.09590E-04
  455.00      7.89520E-04
  457.00      8.00950E-04
  459.00      7.93470E-04
  461.00      7.88370E-04
  463.00      7.77620E-04
  465.00      7.55130E-04
  467.00      7.67540E-04
  469.00      7.40060E-04
  471.00      7.55930E-04
  473.00      7.57240E-04
  475.00      7.51570E-04
  477.00      7.46140E-04
  479.00      7.40490E-04
  481.00      7.34630E-04
  483.00      7.26570E-04
  485.00      6.96090E-04
  487.00      6.51580E-04
  489.00      7.09100E-04
  491.00      7.06950E-04
  493.00      6.96010E-04
  495.00      6.97300E-04
  497.00      6.93610E-04
  499.00      6.88790E-04
  501.00      6.79010E-04
  503.00      6.77820E-04
  505.00      6.72540E-04
  507.00      6.69360E-04
  509.00      6.64710E-04
  511.00      6.60080E-04
  513.00      6.55360E-04
  515.00      6.50720E-04
  517.00      6.46210E-04
  519.00      6.41850E-04
  521.00      6.37520E-04
  523.00      6.33270E-04
  525.00      6.27860E-04
  527.00      6.23410E-04
  529.00      6.20410E-04
  531.00      6.16170E-04
  533.00      6.12000E-04
  535.00      6.07970E-04
  537.00      6.03890E-04
  539.00      5.99760E-04
  541.00      5.82990E-04
  543.00      5.91700E-04
  545.00      5.88030E-04
  547.00      5.84080E-04
  549.00      5.80300E-04
  551.00      5.76010E-04
  553.00      5.72750E-04
  555.00      5.69070E-04
  557.00      5.65130E-04
  559.00      5.60110E-04
  561.00      5.58120E-04
  563.00      5.54530E-04
  565.00      5.50940E-04
  567.00      5.47340E-04
  569.00      5.36070E-04
  571.00      5.09840E-04
  573.00      5.06880E-04
  575.00      5.03820E-04
  577.00      5.01090E-04
  579.00      4.98230E-04
  581.00      4.93840E-04
  583.00      4.92640E-04
  585.00      4.91500E-04
  587.00      4.83800E-04
  589.00      4.88670E-04
  591.00      4.88170E-04
  593.00      4.87630E-04
  595.00      4.87390E-04
  597.00      4.87480E-04
  599.00      4.87660E-04
  601.00      4.87290E-04
  603.00      4.86310E-04
  605.00      4.85700E-04
  607.00      4.83110E-04
  609.00      4.80830E-04
  611.00      4.77940E-04
  613.00      4.75470E-04
  615.00      4.72690E-04
  617.00      4.69220E-04
  619.00      4.67420E-04
  621.00      4.64820E-04
  623.00      4.61010E-04
  625.00      4.59070E-04
  627.00      4.56700E-04
  629.00      4.54060E-04
  631.00      4.49710E-04
  633.00      4.48670E-04
  635.00      4.46140E-04
  637.00      4.43670E-04
  639.00      4.40870E-04
  641.00      4.36410E-04
  643.00      4.36100E-04
  645.00      4.33350E-04
  647.00      4.30770E-04
  649.00      4.28520E-04
  651.00      4.25400E-04
  653.00      4.19750E-04
  655.00      4.11730E-04
  657.00      3.81430E-04
  659.00      4.14370E-04
  661.00      4.14270E-04
  663.00      4.12250E-04
  665.00      4.09960E-04
  667.00      4.04220E-04
  669.00      3.99530E-04
  671.00      4.02450E-04
  673.00      4.00520E-04
  675.00      3.98370E-04
  677.00      3.96600E-04
  679.00      3.94530E-04
  681.00      3.92440E-04
  683.00      3.90320E-04
  685.00      3.88150E-04
  687.00      3.85910E-04
  689.00      3.79590E-04
  691.00      3.81490E-04
  693.00      3.79990E-04
  695.00      3.77970E-04
  697.00      3.75970E-04
  699.00      3.73950E-04
  701.00      3.71800E-04
  703.00      3.69410E-04
  705.00      3.67800E-04
  707.00      3.63110E-04
  709.00      3.64280E-04
  711.00      3.62330E-04
  713.00      3.60460E-04
  715.00      3.58640E-04
  717.00      3.53720E-04
  719.00      3.53010E-04
  721.00      3.53130E-04
  723.00      3.51140E-04
  725.00      3.49490E-04
  727.00      3.47740E-04
  729.00      3.44760E-04
  731.00      3.44050E-04
  733.00      3.42480E-04
  735.00      3.40750E-04
  737.00      3.38970E-04
  739.00      3.37340E-04
  741.00      3.35570E-04
  743.00      3.33980E-04
  745.00      3.32090E-04
  747.00      3.30590E-04
  749.00      3.28260E-04
  751.00      3.27280E-04
  753.00      3.25760E-04
  755.00      3.24150E-04
  757.00      3.22490E-04
  759.00      3.16060E-04
  761.00      3.18760E-04
  763.00      3.17740E-04
  765.00      3.16240E-04
  767.00      3.14780E-04
  769.00      3.12750E-04
  771.00      3.11500E-04
  773.00      3.09610E-04
  775.00      3.08700E-04
  777.00      3.07290E-04
  779.00      3.05820E-04
  781.00      3.04340E-04
  783.00      3.02890E-04
  785.00      3.01140E-04
  787.00      2.99880E-04
  789.00      2.98550E-04
  791.00      2.97270E-04
  793.00      2.95900E-04
  795.00      2.94510E-04
  797.00      2.92950E-04
  799.00      2.91730E-04
  801.00      2.90400E-04
  803.00      2.88870E-04
  805.00      2.87710E-04
  807.00      2.86370E-04
  809.00      2.85050E-04
  811.00      2.83650E-04
  813.00      2.82430E-04
  815.00      2.81130E-04
  817.00      2.79670E-04
  819.00      2.77490E-04
  821.00      2.68200E-04
  823.00      2.65180E-04
  825.00      2.65420E-04
  827.00      2.64570E-04
  829.00      2.63680E-04
  831.00      2.62640E-04
  833.00      2.61090E-04
  835.00      2.59830E-04
  837.00      2.59120E-04
  839.00      2.58190E-04
  841.00      2.57110E-04
  843.00      2.56080E-04
  845.00      2.54740E-04
  847.00      2.54070E-04
  849.00      2.53110E-04
  851.00      2.51790E-04
  853.00      2.51300E-04
  855.00      2.50350E-04
  857.00      2.49790E-04
  859.00      2.48050E-04
  861.00      2.47780E-04
  863.00      2.47820E-04
  865.00      2.46210E-04
  867.00      2.44000E-04
  869.00      2.45620E-04
  871.00      2.45500E-04
  873.00      2.43530E-04
  875.00      2.38910E-04
  877.00      2.41300E-04
  879.00      2.43100E-04
  881.00      2.42930E-04
  883.00      2.41710E-04
  885.00      2.36260E-04
  887.00      2.31020E-04
  889.00      2.38010E-04
  891.00      2.39110E-04
  893.00      2.38590E-04
  895.00      2.37850E-04
  897.00      2.36640E-04
  899.00      2.33060E-04
  901.00      2.22150E-04
  903.00      2.25680E-04
  905.00      2.31560E-04
  907.00      2.31240E-04
  909.00      2.31260E-04
  911.00      2.30540E-04
  913.00      2.29990E-04
  915.00      2.29060E-04
  917.00      2.27440E-04
  919.00      2.25770E-04
  921.00      2.20270E-04
  923.00      2.07600E-04
  925.00      2.18050E-04
  927.00      2.21880E-04
  929.00      2.21980E-04
  931.00      2.21240E-04
  933.00      2.20420E-04
  935.00      2.15080E-04
  937.00      2.18280E-04
  939.00      2.18110E-04
  941.00      2.17120E-04
  943.00      2.16350E-04
  945.00      2.15540E-04
  947.00      2.14180E-04
  949.00      2.13200E-04
  951.00      2.10620E-04
  953.00      2.04920E-04
  955.00      1.92620E-04
  957.00      2.05360E-04
  959.00      2.08280E-04
  961.00      2.08150E-04
  963.00      2.07480E-04
  965.00      2.07180E-04
  967.00      2.06410E-04
  969.00      2.05560E-04
  971.00      2.02670E-04
  973.00      2.03690E-04
  975.00      2.03000E-04
  977.00      2.01710E-04
  979.00      2.01600E-04
  981.00      2.00830E-04
  983.00      2.00000E-04
  985.00      1.99270E-04
  987.00      1.98510E-04
  989.00      1.97700E-04
  991.00      1.96870E-04
  993.00      1.96230E-04
  995.00      1.95490E-04
  997.00      1.94700E-04
  999.00      1.93480E-04
  1002.5      1.87060E-04
  1007.5      1.83420E-04
  1012.5      1.85740E-04
  1017.5      1.87330E-04
  1022.5      1.85550E-04
  1027.5      1.83810E-04
  1032.5      1.81750E-04
  1037.5      1.80490E-04
  1042.5      1.78280E-04
  1047.5      1.77220E-04
  1052.5      1.75610E-04
  1057.5      1.74030E-04
  1062.5      1.72470E-04
  1067.5      1.70850E-04
  1072.5      1.69410E-04
  1077.5      1.67900E-04
  1082.5      1.65500E-04
  1087.5      1.64470E-04
  1092.5      1.54580E-04
  1097.5      1.59260E-04
  1102.5      1.60280E-04
  1107.5      1.59260E-04
  1112.5      1.57930E-04
  1117.5      1.56630E-04
  1122.5      1.55270E-04
  1127.5      1.53970E-04
  1132.5      1.52650E-04
  1137.5      1.51370E-04
  1142.5      1.50120E-04
  1147.5      1.48860E-04
  1152.5      1.47630E-04
  1157.5      1.46380E-04
  1162.5      1.43740E-04
  1167.5      1.43140E-04
  1172.5      1.42830E-04
  1177.5      1.41670E-04
  1182.5      1.40480E-04
  1187.5      1.39370E-04
  1192.5      1.38250E-04
  1197.5      1.36340E-04
  1202.5      1.36060E-04
  1207.5      1.34960E-04
  1212.5      1.33860E-04
  1217.5      1.32850E-04
  1222.5      1.31800E-04
  1227.5      1.30770E-04
  1232.5      1.29750E-04
  1237.5      1.28740E-04
  1242.5      1.27750E-04
  1247.5      1.26760E-04
  1252.5      1.25690E-04
  1257.5      1.24810E-04
  1262.5      1.23870E-04
  1267.5      1.22930E-04
  1272.5      1.21950E-04
  1277.5      1.19580E-04
  1282.5      1.13160E-04
  1287.5      1.18600E-04
  1292.5      1.18380E-04
  1297.5      1.17210E-04
  1302.5      1.16620E-04
  1307.5      1.15770E-04
  1312.5      1.14920E-04
  1317.5      1.14080E-04
  1322.5      1.13250E-04
  1327.5      1.12420E-04
  1332.5      1.11610E-04
  1337.5      1.10800E-04
  1342.5      1.09980E-04
  1347.5      1.09220E-04
  1352.5      1.08430E-04
  1357.5      1.07670E-04
  1362.5      1.06900E-04
  1367.5      1.06150E-04
  1372.5      1.05380E-04
  1377.5      1.04660E-04
  1382.5      1.03930E-04
  1387.5      1.03200E-04
  1392.5      1.02480E-04
  1397.5      1.01780E-04
