 Castelli and Kurucz 2004-2012 Atmosphere
 T     34000.     G    4.50000 [0.0] VTURB=2  L/H=1.25 NOVER NEW ODF           
 Wavelength  Eddington Hnu
   (nm)    (ergs/s/cm2/Hz/sr)
  9.0900      1.05310E-30
  9.3500      5.53100E-30
  9.6100      2.67820E-29
  9.7700      6.82220E-29
  9.9600      1.99710E-28
  10.200      7.36460E-28
  10.380      1.89290E-27
  10.560      4.72460E-27
  10.770      1.32550E-26
  11.040      4.73580E-26
  11.400      2.37040E-25
  11.780      1.17660E-24
  12.130      4.73290E-24
  12.480      1.76700E-23
  12.710      4.04390E-23
  12.840      6.37550E-23
  13.050      1.30530E-22
  13.240      2.45130E-22
  13.390      3.98150E-22
  13.660      9.29460E-22
  13.980      2.43800E-21
  14.330      6.66950E-21
  14.720      1.93490E-20
  15.100      5.19780E-20
  15.520      1.46470E-19
  15.880      3.41110E-19
  16.200      7.02090E-19
  16.600      1.66730E-18
  17.030      4.03410E-18
  17.340      7.45340E-18
  17.680      1.42770E-17
  18.020      2.66360E-17
  18.170      3.49670E-17
  18.610      7.49900E-17
  19.100      1.68790E-16
  19.390      2.67680E-16
  19.840      5.35220E-16
  20.180      8.84040E-16
  20.500      1.39810E-15
  21.050      2.98520E-15
  21.620      6.27430E-15
  21.980      9.92350E-15
  22.300      1.46860E-14
  22.680      2.31600E-14
  23.000      1.39540E-11
  23.400      3.33250E-11
  24.000      5.27270E-11
  24.650      8.85770E-11
  25.240      1.45940E-10
  25.680      1.99510E-10
  26.000      3.49040E-10
  26.400      6.21880E-10
  26.850      9.40530E-10
  27.350      1.27680E-09
  27.850      1.56090E-09
  28.400      3.12310E-09
  29.000      4.49260E-09
  29.600      5.85590E-09
  30.100      1.05550E-08
  30.800      2.23500E-08
  31.800      5.17270E-08
  32.800      7.46440E-08
  33.800      1.37570E-07
  34.800      2.14840E-07
  35.700      4.09200E-07
  36.600      7.97120E-07
  37.500      9.42380E-07
  38.500      1.30090E-06
  39.500      2.09720E-06
  40.500      2.62490E-06
  41.400      3.23890E-06
  42.200      3.68890E-06
  43.000      4.18080E-06
  44.100      5.28350E-06
  45.100      6.04260E-06
  46.000      6.46370E-06
  47.000      7.73380E-06
  48.000      9.26670E-06
  49.000      1.00750E-05
  50.000      1.24210E-05
  50.600      2.11840E-05
  51.200      1.18040E-04
  52.000      1.13920E-04
  53.000      1.05950E-04
  54.000      9.98790E-05
  55.000      1.17460E-04
  56.000      1.53050E-04
  57.000      1.66990E-04
  58.000      1.59430E-04
  59.000      1.72270E-04
  60.000      1.44910E-04
  61.000      1.76220E-04
  62.000      2.13930E-04
  63.000      2.12720E-04
  64.000      2.20670E-04
  65.000      2.23870E-04
  65.800      1.95550E-04
  66.500      2.30080E-04
  67.500      2.59260E-04
  68.500      2.14680E-04
  69.500      2.79330E-04
  70.500      2.36160E-04
  71.600      3.10820E-04
  72.600      3.11900E-04
  73.500      3.20430E-04
  74.500      3.12860E-04
  75.500      3.19710E-04
  76.500      3.28490E-04
  77.500      3.45590E-04
  78.500      3.60640E-04
  79.500      3.71090E-04
  80.500      3.65350E-04
  81.500      3.72220E-04
  82.500      3.96690E-04
  83.500      3.40460E-04
  84.500      3.97190E-04
  85.500      4.01440E-04
  86.500      4.20870E-04
  87.500      4.30450E-04
  88.500      4.43230E-04
  89.500      4.53780E-04
  90.500      4.49610E-04
  91.500      4.55710E-04
  92.500      1.15160E-03
  93.500      1.80440E-03
  94.500      2.43840E-03
  95.500      2.71790E-03
  96.500      3.16870E-03
  97.500      1.53850E-03
  98.500      2.76850E-03
  99.500      2.52790E-03
  100.50      2.66620E-03
  101.50      2.82030E-03
  102.50      2.23160E-03
  103.50      2.84430E-03
  104.50      3.24320E-03
  105.50      3.15330E-03
  106.50      2.83890E-03
  107.50      2.95820E-03
  108.50      2.75950E-03
  109.50      2.97550E-03
  110.50      2.89300E-03
  111.50      2.89760E-03
  112.50      2.51170E-03
  113.50      2.86680E-03
  114.50      2.80300E-03
  115.50      2.71330E-03
  116.50      2.66190E-03
  117.50      1.91210E-03
  118.50      2.51070E-03
  119.50      2.47650E-03
  120.50      2.41150E-03
  121.50      1.89460E-03
  122.50      2.38650E-03
  123.50      2.57150E-03
  124.50      2.52430E-03
  125.50      2.54410E-03
  126.50      2.63300E-03
  127.50      2.71980E-03
  128.50      2.74490E-03
  129.50      2.61570E-03
  130.50      2.63090E-03
  131.50      2.77340E-03
  132.50      2.71210E-03
  133.50      2.67010E-03
  134.50      2.69960E-03
  135.50      2.66110E-03
  136.50      2.60820E-03
  137.50      2.57230E-03
  138.50      2.52960E-03
  139.50      2.16430E-03
  140.50      2.20220E-03
  141.50      2.49560E-03
  142.50      2.27750E-03
  143.50      2.43760E-03
  144.20      2.43020E-03
  144.70      2.43030E-03
  145.50      2.34650E-03
  146.50      2.32890E-03
  147.50      2.35210E-03
  148.50      2.38100E-03
  149.50      2.33190E-03
  150.50      2.30640E-03
  151.20      2.27940E-03
  151.70      2.29950E-03
  152.50      2.24590E-03
  153.50      2.01230E-03
  154.50      1.75640E-03
  155.50      1.78240E-03
  156.50      1.98180E-03
  157.50      2.08510E-03
  158.50      2.11550E-03
  159.50      2.12120E-03
  160.50      2.02400E-03
  161.50      1.95880E-03
  162.50      2.02170E-03
  163.50      2.04680E-03
  164.50      2.04020E-03
  165.50      2.09340E-03
  166.50      2.07950E-03
  167.20      1.94860E-03
  167.70      2.23030E-03
  168.50      2.15090E-03
  169.50      2.10500E-03
  170.50      2.09560E-03
  171.50      2.03350E-03
  172.50      1.98160E-03
  173.50      2.06470E-03
  174.50      2.06100E-03
  175.50      2.04340E-03
  176.50      2.03620E-03
  177.50      1.99530E-03
  178.50      2.03320E-03
  179.50      2.00500E-03
  180.50      2.01610E-03
  181.50      1.98330E-03
  182.50      1.96960E-03
  183.50      1.98480E-03
  184.50      1.91350E-03
  185.50      1.94130E-03
  186.50      1.95470E-03
  187.50      1.93070E-03
  188.50      1.86520E-03
  189.50      1.85200E-03
  190.50      1.90240E-03
  191.50      1.86890E-03
  192.50      1.77910E-03
  193.50      1.87940E-03
  194.50      1.90670E-03
  195.50      1.77610E-03
  196.70      1.85640E-03
  197.60      1.89480E-03
  198.40      1.85070E-03
  199.50      1.81780E-03
  200.50      1.85850E-03
  201.50      1.86410E-03
  202.50      1.86830E-03
  203.50      1.82090E-03
  204.50      1.81140E-03
  205.50      1.48410E-03
  206.50      1.44280E-03
  207.40      1.49690E-03
  207.80      1.49190E-03
  208.50      1.57290E-03
  209.50      1.67930E-03
  210.50      1.75280E-03
  211.50      1.77750E-03
  212.50      1.75750E-03
  213.50      1.75730E-03
  214.50      1.74210E-03
  215.50      1.75540E-03
  216.50      1.69720E-03
  217.50      1.74260E-03
  218.50      1.69890E-03
  219.50      1.73980E-03
  220.50      1.72880E-03
  221.50      1.67450E-03
  222.50      1.70420E-03
  223.50      1.69290E-03
  224.50      1.67950E-03
  225.50      1.63510E-03
  226.50      1.66530E-03
  227.50      1.66040E-03
  228.50      1.63500E-03
  229.50      1.52060E-03
  230.50      1.58340E-03
  231.50      1.60150E-03
  232.50      1.60360E-03
  233.50      1.59230E-03
  234.50      1.58410E-03
  235.50      1.56770E-03
  236.50      1.55690E-03
  237.50      1.53890E-03
  238.50      1.48710E-03
  239.50      1.50980E-03
  240.50      1.51610E-03
  241.50      1.50870E-03
  242.50      1.50810E-03
  243.50      1.49340E-03
  244.50      1.48810E-03
  245.50      1.47860E-03
  246.50      1.47210E-03
  247.50      1.46340E-03
  248.50      1.44060E-03
  249.50      1.18640E-03
  250.50      1.40910E-03
  251.30      1.35060E-03
  251.80      1.38850E-03
  252.50      1.41940E-03
  253.50      1.41810E-03
  254.50      1.40150E-03
  255.50      1.39490E-03
  256.50      1.39030E-03
  257.50      1.38310E-03
  258.50      1.37690E-03
  259.50      1.36370E-03
  260.50      1.36550E-03
  261.50      1.35100E-03
  262.50      1.34980E-03
  263.50      1.34430E-03
  264.50      1.33260E-03
  265.50      1.32750E-03
  266.50      1.31080E-03
  267.50      1.29280E-03
  268.50      1.30370E-03
  269.50      1.28510E-03
  270.50      1.28430E-03
  271.50      1.27500E-03
  272.50      1.26960E-03
  273.50      1.24440E-03
  274.50      1.26270E-03
  275.50      1.25590E-03
  276.50      1.24310E-03
  277.50      1.24720E-03
  278.50      1.23600E-03
  279.50      1.20830E-03
  280.50      1.21820E-03
  281.50      1.21990E-03
  282.50      1.20890E-03
  283.50      1.19640E-03
  284.50      1.20190E-03
  285.50      1.19310E-03
  286.50      1.18340E-03
  287.50      1.17930E-03
  288.50      1.17370E-03
  289.50      1.16720E-03
  291.00      1.15360E-03
  293.00      1.14860E-03
  295.00      1.13060E-03
  297.00      1.12200E-03
  299.00      1.10470E-03
  301.00      1.09060E-03
  303.00      1.07770E-03
  305.00      1.07330E-03
  307.00      1.06720E-03
  309.00      1.04970E-03
  311.00      1.04710E-03
  313.00      1.03400E-03
  315.00      1.02600E-03
  317.00      1.01460E-03
  319.00      1.00450E-03
  321.00      9.89280E-04
  323.00      9.86660E-04
  325.00      9.80690E-04
  327.00      9.64840E-04
  329.00      9.59700E-04
  331.00      9.50400E-04
  333.00      9.39590E-04
  335.00      9.27980E-04
  337.00      9.21340E-04
  339.00      9.17660E-04
  341.00      9.08670E-04
  343.00      9.00680E-04
  345.00      8.88200E-04
  347.00      8.83090E-04
  349.00      8.75260E-04
  351.00      8.68220E-04
  353.00      8.62090E-04
  355.00      8.53620E-04
  357.00      8.48300E-04
  359.00      8.36660E-04
  361.00      8.29470E-04
  363.00      8.22240E-04
  364.00      8.17410E-04
  365.00      7.81490E-04
  367.00      7.77240E-04
  369.00      7.70910E-04
  371.00      7.56150E-04
  373.00      7.50240E-04
  375.00      7.54950E-04
  377.00      7.47900E-04
  379.00      7.75180E-04
  381.00      7.98350E-04
  383.00      7.33790E-04
  385.00      8.11050E-04
  387.00      8.05300E-04
  389.00      7.11120E-04
  391.00      8.12240E-04
  393.00      7.99450E-04
  395.00      7.89740E-04
  397.00      6.83220E-04
  399.00      7.83010E-04
  401.00      7.78860E-04
  403.00      7.54620E-04
  405.00      7.70900E-04
  407.00      7.51340E-04
  409.00      7.15790E-04
  411.00      6.63070E-04
  413.00      7.34680E-04
  415.00      7.32440E-04
  417.00      7.33670E-04
  419.00      7.26410E-04
  421.00      7.18610E-04
  423.00      7.18740E-04
  425.00      7.08070E-04
  427.00      6.99150E-04
  429.00      6.94870E-04
  431.00      6.83780E-04
  433.00      6.47500E-04
  435.00      6.10140E-04
  437.00      6.69850E-04
  439.00      6.59980E-04
  441.00      6.61440E-04
  443.00      6.61000E-04
  445.00      6.55390E-04
  447.00      6.36020E-04
  449.00      6.45900E-04
  451.00      6.38490E-04
  453.00      6.35970E-04
  455.00      6.26140E-04
  457.00      6.28050E-04
  459.00      6.21490E-04
  461.00      6.16040E-04
  463.00      6.07880E-04
  465.00      5.86390E-04
  467.00      6.00250E-04
  469.00      5.89410E-04
  471.00      5.88190E-04
  473.00      5.93700E-04
  475.00      5.88770E-04
  477.00      5.86420E-04
  479.00      5.81950E-04
  481.00      5.76760E-04
  483.00      5.69840E-04
  485.00      5.45030E-04
  487.00      5.03140E-04
  489.00      5.57220E-04
  491.00      5.55160E-04
  493.00      5.43730E-04
  495.00      5.46680E-04
  497.00      5.45630E-04
  499.00      5.41690E-04
  501.00      5.30130E-04
  503.00      5.32650E-04
  505.00      5.27870E-04
  507.00      5.26760E-04
  509.00      5.22850E-04
  511.00      5.19060E-04
  513.00      5.15010E-04
  515.00      5.11510E-04
  517.00      5.08110E-04
  519.00      5.05070E-04
  521.00      5.01840E-04
  523.00      4.98460E-04
  525.00      4.94090E-04
  527.00      4.90700E-04
  529.00      4.88510E-04
  531.00      4.85140E-04
  533.00      4.81960E-04
  535.00      4.78820E-04
  537.00      4.75630E-04
  539.00      4.72310E-04
  541.00      4.64930E-04
  543.00      4.66350E-04
  545.00      4.63270E-04
  547.00      4.60180E-04
  549.00      4.57210E-04
  551.00      4.54220E-04
  553.00      4.51290E-04
  555.00      4.48610E-04
  557.00      4.45590E-04
  559.00      4.42050E-04
  561.00      4.40100E-04
  563.00      4.37320E-04
  565.00      4.34370E-04
  567.00      4.31100E-04
  569.00      4.23920E-04
  571.00      4.16870E-04
  573.00      4.14600E-04
  575.00      4.11650E-04
  577.00      4.09880E-04
  579.00      4.07320E-04
  581.00      4.04370E-04
  583.00      4.01790E-04
  585.00      4.00730E-04
  587.00      3.90670E-04
  589.00      3.96090E-04
  591.00      3.95160E-04
  593.00      3.93500E-04
  595.00      3.91970E-04
  597.00      3.91060E-04
  599.00      3.89230E-04
  601.00      3.87880E-04
  603.00      3.85810E-04
  605.00      3.83970E-04
  607.00      3.81880E-04
  609.00      3.79700E-04
  611.00      3.77330E-04
  613.00      3.75230E-04
  615.00      3.72520E-04
  617.00      3.70460E-04
  619.00      3.68660E-04
  621.00      3.66640E-04
  623.00      3.64420E-04
  625.00      3.62140E-04
  627.00      3.60220E-04
  629.00      3.58240E-04
  631.00      3.55810E-04
  633.00      3.54140E-04
  635.00      3.51940E-04
  637.00      3.50150E-04
  639.00      3.48140E-04
  641.00      3.45840E-04
  643.00      3.44260E-04
  645.00      3.42160E-04
  647.00      3.39810E-04
  649.00      3.38090E-04
  651.00      3.36120E-04
  653.00      3.32850E-04
  655.00      3.24830E-04
  657.00      2.96570E-04
  659.00      3.26490E-04
  661.00      3.27010E-04
  663.00      3.25510E-04
  665.00      3.23680E-04
  667.00      3.18950E-04
  669.00      3.16910E-04
  671.00      3.17990E-04
  673.00      3.16100E-04
  675.00      3.14720E-04
  677.00      3.13380E-04
  679.00      3.11190E-04
  681.00      3.10030E-04
  683.00      3.08340E-04
  685.00      3.06730E-04
  687.00      3.05000E-04
  689.00      3.02410E-04
  691.00      3.01430E-04
  693.00      3.00360E-04
  695.00      2.98780E-04
  697.00      2.97210E-04
  699.00      2.95630E-04
  701.00      2.93940E-04
  703.00      2.92040E-04
  705.00      2.90810E-04
  707.00      2.85920E-04
  709.00      2.88030E-04
  711.00      2.86420E-04
  713.00      2.84990E-04
  715.00      2.83620E-04
  717.00      2.81590E-04
  719.00      2.80420E-04
  721.00      2.79300E-04
  723.00      2.76470E-04
  725.00      2.76250E-04
  727.00      2.75070E-04
  729.00      2.72050E-04
  731.00      2.72230E-04
  733.00      2.70910E-04
  735.00      2.69570E-04
  737.00      2.68230E-04
  739.00      2.66910E-04
  741.00      2.65560E-04
  743.00      2.64260E-04
  745.00      2.62900E-04
  747.00      2.61350E-04
  749.00      2.59840E-04
  751.00      2.59030E-04
  753.00      2.57770E-04
  755.00      2.56580E-04
  757.00      2.55290E-04
  759.00      2.53050E-04
  761.00      2.52530E-04
  763.00      2.51520E-04
  765.00      2.50340E-04
  767.00      2.49210E-04
  769.00      2.47690E-04
  771.00      2.46640E-04
  773.00      2.45200E-04
  775.00      2.44440E-04
  777.00      2.43300E-04
  779.00      2.42170E-04
  781.00      2.40950E-04
  783.00      2.39880E-04
  785.00      2.38770E-04
  787.00      2.37480E-04
  789.00      2.36330E-04
  791.00      2.35440E-04
  793.00      2.34300E-04
  795.00      2.33330E-04
  797.00      2.32110E-04
  799.00      2.31120E-04
  801.00      2.30010E-04
  803.00      2.28890E-04
  805.00      2.27950E-04
  807.00      2.26900E-04
  809.00      2.25670E-04
  811.00      2.24130E-04
  813.00      2.23760E-04
  815.00      2.22560E-04
  817.00      2.21700E-04
  819.00      2.20060E-04
  821.00      2.17240E-04
  823.00      2.15740E-04
  825.00      2.15540E-04
  827.00      2.13880E-04
  829.00      2.13700E-04
  831.00      2.12920E-04
  833.00      2.11650E-04
  835.00      2.10140E-04
  837.00      2.09790E-04
  839.00      2.09190E-04
  841.00      2.08230E-04
  843.00      2.07340E-04
  845.00      2.05680E-04
  847.00      2.05560E-04
  849.00      2.04480E-04
  851.00      2.03100E-04
  853.00      2.02730E-04
  855.00      2.01420E-04
  857.00      2.01870E-04
  859.00      1.98380E-04
  861.00      1.98570E-04
  863.00      2.00170E-04
  865.00      1.97310E-04
  867.00      1.92710E-04
  869.00      1.97740E-04
  871.00      1.98180E-04
  873.00      1.94920E-04
  875.00      1.85890E-04
  877.00      1.91870E-04
  879.00      1.95610E-04
  881.00      1.95470E-04
  883.00      1.93890E-04
  885.00      1.86300E-04
  887.00      1.78500E-04
  889.00      1.90150E-04
  891.00      1.91640E-04
  893.00      1.91150E-04
  895.00      1.90490E-04
  897.00      1.89510E-04
  899.00      1.85880E-04
  901.00      1.72250E-04
  903.00      1.77830E-04
  905.00      1.85320E-04
  907.00      1.84550E-04
  909.00      1.84960E-04
  911.00      1.84880E-04
  913.00      1.84180E-04
  915.00      1.83480E-04
  917.00      1.82040E-04
  919.00      1.80810E-04
  921.00      1.75070E-04
  923.00      1.60600E-04
  925.00      1.73560E-04
  927.00      1.77670E-04
  929.00      1.77780E-04
  931.00      1.76910E-04
  933.00      1.76600E-04
  935.00      1.74860E-04
  937.00      1.75240E-04
  939.00      1.74660E-04
  941.00      1.73830E-04
  943.00      1.73190E-04
  945.00      1.72500E-04
  947.00      1.71150E-04
  949.00      1.70700E-04
  951.00      1.68240E-04
  953.00      1.62790E-04
  955.00      1.49830E-04
  957.00      1.64050E-04
  959.00      1.66840E-04
  961.00      1.66510E-04
  963.00      1.65760E-04
  965.00      1.65900E-04
  967.00      1.65290E-04
  969.00      1.64540E-04
  971.00      1.61670E-04
  973.00      1.63040E-04
  975.00      1.62700E-04
  977.00      1.62060E-04
  979.00      1.61440E-04
  981.00      1.60780E-04
  983.00      1.60200E-04
  985.00      1.59550E-04
  987.00      1.58930E-04
  989.00      1.58200E-04
  991.00      1.57250E-04
  993.00      1.57150E-04
  995.00      1.56560E-04
  997.00      1.55870E-04
  999.00      1.55030E-04
  1002.5      1.48980E-04
  1007.5      1.45850E-04
  1012.5      1.49950E-04
  1017.5      1.50060E-04
  1022.5      1.48600E-04
  1027.5      1.47270E-04
  1032.5      1.45470E-04
  1037.5      1.44610E-04
  1042.5      1.43240E-04
  1047.5      1.41990E-04
  1052.5      1.40690E-04
  1057.5      1.39440E-04
  1062.5      1.38190E-04
  1067.5      1.36800E-04
  1072.5      1.35750E-04
  1077.5      1.34540E-04
  1082.5      1.32300E-04
  1087.5      1.31810E-04
  1092.5      1.22540E-04
  1097.5      1.27460E-04
  1102.5      1.28210E-04
  1107.5      1.27600E-04
  1112.5      1.26570E-04
  1117.5      1.25510E-04
  1122.5      1.24400E-04
  1127.5      1.23380E-04
  1132.5      1.22290E-04
  1137.5      1.21290E-04
  1142.5      1.20280E-04
  1147.5      1.19290E-04
  1152.5      1.18320E-04
  1157.5      1.17320E-04
  1162.5      1.16060E-04
  1167.5      1.15240E-04
  1172.5      1.14490E-04
  1177.5      1.13550E-04
  1182.5      1.12610E-04
  1187.5      1.11720E-04
  1192.5      1.10820E-04
  1197.5      1.08950E-04
  1202.5      1.09070E-04
  1207.5      1.08200E-04
  1212.5      1.07320E-04
  1217.5      1.06500E-04
  1222.5      1.05670E-04
  1227.5      1.04850E-04
  1232.5      1.04020E-04
  1237.5      1.03220E-04
  1242.5      1.02430E-04
  1247.5      1.01630E-04
  1252.5      1.00680E-04
  1257.5      1.00060E-04
  1262.5      9.93170E-05
  1267.5      9.85790E-05
  1272.5      9.77980E-05
  1277.5      9.56690E-05
  1282.5      9.00470E-05
  1287.5      9.51100E-05
  1292.5      9.49360E-05
  1297.5      9.37560E-05
  1302.5      9.35070E-05
  1307.5      9.28580E-05
  1312.5      9.21790E-05
  1317.5      9.15060E-05
  1322.5      9.08400E-05
  1327.5      9.01820E-05
  1332.5      8.95210E-05
  1337.5      8.88630E-05
  1342.5      8.81850E-05
  1347.5      8.76100E-05
  1352.5      8.69660E-05
  1357.5      8.63730E-05
  1362.5      8.57230E-05
  1367.5      8.51590E-05
  1372.5      8.45190E-05
  1377.5      8.39740E-05
  1382.5      8.33890E-05
  1387.5      8.28060E-05
  1392.5      8.22040E-05
  1397.5      8.16620E-05
