 Castelli and Kurucz 2004-2012 Atmosphere
 T     41000.     G    5.00000 [0.0] VTURB=2  L/H=1.25 NOVER NEW ODF           
 Wavelength  Eddington Hnu
   (nm)    (ergs/s/cm2/Hz/sr)
  9.0900      5.68320E-24
  9.3500      1.98690E-23
  9.6100      6.45070E-23
  9.7700      1.31030E-22
  9.9600      2.92620E-22
  10.200      7.75260E-22
  10.380      1.56710E-21
  10.560      3.09650E-21
  10.770      6.67060E-21
  11.040      1.71850E-20
  11.400      5.68440E-20
  11.780      1.86900E-19
  12.130      5.26860E-19
  12.480      1.40610E-18
  12.710      2.60910E-18
  12.840      3.66670E-18
  13.050      6.26490E-18
  13.240      1.00410E-17
  13.390      1.44630E-17
  13.660      2.73050E-17
  13.980      5.67940E-17
  14.330      1.21560E-16
  14.720      2.69430E-16
  15.100      5.82330E-16
  15.520      1.28910E-15
  15.880      2.47360E-15
  16.200      4.31370E-15
  16.600      8.49010E-15
  17.030      1.68590E-14
  17.340      2.72010E-14
  17.680      4.54220E-14
  18.020      7.41690E-14
  18.170      9.11310E-14
  18.610      1.67700E-13
  19.100      3.18770E-13
  19.390      4.60970E-13
  19.840      7.97750E-13
  20.180      1.18480E-12
  20.500      1.71020E-12
  21.050      3.12500E-12
  21.620      5.63000E-12
  21.980      8.12010E-12
  22.300      1.10580E-11
  22.680      1.58200E-11
  23.000      6.02350E-09
  23.400      2.18200E-08
  24.000      3.31960E-08
  24.650      5.05790E-08
  25.240      8.75320E-08
  25.680      1.18840E-07
  26.000      1.60580E-07
  26.400      7.42120E-07
  26.850      1.02280E-06
  27.350      1.31100E-06
  27.850      9.30520E-07
  28.400      2.32280E-06
  29.000      3.51590E-06
  29.600      2.73530E-06
  30.100      3.99690E-06
  30.800      2.05550E-05
  31.800      1.10070E-05
  32.800      1.90050E-05
  33.800      1.79620E-05
  34.800      2.19820E-05
  35.700      5.67350E-05
  36.600      1.15070E-04
  37.500      1.52250E-04
  38.500      1.52130E-04
  39.500      2.46560E-04
  40.500      3.57400E-04
  41.400      3.46690E-04
  42.200      3.46140E-04
  43.000      3.28880E-04
  44.100      3.94190E-04
  45.100      4.26280E-04
  46.000      3.72400E-04
  47.000      4.04110E-04
  48.000      4.71030E-04
  49.000      3.83560E-04
  50.000      5.04420E-04
  50.600      4.41550E-04
  51.200      9.18230E-04
  52.000      8.68140E-04
  53.000      8.11320E-04
  54.000      7.32740E-04
  55.000      7.14730E-04
  56.000      9.69760E-04
  57.000      1.07840E-03
  58.000      1.05870E-03
  59.000      1.10280E-03
  60.000      9.39380E-04
  61.000      9.79930E-04
  62.000      1.22940E-03
  63.000      1.19080E-03
  64.000      1.30140E-03
  65.000      1.25880E-03
  65.800      1.12730E-03
  66.500      1.31250E-03
  67.500      1.42300E-03
  68.500      1.24500E-03
  69.500      1.44330E-03
  70.500      1.25680E-03
  71.600      1.53240E-03
  72.600      1.56000E-03
  73.500      1.59550E-03
  74.500      1.53370E-03
  75.500      1.54280E-03
  76.500      1.48290E-03
  77.500      1.57930E-03
  78.500      1.51980E-03
  79.500      1.62400E-03
  80.500      1.63300E-03
  81.500      1.65990E-03
  82.500      1.70060E-03
  83.500      1.50870E-03
  84.500      1.69940E-03
  85.500      1.67720E-03
  86.500      1.74940E-03
  87.500      1.76680E-03
  88.500      1.76830E-03
  89.500      1.78160E-03
  90.500      1.75810E-03
  91.500      1.39790E-03
  92.500      2.35450E-03
  93.500      3.28420E-03
  94.500      4.09900E-03
  95.500      4.64880E-03
  96.500      5.38450E-03
  97.500      3.65760E-03
  98.500      4.95740E-03
  99.500      4.45920E-03
  100.50      4.61300E-03
  101.50      4.82970E-03
  102.50      4.00840E-03
  103.50      5.00400E-03
  104.50      5.33250E-03
  105.50      5.25010E-03
  106.50      4.93750E-03
  107.50      5.05990E-03
  108.50      4.66970E-03
  109.50      5.00730E-03
  110.50      4.88080E-03
  111.50      4.88460E-03
  112.50      4.60940E-03
  113.50      4.86920E-03
  114.50      4.87050E-03
  115.50      4.62160E-03
  116.50      4.45560E-03
  117.50      3.79340E-03
  118.50      4.31210E-03
  119.50      4.20670E-03
  120.50      4.16140E-03
  121.50      3.36180E-03
  122.50      4.02930E-03
  123.50      4.16490E-03
  124.50      4.13100E-03
  125.50      4.17930E-03
  126.50      4.25920E-03
  127.50      4.33840E-03
  128.50      4.35080E-03
  129.50      4.29160E-03
  130.50      4.23100E-03
  131.50      4.31300E-03
  132.50      4.26440E-03
  133.50      4.23220E-03
  134.50      4.22930E-03
  135.50      4.12110E-03
  136.50      4.03280E-03
  137.50      3.94720E-03
  138.50      3.93680E-03
  139.50      3.76170E-03
  140.50      3.65680E-03
  141.50      3.95690E-03
  142.50      3.66470E-03
  143.50      3.85950E-03
  144.20      3.76550E-03
  144.70      3.77680E-03
  145.50      3.67740E-03
  146.50      3.69660E-03
  147.50      3.68840E-03
  148.50      3.74850E-03
  149.50      3.67730E-03
  150.50      3.69680E-03
  151.20      3.69430E-03
  151.70      3.65830E-03
  152.50      3.62320E-03
  153.50      3.35900E-03
  154.50      2.88540E-03
  155.50      2.96870E-03
  156.50      3.23460E-03
  157.50      3.34150E-03
  158.50      3.33550E-03
  159.50      3.36090E-03
  160.50      3.21450E-03
  161.50      3.13860E-03
  162.50      3.19520E-03
  163.50      3.18390E-03
  164.50      3.11480E-03
  165.50      3.25370E-03
  166.50      3.22140E-03
  167.20      3.06060E-03
  167.70      3.35160E-03
  168.50      3.29080E-03
  169.50      3.26200E-03
  170.50      3.21550E-03
  171.50      3.12340E-03
  172.50      3.08380E-03
  173.50      3.18460E-03
  174.50      3.17540E-03
  175.50      3.12950E-03
  176.50      3.11720E-03
  177.50      3.07390E-03
  178.50      3.10750E-03
  179.50      3.04760E-03
  180.50      3.03830E-03
  181.50      3.01650E-03
  182.50      2.98010E-03
  183.50      2.99350E-03
  184.50      2.97490E-03
  185.50      2.96980E-03
  186.50      2.96000E-03
  187.50      2.90990E-03
  188.50      2.88130E-03
  189.50      2.91280E-03
  190.50      2.90760E-03
  191.50      2.88360E-03
  192.50      2.77650E-03
  193.50      2.86230E-03
  194.50      2.85550E-03
  195.50      2.76230E-03
  196.70      2.80050E-03
  197.60      2.79020E-03
  198.40      2.78500E-03
  199.50      2.75450E-03
  200.50      2.76170E-03
  201.50      2.74300E-03
  202.50      2.72450E-03
  203.50      2.69760E-03
  204.50      2.66990E-03
  205.50      2.00850E-03
  206.50      1.93140E-03
  207.40      1.97280E-03
  207.80      2.01090E-03
  208.50      2.13320E-03
  209.50      2.37680E-03
  210.50      2.53910E-03
  211.50      2.57530E-03
  212.50      2.53930E-03
  213.50      2.53880E-03
  214.50      2.52340E-03
  215.50      2.53990E-03
  216.50      2.41820E-03
  217.50      2.53100E-03
  218.50      2.42060E-03
  219.50      2.51090E-03
  220.50      2.49720E-03
  221.50      2.37100E-03
  222.50      2.46330E-03
  223.50      2.45330E-03
  224.50      2.42560E-03
  225.50      2.31800E-03
  226.50      2.40210E-03
  227.50      2.39630E-03
  228.50      2.35940E-03
  229.50      2.28780E-03
  230.50      2.24460E-03
  231.50      2.30660E-03
  232.50      2.31250E-03
  233.50      2.29960E-03
  234.50      2.27670E-03
  235.50      2.25180E-03
  236.50      2.23490E-03
  237.50      2.20690E-03
  238.50      2.09260E-03
  239.50      2.16440E-03
  240.50      2.16620E-03
  241.50      2.15950E-03
  242.50      2.16370E-03
  243.50      2.14420E-03
  244.50      2.13350E-03
  245.50      2.11250E-03
  246.50      2.10740E-03
  247.50      2.10220E-03
  248.50      2.07360E-03
  249.50      1.84890E-03
  250.50      2.03460E-03
  251.30      1.88780E-03
  251.80      1.99110E-03
  252.50      2.01840E-03
  253.50      2.02370E-03
  254.50      2.01300E-03
  255.50      1.99760E-03
  256.50      1.98790E-03
  257.50      1.97520E-03
  258.50      1.96480E-03
  259.50      1.93180E-03
  260.50      1.94330E-03
  261.50      1.91990E-03
  262.50      1.92180E-03
  263.50      1.91340E-03
  264.50      1.89580E-03
  265.50      1.89010E-03
  266.50      1.87520E-03
  267.50      1.84450E-03
  268.50      1.85120E-03
  269.50      1.83680E-03
  270.50      1.83820E-03
  271.50      1.82190E-03
  272.50      1.81050E-03
  273.50      1.74140E-03
  274.50      1.79710E-03
  275.50      1.78490E-03
  276.50      1.77250E-03
  277.50      1.76580E-03
  278.50      1.74920E-03
  279.50      1.72600E-03
  280.50      1.73100E-03
  281.50      1.72530E-03
  282.50      1.71240E-03
  283.50      1.70500E-03
  284.50      1.70060E-03
  285.50      1.69030E-03
  286.50      1.67460E-03
  287.50      1.66790E-03
  288.50      1.66130E-03
  289.50      1.65020E-03
  291.00      1.63470E-03
  293.00      1.62190E-03
  295.00      1.60200E-03
  297.00      1.58270E-03
  299.00      1.55870E-03
  301.00      1.54280E-03
  303.00      1.51890E-03
  305.00      1.51030E-03
  307.00      1.49570E-03
  309.00      1.48360E-03
  311.00      1.47060E-03
  313.00      1.45380E-03
  315.00      1.44310E-03
  317.00      1.42680E-03
  319.00      1.41290E-03
  321.00      1.37450E-03
  323.00      1.38720E-03
  325.00      1.37530E-03
  327.00      1.34950E-03
  329.00      1.34480E-03
  331.00      1.33040E-03
  333.00      1.31710E-03
  335.00      1.29720E-03
  337.00      1.29010E-03
  339.00      1.28050E-03
  341.00      1.26750E-03
  343.00      1.25890E-03
  345.00      1.23980E-03
  347.00      1.23480E-03
  349.00      1.22420E-03
  351.00      1.21360E-03
  353.00      1.20060E-03
  355.00      1.18900E-03
  357.00      1.18000E-03
  359.00      1.16740E-03
  361.00      1.15490E-03
  363.00      1.14430E-03
  364.00      1.12110E-03
  365.00      1.02440E-03
  367.00      1.01690E-03
  369.00      1.00950E-03
  371.00      1.00100E-03
  373.00      1.00880E-03
  375.00      1.01720E-03
  377.00      1.02230E-03
  379.00      1.04700E-03
  381.00      1.07080E-03
  383.00      1.01210E-03
  385.00      1.07500E-03
  387.00      1.07580E-03
  389.00      9.72220E-04
  391.00      1.07220E-03
  393.00      1.05890E-03
  395.00      1.04860E-03
  397.00      9.32800E-04
  399.00      1.03540E-03
  401.00      1.03100E-03
  403.00      1.00090E-03
  405.00      1.01950E-03
  407.00      1.00360E-03
  409.00      9.58150E-04
  411.00      8.99710E-04
  413.00      9.77500E-04
  415.00      9.72990E-04
  417.00      9.70030E-04
  419.00      9.56130E-04
  421.00      9.38160E-04
  423.00      9.48490E-04
  425.00      9.38980E-04
  427.00      9.30980E-04
  429.00      9.23320E-04
  431.00      9.10970E-04
  433.00      8.65000E-04
  435.00      8.26260E-04
  437.00      8.89420E-04
  439.00      8.77380E-04
  441.00      8.75290E-04
  443.00      8.72240E-04
  445.00      8.64750E-04
  447.00      8.46570E-04
  449.00      8.51940E-04
  451.00      8.40820E-04
  453.00      8.34310E-04
  455.00      8.12850E-04
  457.00      8.25330E-04
  459.00      8.17930E-04
  461.00      8.12740E-04
  463.00      8.01940E-04
  465.00      7.79910E-04
  467.00      7.91410E-04
  469.00      7.61410E-04
  471.00      7.79990E-04
  473.00      7.80170E-04
  475.00      7.74440E-04
  477.00      7.68660E-04
  479.00      7.62800E-04
  481.00      7.56980E-04
  483.00      7.48800E-04
  485.00      7.18940E-04
  487.00      6.74490E-04
  489.00      7.30890E-04
  491.00      7.28570E-04
  493.00      7.18130E-04
  495.00      7.18590E-04
  497.00      7.14460E-04
  499.00      7.09510E-04
  501.00      7.00130E-04
  503.00      6.98320E-04
  505.00      6.93000E-04
  507.00      6.89450E-04
  509.00      6.84680E-04
  511.00      6.79950E-04
  513.00      6.75040E-04
  515.00      6.70330E-04
  517.00      6.65660E-04
  519.00      6.61130E-04
  521.00      6.56630E-04
  523.00      6.52260E-04
  525.00      6.46750E-04
  527.00      6.42120E-04
  529.00      6.39000E-04
  531.00      6.34660E-04
  533.00      6.30320E-04
  535.00      6.26170E-04
  537.00      6.21960E-04
  539.00      6.17750E-04
  541.00      5.99780E-04
  543.00      6.09280E-04
  545.00      6.05640E-04
  547.00      6.01530E-04
  549.00      5.97650E-04
  551.00      5.93190E-04
  553.00      5.89860E-04
  555.00      5.86060E-04
  557.00      5.81980E-04
  559.00      5.76790E-04
  561.00      5.74770E-04
  563.00      5.71070E-04
  565.00      5.67380E-04
  567.00      5.63720E-04
  569.00      5.51790E-04
  571.00      5.21950E-04
  573.00      5.18920E-04
  575.00      5.15820E-04
  577.00      5.13000E-04
  579.00      5.10120E-04
  581.00      5.05540E-04
  583.00      5.04720E-04
  585.00      5.03630E-04
  587.00      4.96740E-04
  589.00      5.01230E-04
  591.00      5.00860E-04
  593.00      5.00580E-04
  595.00      5.00640E-04
  597.00      5.01010E-04
  599.00      5.01640E-04
  601.00      5.01400E-04
  603.00      5.00620E-04
  605.00      5.00160E-04
  607.00      4.97440E-04
  609.00      4.94870E-04
  611.00      4.92110E-04
  613.00      4.89580E-04
  615.00      4.86810E-04
  617.00      4.83070E-04
  619.00      4.81430E-04
  621.00      4.78760E-04
  623.00      4.74540E-04
  625.00      4.72710E-04
  627.00      4.70390E-04
  629.00      4.67660E-04
  631.00      4.62890E-04
  633.00      4.62000E-04
  635.00      4.59510E-04
  637.00      4.56960E-04
  639.00      4.54030E-04
  641.00      4.49070E-04
  643.00      4.49150E-04
  645.00      4.46320E-04
  647.00      4.43690E-04
  649.00      4.41430E-04
  651.00      4.38110E-04
  653.00      4.31960E-04
  655.00      4.24630E-04
  657.00      3.94280E-04
  659.00      4.26980E-04
  661.00      4.26760E-04
  663.00      4.24570E-04
  665.00      4.22210E-04
  667.00      4.16520E-04
  669.00      4.11190E-04
  671.00      4.14510E-04
  673.00      4.12550E-04
  675.00      4.10310E-04
  677.00      4.08440E-04
  679.00      4.06320E-04
  681.00      4.04140E-04
  683.00      4.01960E-04
  685.00      3.99750E-04
  687.00      3.97420E-04
  689.00      3.90270E-04
  691.00      3.92870E-04
  693.00      3.91310E-04
  695.00      3.89230E-04
  697.00      3.87170E-04
  699.00      3.85090E-04
  701.00      3.82880E-04
  703.00      3.80460E-04
  705.00      3.78780E-04
  707.00      3.74260E-04
  709.00      3.75120E-04
  711.00      3.73120E-04
  713.00      3.71180E-04
  715.00      3.69310E-04
  717.00      3.63800E-04
  719.00      3.63170E-04
  721.00      3.63630E-04
  723.00      3.61660E-04
  725.00      3.59900E-04
  727.00      3.58080E-04
  729.00      3.55190E-04
  731.00      3.54270E-04
  733.00      3.52660E-04
  735.00      3.50880E-04
  737.00      3.49030E-04
  739.00      3.47360E-04
  741.00      3.45530E-04
  743.00      3.43900E-04
  745.00      3.41930E-04
  747.00      3.40420E-04
  749.00      3.38060E-04
  751.00      3.36990E-04
  753.00      3.35430E-04
  755.00      3.33750E-04
  757.00      3.32060E-04
  759.00      3.24820E-04
  761.00      3.28180E-04
  763.00      3.27210E-04
  765.00      3.25630E-04
  767.00      3.24120E-04
  769.00      3.22050E-04
  771.00      3.20760E-04
  773.00      3.18830E-04
  775.00      3.17810E-04
  777.00      3.16410E-04
  779.00      3.14890E-04
  781.00      3.13360E-04
  783.00      3.11860E-04
  785.00      3.10020E-04
  787.00      3.08760E-04
  789.00      3.07400E-04
  791.00      3.06070E-04
  793.00      3.04650E-04
  795.00      3.03220E-04
  797.00      3.01600E-04
  799.00      3.00360E-04
  801.00      2.98980E-04
  803.00      2.97420E-04
  805.00      2.96210E-04
  807.00      2.94840E-04
  809.00      2.93480E-04
  811.00      2.92060E-04
  813.00      2.90780E-04
  815.00      2.89440E-04
  817.00      2.87920E-04
  819.00      2.85600E-04
  821.00      2.74970E-04
  823.00      2.71770E-04
  825.00      2.72070E-04
  827.00      2.71290E-04
  829.00      2.70320E-04
  831.00      2.69240E-04
  833.00      2.67690E-04
  835.00      2.66480E-04
  837.00      2.65680E-04
  839.00      2.64700E-04
  841.00      2.63630E-04
  843.00      2.62580E-04
  845.00      2.61310E-04
  847.00      2.60560E-04
  849.00      2.59640E-04
  851.00      2.58370E-04
  853.00      2.57870E-04
  855.00      2.56920E-04
  857.00      2.56360E-04
  859.00      2.54810E-04
  861.00      2.54440E-04
  863.00      2.54450E-04
  865.00      2.52990E-04
  867.00      2.50840E-04
  869.00      2.52350E-04
  871.00      2.52220E-04
  873.00      2.50450E-04
  875.00      2.46050E-04
  877.00      2.48360E-04
  879.00      2.49960E-04
  881.00      2.49770E-04
  883.00      2.48670E-04
  885.00      2.43540E-04
  887.00      2.38370E-04
  889.00      2.45000E-04
  891.00      2.45980E-04
  893.00      2.45420E-04
  895.00      2.44680E-04
  897.00      2.43460E-04
  899.00      2.40030E-04
  901.00      2.29390E-04
  903.00      2.32760E-04
  905.00      2.38340E-04
  907.00      2.38040E-04
  909.00      2.37900E-04
  911.00      2.37070E-04
  913.00      2.36530E-04
  915.00      2.35630E-04
  917.00      2.33970E-04
  919.00      2.32310E-04
  921.00      2.27080E-04
  923.00      2.14520E-04
  925.00      2.24740E-04
  927.00      2.28330E-04
  929.00      2.28340E-04
  931.00      2.27640E-04
  933.00      2.26610E-04
  935.00      2.20770E-04
  937.00      2.24390E-04
  939.00      2.24260E-04
  941.00      2.23290E-04
  943.00      2.22510E-04
  945.00      2.21670E-04
  947.00      2.20390E-04
  949.00      2.19320E-04
  951.00      2.16860E-04
  953.00      2.11330E-04
  955.00      1.99050E-04
  957.00      2.11580E-04
  959.00      2.14310E-04
  961.00      2.14180E-04
  963.00      2.13450E-04
  965.00      2.13080E-04
  967.00      2.12270E-04
  969.00      2.11400E-04
  971.00      2.08670E-04
  973.00      2.09510E-04
  975.00      2.08690E-04
  977.00      2.07280E-04
  979.00      2.07330E-04
  981.00      2.06540E-04
  983.00      2.05670E-04
  985.00      2.04930E-04
  987.00      2.04160E-04
  989.00      2.03330E-04
  991.00      2.02490E-04
  993.00      2.01810E-04
  995.00      2.01040E-04
  997.00      2.00240E-04
  999.00      1.99050E-04
  1002.5      1.92750E-04
  1007.5      1.89040E-04
  1012.5      1.90850E-04
  1017.5      1.92650E-04
  1022.5      1.90820E-04
  1027.5      1.89020E-04
  1032.5      1.86960E-04
  1037.5      1.85610E-04
  1042.5      1.83180E-04
  1047.5      1.82250E-04
  1052.5      1.80590E-04
  1057.5      1.78970E-04
  1062.5      1.77360E-04
  1067.5      1.75710E-04
  1072.5      1.74210E-04
  1077.5      1.72670E-04
  1082.5      1.70290E-04
  1087.5      1.69180E-04
  1092.5      1.59420E-04
  1097.5      1.63990E-04
  1102.5      1.64910E-04
  1107.5      1.63790E-04
  1112.5      1.62410E-04
  1117.5      1.61090E-04
  1122.5      1.59690E-04
  1127.5      1.58340E-04
  1132.5      1.56990E-04
  1137.5      1.55680E-04
  1142.5      1.54390E-04
  1147.5      1.53100E-04
  1152.5      1.51830E-04
  1157.5      1.50550E-04
  1162.5      1.47650E-04
  1167.5      1.47040E-04
  1172.5      1.46890E-04
  1177.5      1.45700E-04
  1182.5      1.44480E-04
  1187.5      1.43330E-04
  1192.5      1.42180E-04
  1197.5      1.40360E-04
  1202.5      1.39930E-04
  1207.5      1.38790E-04
  1212.5      1.37660E-04
  1217.5      1.36620E-04
  1222.5      1.35550E-04
  1227.5      1.34490E-04
  1232.5      1.33440E-04
  1237.5      1.32400E-04
  1242.5      1.31380E-04
  1247.5      1.30360E-04
  1252.5      1.29280E-04
  1257.5      1.28360E-04
  1262.5      1.27390E-04
  1267.5      1.26420E-04
  1272.5      1.25440E-04
  1277.5      1.23110E-04
  1282.5      1.16670E-04
  1287.5      1.22030E-04
  1292.5      1.21740E-04
  1297.5      1.20610E-04
  1302.5      1.19930E-04
  1307.5      1.19060E-04
  1312.5      1.18180E-04
  1317.5      1.17320E-04
  1322.5      1.16460E-04
  1327.5      1.15620E-04
  1332.5      1.14780E-04
  1337.5      1.13950E-04
  1342.5      1.13100E-04
  1347.5      1.12310E-04
  1352.5      1.11510E-04
  1357.5      1.10720E-04
  1362.5      1.09930E-04
  1367.5      1.09160E-04
  1372.5      1.08370E-04
  1377.5      1.07630E-04
  1382.5      1.06870E-04
  1387.5      1.06130E-04
  1392.5      1.05380E-04
  1397.5      1.04660E-04
