 Castelli and Kurucz 2004-2012 Atmosphere
 T     33000.     G    5.00000 [0.0] VTURB=2  L/H=1.25 NOVER NEW ODF           
 Wavelength  Eddington Hnu
   (nm)    (ergs/s/cm2/Hz/sr)
  9.0900      1.06210E-31
  9.3500      5.86740E-31
  9.6100      2.97080E-30
  9.7700      7.74620E-30
  9.9600      2.32860E-29
  10.200      8.85720E-29
  10.380      2.32720E-28
  10.560      5.93200E-28
  10.770      1.70450E-27
  11.040      6.27390E-27
  11.400      3.26680E-26
  11.780      1.69150E-25
  12.130      7.07780E-25
  12.480      2.75130E-24
  12.710      6.46830E-24
  12.840      1.03560E-23
  13.050      2.17390E-23
  13.240      4.17660E-23
  13.390      6.90710E-23
  13.660      1.66640E-22
  13.980      4.54330E-22
  14.330      1.29670E-21
  14.720      3.94610E-21
  15.100      1.10820E-20
  15.520      3.28030E-20
  15.880      7.96770E-20
  16.200      1.69850E-19
  16.600      4.20910E-19
  17.030      1.06450E-18
  17.340      2.02750E-18
  17.680      4.00720E-18
  18.020      7.71590E-18
  18.170      1.02420E-17
  18.610      2.28330E-17
  19.100      5.35180E-17
  19.390      8.68560E-17
  19.840      1.79450E-16
  20.180      3.03910E-16
  20.500      4.91340E-16
  21.050      1.08750E-15
  21.620      2.37240E-15
  21.980      3.81950E-15
  22.300      5.75210E-15
  22.680      9.29670E-15
  23.000      2.59590E-12
  23.400      6.15270E-12
  24.000      1.04660E-11
  24.650      1.87050E-11
  25.240      3.16380E-11
  25.680      4.38480E-11
  26.000      7.12240E-11
  26.400      1.07750E-10
  26.850      1.61040E-10
  27.350      2.29930E-10
  27.850      3.07960E-10
  28.400      6.17660E-10
  29.000      9.16900E-10
  29.600      1.27310E-09
  30.100      1.81310E-09
  30.800      3.62620E-09
  31.800      7.71680E-09
  32.800      1.18910E-08
  33.800      2.10200E-08
  34.800      3.35220E-08
  35.700      6.87900E-08
  36.600      1.26120E-07
  37.500      1.61280E-07
  38.500      2.37960E-07
  39.500      3.87030E-07
  40.500      4.98310E-07
  41.400      6.63820E-07
  42.200      7.78870E-07
  43.000      9.50830E-07
  44.100      1.23820E-06
  45.100      1.49730E-06
  46.000      1.71480E-06
  47.000      2.12970E-06
  48.000      2.60090E-06
  49.000      3.06420E-06
  50.000      3.75030E-06
  50.600      7.79500E-06
  51.200      5.11130E-05
  52.000      4.96170E-05
  53.000      4.85480E-05
  54.000      4.57600E-05
  55.000      5.74670E-05
  56.000      6.97670E-05
  57.000      7.49240E-05
  58.000      7.11530E-05
  59.000      7.91750E-05
  60.000      7.25380E-05
  61.000      8.54880E-05
  62.000      9.94710E-05
  63.000      1.00440E-04
  64.000      1.01000E-04
  65.000      1.07630E-04
  65.800      1.00640E-04
  66.500      1.12190E-04
  67.500      1.20190E-04
  68.500      1.06090E-04
  69.500      1.35820E-04
  70.500      1.23520E-04
  71.600      1.51350E-04
  72.600      1.52110E-04
  73.500      1.56140E-04
  74.500      1.61540E-04
  75.500      1.65240E-04
  76.500      1.72840E-04
  77.500      1.80520E-04
  78.500      1.91280E-04
  79.500      1.94930E-04
  80.500      1.95110E-04
  81.500      1.99230E-04
  82.500      2.12530E-04
  83.500      1.88930E-04
  84.500      2.15630E-04
  85.500      2.19260E-04
  86.500      2.30390E-04
  87.500      2.37890E-04
  88.500      2.47770E-04
  89.500      2.55550E-04
  90.500      2.54670E-04
  91.500      2.60330E-04
  92.500      7.08920E-04
  93.500      1.23850E-03
  94.500      2.03780E-03
  95.500      2.39220E-03
  96.500      3.01120E-03
  97.500      1.13910E-03
  98.500      2.74120E-03
  99.500      2.48270E-03
  100.50      2.69430E-03
  101.50      2.79220E-03
  102.50      1.76740E-03
  103.50      2.70960E-03
  104.50      3.28450E-03
  105.50      3.17440E-03
  106.50      2.74590E-03
  107.50      2.94420E-03
  108.50      2.70170E-03
  109.50      2.98310E-03
  110.50      2.87880E-03
  111.50      2.88210E-03
  112.50      2.41820E-03
  113.50      2.84350E-03
  114.50      2.70920E-03
  115.50      2.67960E-03
  116.50      2.63020E-03
  117.50      1.81750E-03
  118.50      2.48600E-03
  119.50      2.44220E-03
  120.50      2.29460E-03
  121.50      1.54600E-03
  122.50      2.30680E-03
  123.50      2.54280E-03
  124.50      2.49220E-03
  125.50      2.51390E-03
  126.50      2.59700E-03
  127.50      2.67140E-03
  128.50      2.69460E-03
  129.50      2.47830E-03
  130.50      2.53990E-03
  131.50      2.71220E-03
  132.50      2.62290E-03
  133.50      2.58410E-03
  134.50      2.59120E-03
  135.50      2.58940E-03
  136.50      2.50530E-03
  137.50      2.47930E-03
  138.50      2.42680E-03
  139.50      1.98660E-03
  140.50      2.06550E-03
  141.50      2.35510E-03
  142.50      2.16850E-03
  143.50      2.31210E-03
  144.20      2.33520E-03
  144.70      2.32420E-03
  145.50      2.24990E-03
  146.50      2.20570E-03
  147.50      2.22570E-03
  148.50      2.24410E-03
  149.50      2.20150E-03
  150.50      2.12840E-03
  151.20      2.06920E-03
  151.70      2.09590E-03
  152.50      2.06940E-03
  153.50      1.82600E-03
  154.50      1.66570E-03
  155.50      1.66470E-03
  156.50      1.82730E-03
  157.50      1.92450E-03
  158.50      1.95280E-03
  159.50      1.96120E-03
  160.50      1.89290E-03
  161.50      1.82540E-03
  162.50      1.88160E-03
  163.50      1.91630E-03
  164.50      1.90990E-03
  165.50      1.95710E-03
  166.50      1.94960E-03
  167.20      1.84360E-03
  167.70      2.08370E-03
  168.50      2.00850E-03
  169.50      1.95680E-03
  170.50      1.93740E-03
  171.50      1.88560E-03
  172.50      1.82700E-03
  173.50      1.90560E-03
  174.50      1.90060E-03
  175.50      1.89240E-03
  176.50      1.87800E-03
  177.50      1.83320E-03
  178.50      1.86830E-03
  179.50      1.85780E-03
  180.50      1.87150E-03
  181.50      1.81580E-03
  182.50      1.81890E-03
  183.50      1.82010E-03
  184.50      1.71810E-03
  185.50      1.75230E-03
  186.50      1.77630E-03
  187.50      1.76940E-03
  188.50      1.67620E-03
  189.50      1.63360E-03
  190.50      1.70470E-03
  191.50      1.66190E-03
  192.50      1.57940E-03
  193.50      1.68060E-03
  194.50      1.71960E-03
  195.50      1.58570E-03
  196.70      1.66990E-03
  197.60      1.73050E-03
  198.40      1.65650E-03
  199.50      1.63440E-03
  200.50      1.67020E-03
  201.50      1.68090E-03
  202.50      1.69700E-03
  203.50      1.62960E-03
  204.50      1.62900E-03
  205.50      1.41510E-03
  206.50      1.39000E-03
  207.40      1.43460E-03
  207.80      1.39760E-03
  208.50      1.43730E-03
  209.50      1.46700E-03
  210.50      1.57440E-03
  211.50      1.60310E-03
  212.50      1.59720E-03
  213.50      1.58920E-03
  214.50      1.56620E-03
  215.50      1.58190E-03
  216.50      1.54750E-03
  217.50      1.56700E-03
  218.50      1.54010E-03
  219.50      1.56490E-03
  220.50      1.55580E-03
  221.50      1.52010E-03
  222.50      1.53200E-03
  223.50      1.51840E-03
  224.50      1.51340E-03
  225.50      1.47730E-03
  226.50      1.49870E-03
  227.50      1.49220E-03
  228.50      1.47230E-03
  229.50      1.36680E-03
  230.50      1.43080E-03
  231.50      1.43990E-03
  232.50      1.43920E-03
  233.50      1.42690E-03
  234.50      1.42700E-03
  235.50      1.41400E-03
  236.50      1.40560E-03
  237.50      1.38830E-03
  238.50      1.35310E-03
  239.50      1.36450E-03
  240.50      1.36750E-03
  241.50      1.35900E-03
  242.50      1.35670E-03
  243.50      1.34020E-03
  244.50      1.33780E-03
  245.50      1.33130E-03
  246.50      1.32550E-03
  247.50      1.31570E-03
  248.50      1.29970E-03
  249.50      1.10190E-03
  250.50      1.27080E-03
  251.30      1.21680E-03
  251.80      1.24910E-03
  252.50      1.27700E-03
  253.50      1.27410E-03
  254.50      1.25300E-03
  255.50      1.25010E-03
  256.50      1.24630E-03
  257.50      1.24070E-03
  258.50      1.23660E-03
  259.50      1.22790E-03
  260.50      1.22660E-03
  261.50      1.21540E-03
  262.50      1.21280E-03
  263.50      1.20670E-03
  264.50      1.19620E-03
  265.50      1.19160E-03
  266.50      1.17200E-03
  267.50      1.16200E-03
  268.50      1.17030E-03
  269.50      1.14680E-03
  270.50      1.14350E-03
  271.50      1.13960E-03
  272.50      1.13470E-03
  273.50      1.11930E-03
  274.50      1.12730E-03
  275.50      1.12360E-03
  276.50      1.10980E-03
  277.50      1.11770E-03
  278.50      1.10770E-03
  279.50      1.07930E-03
  280.50      1.08870E-03
  281.50      1.09360E-03
  282.50      1.08060E-03
  283.50      1.06370E-03
  284.50      1.07610E-03
  285.50      1.06660E-03
  286.50      1.06040E-03
  287.50      1.05560E-03
  288.50      1.05010E-03
  289.50      1.04410E-03
  291.00      1.03130E-03
  293.00      1.02790E-03
  295.00      1.00850E-03
  297.00      1.00450E-03
  299.00      9.89840E-04
  301.00      9.74460E-04
  303.00      9.66930E-04
  305.00      9.62270E-04
  307.00      9.57500E-04
  309.00      9.36660E-04
  311.00      9.37860E-04
  313.00      9.25000E-04
  315.00      9.17880E-04
  317.00      9.07100E-04
  319.00      8.96320E-04
  321.00      8.88650E-04
  323.00      8.81860E-04
  325.00      8.77070E-04
  327.00      8.64930E-04
  329.00      8.58550E-04
  331.00      8.50960E-04
  333.00      8.40510E-04
  335.00      8.32210E-04
  337.00      8.25040E-04
  339.00      8.21420E-04
  341.00      8.13520E-04
  343.00      8.05670E-04
  345.00      7.94930E-04
  347.00      7.89320E-04
  349.00      7.82060E-04
  351.00      7.75990E-04
  353.00      7.70960E-04
  355.00      7.63620E-04
  357.00      7.59960E-04
  359.00      7.46950E-04
  361.00      7.43230E-04
  363.00      7.35270E-04
  364.00      7.35900E-04
  365.00      7.17480E-04
  367.00      7.14640E-04
  369.00      7.09190E-04
  371.00      6.92120E-04
  373.00      6.84770E-04
  375.00      6.79800E-04
  377.00      6.63850E-04
  379.00      6.84170E-04
  381.00      7.08320E-04
  383.00      6.40370E-04
  385.00      7.28040E-04
  387.00      7.30430E-04
  389.00      6.16680E-04
  391.00      7.40530E-04
  393.00      7.34890E-04
  395.00      7.20820E-04
  397.00      5.93070E-04
  399.00      7.11910E-04
  401.00      7.16420E-04
  403.00      6.85530E-04
  405.00      7.10670E-04
  407.00      6.87330E-04
  409.00      6.40090E-04
  411.00      5.82900E-04
  413.00      6.72810E-04
  415.00      6.73980E-04
  417.00      6.77180E-04
  419.00      6.71330E-04
  421.00      6.67560E-04
  423.00      6.63630E-04
  425.00      6.51790E-04
  427.00      6.42000E-04
  429.00      6.38230E-04
  431.00      6.25130E-04
  433.00      5.76360E-04
  435.00      5.38420E-04
  437.00      6.10950E-04
  439.00      6.03470E-04
  441.00      6.09060E-04
  443.00      6.09570E-04
  445.00      6.03960E-04
  447.00      5.77420E-04
  449.00      5.94870E-04
  451.00      5.91390E-04
  453.00      5.88500E-04
  455.00      5.81530E-04
  457.00      5.79920E-04
  459.00      5.74090E-04
  461.00      5.67370E-04
  463.00      5.60440E-04
  465.00      5.42710E-04
  467.00      5.54130E-04
  469.00      5.47770E-04
  471.00      5.39260E-04
  473.00      5.46480E-04
  475.00      5.41670E-04
  477.00      5.41200E-04
  479.00      5.36670E-04
  481.00      5.30180E-04
  483.00      5.21930E-04
  485.00      4.87260E-04
  487.00      4.44870E-04
  489.00      5.09960E-04
  491.00      5.10140E-04
  493.00      4.96570E-04
  495.00      5.03320E-04
  497.00      5.03200E-04
  499.00      4.99340E-04
  501.00      4.85990E-04
  503.00      4.90930E-04
  505.00      4.85820E-04
  507.00      4.85660E-04
  509.00      4.81720E-04
  511.00      4.78050E-04
  513.00      4.73760E-04
  515.00      4.70690E-04
  517.00      4.67980E-04
  519.00      4.65410E-04
  521.00      4.62380E-04
  523.00      4.59210E-04
  525.00      4.55580E-04
  527.00      4.52300E-04
  529.00      4.49980E-04
  531.00      4.46900E-04
  533.00      4.44000E-04
  535.00      4.40910E-04
  537.00      4.38140E-04
  539.00      4.34970E-04
  541.00      4.30180E-04
  543.00      4.29560E-04
  545.00      4.26610E-04
  547.00      4.23790E-04
  549.00      4.21040E-04
  551.00      4.18480E-04
  553.00      4.15490E-04
  555.00      4.13200E-04
  557.00      4.10460E-04
  559.00      4.07560E-04
  561.00      4.05310E-04
  563.00      4.02780E-04
  565.00      3.99880E-04
  567.00      3.96490E-04
  569.00      3.91280E-04
  571.00      3.89320E-04
  573.00      3.87300E-04
  575.00      3.84160E-04
  577.00      3.82860E-04
  579.00      3.80330E-04
  581.00      3.77900E-04
  583.00      3.74950E-04
  585.00      3.73350E-04
  587.00      3.60740E-04
  589.00      3.67040E-04
  591.00      3.66480E-04
  593.00      3.64360E-04
  595.00      3.62330E-04
  597.00      3.61230E-04
  599.00      3.58590E-04
  601.00      3.57410E-04
  603.00      3.55110E-04
  605.00      3.53290E-04
  607.00      3.51440E-04
  609.00      3.49430E-04
  611.00      3.47290E-04
  613.00      3.45370E-04
  615.00      3.42610E-04
  617.00      3.40860E-04
  619.00      3.39230E-04
  621.00      3.37410E-04
  623.00      3.35470E-04
  625.00      3.33210E-04
  627.00      3.31470E-04
  629.00      3.29690E-04
  631.00      3.27640E-04
  633.00      3.25930E-04
  635.00      3.23850E-04
  637.00      3.22260E-04
  639.00      3.20360E-04
  641.00      3.18560E-04
  643.00      3.16830E-04
  645.00      3.14960E-04
  647.00      3.12510E-04
  649.00      3.11020E-04
  651.00      3.08950E-04
  653.00      3.05810E-04
  655.00      2.93800E-04
  657.00      2.64730E-04
  659.00      2.98220E-04
  661.00      3.00100E-04
  663.00      2.99460E-04
  665.00      2.97810E-04
  667.00      2.92960E-04
  669.00      2.91480E-04
  671.00      2.92890E-04
  673.00      2.90960E-04
  675.00      2.89890E-04
  677.00      2.88500E-04
  679.00      2.85920E-04
  681.00      2.85250E-04
  683.00      2.83700E-04
  685.00      2.82330E-04
  687.00      2.80790E-04
  689.00      2.78970E-04
  691.00      2.77310E-04
  693.00      2.76450E-04
  695.00      2.75000E-04
  697.00      2.73570E-04
  699.00      2.72110E-04
  701.00      2.70640E-04
  703.00      2.69030E-04
  705.00      2.67780E-04
  707.00      2.62640E-04
  709.00      2.65120E-04
  711.00      2.63620E-04
  713.00      2.62320E-04
  715.00      2.61080E-04
  717.00      2.59630E-04
  719.00      2.58400E-04
  721.00      2.57110E-04
  723.00      2.53770E-04
  725.00      2.54190E-04
  727.00      2.53220E-04
  729.00      2.50120E-04
  731.00      2.50630E-04
  733.00      2.49370E-04
  735.00      2.48160E-04
  737.00      2.46940E-04
  739.00      2.45720E-04
  741.00      2.44500E-04
  743.00      2.43290E-04
  745.00      2.42080E-04
  747.00      2.40370E-04
  749.00      2.39440E-04
  751.00      2.38490E-04
  753.00      2.37270E-04
  755.00      2.36240E-04
  757.00      2.35070E-04
  759.00      2.33730E-04
  761.00      2.32530E-04
  763.00      2.31630E-04
  765.00      2.30520E-04
  767.00      2.29450E-04
  769.00      2.28230E-04
  771.00      2.27160E-04
  773.00      2.25950E-04
  775.00      2.25090E-04
  777.00      2.23970E-04
  779.00      2.22980E-04
  781.00      2.21850E-04
  783.00      2.20880E-04
  785.00      2.19970E-04
  787.00      2.18660E-04
  789.00      2.17520E-04
  791.00      2.16810E-04
  793.00      2.15740E-04
  795.00      2.14850E-04
  797.00      2.13740E-04
  799.00      2.12820E-04
  801.00      2.11820E-04
  803.00      2.10790E-04
  805.00      2.09900E-04
  807.00      2.08920E-04
  809.00      2.07740E-04
  811.00      2.06060E-04
  813.00      2.06040E-04
  815.00      2.04950E-04
  817.00      2.04170E-04
  819.00      2.02550E-04
  821.00      2.01200E-04
  823.00      2.00100E-04
  825.00      1.99780E-04
  827.00      1.97840E-04
  829.00      1.97970E-04
  831.00      1.97270E-04
  833.00      1.96230E-04
  835.00      1.94730E-04
  837.00      1.94330E-04
  839.00      1.93820E-04
  841.00      1.92880E-04
  843.00      1.92060E-04
  845.00      1.90310E-04
  847.00      1.90420E-04
  849.00      1.89310E-04
  851.00      1.88330E-04
  853.00      1.87530E-04
  855.00      1.86720E-04
  857.00      1.86450E-04
  859.00      1.83360E-04
  861.00      1.83920E-04
  863.00      1.84610E-04
  865.00      1.81900E-04
  867.00      1.79040E-04
  869.00      1.82130E-04
  871.00      1.82450E-04
  873.00      1.79030E-04
  875.00      1.72410E-04
  877.00      1.76140E-04
  879.00      1.79790E-04
  881.00      1.79930E-04
  883.00      1.77980E-04
  885.00      1.70250E-04
  887.00      1.64270E-04
  889.00      1.74130E-04
  891.00      1.76380E-04
  893.00      1.76300E-04
  895.00      1.75840E-04
  897.00      1.74480E-04
  899.00      1.69930E-04
  901.00      1.57230E-04
  903.00      1.61850E-04
  905.00      1.69910E-04
  907.00      1.69810E-04
  909.00      1.70760E-04
  911.00      1.70760E-04
  913.00      1.70130E-04
  915.00      1.69330E-04
  917.00      1.67930E-04
  919.00      1.66240E-04
  921.00      1.59320E-04
  923.00      1.45760E-04
  925.00      1.57690E-04
  927.00      1.63190E-04
  929.00      1.64020E-04
  931.00      1.63290E-04
  933.00      1.63210E-04
  935.00      1.62460E-04
  937.00      1.62280E-04
  939.00      1.61680E-04
  941.00      1.60940E-04
  943.00      1.60310E-04
  945.00      1.59530E-04
  947.00      1.57870E-04
  949.00      1.57500E-04
  951.00      1.54420E-04
  953.00      1.47650E-04
  955.00      1.35350E-04
  957.00      1.49210E-04
  959.00      1.53420E-04
  961.00      1.53620E-04
  963.00      1.52960E-04
  965.00      1.53520E-04
  967.00      1.53010E-04
  969.00      1.52300E-04
  971.00      1.50380E-04
  973.00      1.51070E-04
  975.00      1.50620E-04
  977.00      1.50050E-04
  979.00      1.49450E-04
  981.00      1.48800E-04
  983.00      1.48320E-04
  985.00      1.47700E-04
  987.00      1.47090E-04
  989.00      1.46380E-04
  991.00      1.45320E-04
  993.00      1.45470E-04
  995.00      1.44850E-04
  997.00      1.43930E-04
  999.00      1.43080E-04
  1002.5      1.35870E-04
  1007.5      1.32840E-04
  1012.5      1.38910E-04
  1017.5      1.38920E-04
  1022.5      1.37570E-04
  1027.5      1.36360E-04
  1032.5      1.34570E-04
  1037.5      1.33890E-04
  1042.5      1.32670E-04
  1047.5      1.31460E-04
  1052.5      1.30260E-04
  1057.5      1.29110E-04
  1062.5      1.27950E-04
  1067.5      1.26620E-04
  1072.5      1.25690E-04
  1077.5      1.24570E-04
  1082.5      1.22290E-04
  1087.5      1.21610E-04
  1092.5      1.11260E-04
  1097.5      1.16600E-04
  1102.5      1.18360E-04
  1107.5      1.18060E-04
  1112.5      1.17190E-04
  1117.5      1.16210E-04
  1122.5      1.15170E-04
  1127.5      1.14240E-04
  1132.5      1.13200E-04
  1137.5      1.12310E-04
  1142.5      1.11350E-04
  1147.5      1.10460E-04
  1152.5      1.09560E-04
  1157.5      1.08610E-04
  1162.5      1.07660E-04
  1167.5      1.06770E-04
  1172.5      1.06010E-04
  1177.5      1.05150E-04
  1182.5      1.04290E-04
  1187.5      1.03460E-04
  1192.5      1.02630E-04
  1197.5      1.00620E-04
  1202.5      1.01000E-04
  1207.5      1.00200E-04
  1212.5      9.94020E-05
  1217.5      9.86310E-05
  1222.5      9.78560E-05
  1227.5      9.70970E-05
  1232.5      9.63410E-05
  1237.5      9.55890E-05
  1242.5      9.48610E-05
  1247.5      9.41070E-05
  1252.5      9.32000E-05
  1257.5      9.26690E-05
  1262.5      9.19680E-05
  1267.5      9.12990E-05
  1272.5      9.04220E-05
  1277.5      8.79560E-05
  1282.5      8.17100E-05
  1287.5      8.76180E-05
  1292.5      8.77960E-05
  1297.5      8.66380E-05
  1302.5      8.65930E-05
  1307.5      8.60050E-05
  1312.5      8.53760E-05
  1317.5      8.47530E-05
  1322.5      8.41370E-05
  1327.5      8.35280E-05
  1332.5      8.29100E-05
  1337.5      8.22930E-05
  1342.5      8.16650E-05
  1347.5      8.11460E-05
  1352.5      8.05410E-05
  1357.5      8.00000E-05
  1362.5      7.93710E-05
  1367.5      7.88780E-05
  1372.5      7.82790E-05
  1377.5      7.77840E-05
  1382.5      7.72430E-05
  1387.5      7.67020E-05
  1392.5      7.61320E-05
  1397.5      7.56390E-05
