 Castelli and Kurucz 2004-2012 Atmosphere
 T     34000.     G    4.00000 [0.0] VTURB=2  L/H=1.25 NOVER NEW ODF           
 Wavelength  Eddington Hnu
   (nm)    (ergs/s/cm2/Hz/sr)
  9.0900      8.17710E-31
  9.3500      4.30720E-30
  9.6100      2.08590E-29
  9.7700      5.32900E-29
  9.9600      1.56110E-28
  10.200      5.76260E-28
  10.380      1.48160E-27
  10.560      3.69830E-27
  10.770      1.03780E-26
  11.040      3.70550E-26
  11.400      1.85250E-25
  11.780      9.17780E-25
  12.130      3.68400E-24
  12.480      1.37190E-23
  12.710      3.13440E-23
  12.840      4.93730E-23
  13.050      1.00910E-22
  13.240      1.89200E-22
  13.390      3.06970E-22
  13.660      7.15070E-22
  13.980      1.87260E-21
  14.330      5.11150E-21
  14.720      1.47700E-20
  15.100      3.97240E-20
  15.520      1.11850E-19
  15.880      2.60560E-19
  16.200      5.35930E-19
  16.600      1.27540E-18
  17.030      3.09400E-18
  17.340      5.73090E-18
  17.680      1.10210E-17
  18.020      2.06410E-17
  18.170      2.71500E-17
  18.610      5.85800E-17
  19.100      1.32840E-16
  19.390      2.11790E-16
  19.840      4.26830E-16
  20.180      7.09050E-16
  20.500      1.12800E-15
  21.050      2.43370E-15
  21.620      5.16820E-15
  21.980      8.23760E-15
  22.300      1.22650E-14
  22.680      1.94460E-14
  23.000      2.04520E-11
  23.400      4.87700E-11
  24.000      7.49760E-11
  24.650      1.23090E-10
  25.240      2.04590E-10
  25.680      2.80740E-10
  26.000      5.02360E-10
  26.400      1.08500E-09
  26.850      1.69660E-09
  27.350      2.24290E-09
  27.850      2.57210E-09
  28.400      5.19840E-09
  29.000      7.40530E-09
  29.600      9.29770E-09
  30.100      2.04460E-08
  30.800      4.61870E-08
  31.800      1.17390E-07
  32.800      1.74900E-07
  33.800      3.33470E-07
  34.800      5.16340E-07
  35.700      1.08500E-06
  36.600      2.36830E-06
  37.500      2.75860E-06
  38.500      3.48690E-06
  39.500      6.08730E-06
  40.500      8.15990E-06
  41.400      9.05190E-06
  42.200      1.01020E-05
  43.000      1.04430E-05
  44.100      1.30120E-05
  45.100      1.41400E-05
  46.000      1.39600E-05
  47.000      1.62030E-05
  48.000      1.94290E-05
  49.000      1.88230E-05
  50.000      2.41570E-05
  50.600      3.54160E-05
  51.200      1.59220E-04
  52.000      1.54470E-04
  53.000      1.41450E-04
  54.000      1.33040E-04
  55.000      1.45160E-04
  56.000      2.03030E-04
  57.000      2.33510E-04
  58.000      2.25050E-04
  59.000      2.39930E-04
  60.000      1.87600E-04
  61.000      2.30310E-04
  62.000      2.97320E-04
  63.000      2.93430E-04
  64.000      3.16080E-04
  65.000      3.09990E-04
  65.800      2.57150E-04
  66.500      3.19450E-04
  67.500      3.73450E-04
  68.500      2.94360E-04
  69.500      3.92600E-04
  70.500      3.10230E-04
  71.600      4.39580E-04
  72.600      4.43600E-04
  73.500      4.57890E-04
  74.500      4.29130E-04
  75.500      4.40370E-04
  76.500      4.38730E-04
  77.500      4.75190E-04
  78.500      4.79190E-04
  79.500      5.10880E-04
  80.500      4.99830E-04
  81.500      5.09370E-04
  82.500      5.43340E-04
  83.500      4.47230E-04
  84.500      5.41130E-04
  85.500      5.43400E-04
  86.500      5.72120E-04
  87.500      5.83400E-04
  88.500      5.96900E-04
  89.500      6.08210E-04
  90.500      6.00980E-04
  91.500      6.07440E-04
  92.500      1.36550E-03
  93.500      1.98840E-03
  94.500      2.33220E-03
  95.500      2.53540E-03
  96.500      2.78850E-03
  97.500      1.61540E-03
  98.500      2.43010E-03
  99.500      2.25460E-03
  100.50      2.33380E-03
  101.50      2.48340E-03
  102.50      2.22730E-03
  103.50      2.55340E-03
  104.50      2.82130E-03
  105.50      2.75970E-03
  106.50      2.56260E-03
  107.50      2.62650E-03
  108.50      2.49880E-03
  109.50      2.63890E-03
  110.50      2.58340E-03
  111.50      2.57950E-03
  112.50      2.30200E-03
  113.50      2.57600E-03
  114.50      2.56330E-03
  115.50      2.45650E-03
  116.50      2.41800E-03
  117.50      1.79980E-03
  118.50      2.28610E-03
  119.50      2.25720E-03
  120.50      2.23110E-03
  121.50      1.92630E-03
  122.50      2.19820E-03
  123.50      2.34030E-03
  124.50      2.30190E-03
  125.50      2.32260E-03
  126.50      2.40330E-03
  127.50      2.48440E-03
  128.50      2.50570E-03
  129.50      2.43650E-03
  130.50      2.42600E-03
  131.50      2.53600E-03
  132.50      2.49980E-03
  133.50      2.46230E-03
  134.50      2.50400E-03
  135.50      2.44660E-03
  136.50      2.41420E-03
  137.50      2.37400E-03
  138.50      2.35210E-03
  139.50      2.08100E-03
  140.50      2.08460E-03
  141.50      2.34770E-03
  142.50      2.14690E-03
  143.50      2.29150E-03
  144.20      2.26670E-03
  144.70      2.27420E-03
  145.50      2.19900E-03
  146.50      2.19860E-03
  147.50      2.22350E-03
  148.50      2.25380E-03
  149.50      2.21010E-03
  150.50      2.21690E-03
  151.20      2.20390E-03
  151.70      2.21760E-03
  152.50      2.16470E-03
  153.50      1.96420E-03
  154.50      1.65600E-03
  155.50      1.70470E-03
  156.50      1.92250E-03
  157.50      2.02450E-03
  158.50      2.04870E-03
  159.50      2.05270E-03
  160.50      1.95070E-03
  161.50      1.89930E-03
  162.50      1.95430E-03
  163.50      1.97860E-03
  164.50      1.97110E-03
  165.50      2.02080E-03
  166.50      2.00700E-03
  167.20      1.87800E-03
  167.70      2.14770E-03
  168.50      2.07780E-03
  169.50      2.04160E-03
  170.50      2.03630E-03
  171.50      1.97050E-03
  172.50      1.93760E-03
  173.50      2.01700E-03
  174.50      2.01390E-03
  175.50      1.99250E-03
  176.50      1.99360E-03
  177.50      1.95840E-03
  178.50      1.99280E-03
  179.50      1.95870E-03
  180.50      1.96860E-03
  181.50      1.94900E-03
  182.50      1.93060E-03
  183.50      1.95060E-03
  184.50      1.91060E-03
  185.50      1.92900E-03
  186.50      1.93350E-03
  187.50      1.90450E-03
  188.50      1.86350E-03
  189.50      1.87150E-03
  190.50      1.90200E-03
  191.50      1.87970E-03
  192.50      1.79730E-03
  193.50      1.88190E-03
  194.50      1.89720E-03
  195.50      1.78790E-03
  196.70      1.85570E-03
  197.60      1.87350E-03
  198.40      1.85350E-03
  199.50      1.82010E-03
  200.50      1.85850E-03
  201.50      1.85740E-03
  202.50      1.85370E-03
  203.50      1.82410E-03
  204.50      1.81000E-03
  205.50      1.44990E-03
  206.50      1.41340E-03
  207.40      1.48340E-03
  207.80      1.50100E-03
  208.50      1.63260E-03
  209.50      1.73080E-03
  210.50      1.74890E-03
  211.50      1.77540E-03
  212.50      1.75340E-03
  213.50      1.75780E-03
  214.50      1.74600E-03
  215.50      1.75890E-03
  216.50      1.69670E-03
  217.50      1.74550E-03
  218.50      1.70430E-03
  219.50      1.74180E-03
  220.50      1.73050E-03
  221.50      1.68110E-03
  222.50      1.70740E-03
  223.50      1.69880E-03
  224.50      1.68420E-03
  225.50      1.64770E-03
  226.50      1.67100E-03
  227.50      1.66770E-03
  228.50      1.64350E-03
  229.50      1.54240E-03
  230.50      1.59830E-03
  231.50      1.61170E-03
  232.50      1.61540E-03
  233.50      1.60550E-03
  234.50      1.59310E-03
  235.50      1.57730E-03
  236.50      1.56630E-03
  237.50      1.54940E-03
  238.50      1.49860E-03
  239.50      1.52120E-03
  240.50      1.52660E-03
  241.50      1.52100E-03
  242.50      1.52210E-03
  243.50      1.50950E-03
  244.50      1.50310E-03
  245.50      1.49260E-03
  246.50      1.48590E-03
  247.50      1.48000E-03
  248.50      1.45300E-03
  249.50      1.17480E-03
  250.50      1.42410E-03
  251.30      1.37690E-03
  251.80      1.41010E-03
  252.50      1.43590E-03
  253.50      1.43640E-03
  254.50      1.42570E-03
  255.50      1.41710E-03
  256.50      1.41210E-03
  257.50      1.40420E-03
  258.50      1.39770E-03
  259.50      1.38110E-03
  260.50      1.38600E-03
  261.50      1.37050E-03
  262.50      1.37060E-03
  263.50      1.36640E-03
  264.50      1.35450E-03
  265.50      1.35050E-03
  266.50      1.33750E-03
  267.50      1.31710E-03
  268.50      1.32690E-03
  269.50      1.31370E-03
  270.50      1.31440E-03
  271.50      1.30290E-03
  272.50      1.29850E-03
  273.50      1.27100E-03
  274.50      1.29100E-03
  275.50      1.28290E-03
  276.50      1.27270E-03
  277.50      1.27280E-03
  278.50      1.26110E-03
  279.50      1.23910E-03
  280.50      1.24720E-03
  281.50      1.24580E-03
  282.50      1.23740E-03
  283.50      1.22930E-03
  284.50      1.22950E-03
  285.50      1.22200E-03
  286.50      1.21120E-03
  287.50      1.20720E-03
  288.50      1.20250E-03
  289.50      1.19640E-03
  291.00      1.18400E-03
  293.00      1.17760E-03
  295.00      1.16240E-03
  297.00      1.15110E-03
  299.00      1.13370E-03
  301.00      1.12160E-03
  303.00      1.10660E-03
  305.00      1.10220E-03
  307.00      1.09460E-03
  309.00      1.08230E-03
  311.00      1.07640E-03
  313.00      1.06450E-03
  315.00      1.05690E-03
  317.00      1.04600E-03
  319.00      1.03690E-03
  321.00      1.01810E-03
  323.00      1.01840E-03
  325.00      1.01180E-03
  327.00      9.94430E-04
  329.00      9.90560E-04
  331.00      9.80740E-04
  333.00      9.70940E-04
  335.00      9.57560E-04
  337.00      9.52020E-04
  339.00      9.47920E-04
  341.00      9.38780E-04
  343.00      9.31500E-04
  345.00      9.18730E-04
  347.00      9.14480E-04
  349.00      9.07050E-04
  351.00      9.00180E-04
  353.00      8.92150E-04
  355.00      8.84020E-04
  357.00      8.77900E-04
  359.00      8.68020E-04
  361.00      8.59170E-04
  363.00      8.52370E-04
  364.00      8.42630E-04
  365.00      7.92000E-04
  367.00      7.87010E-04
  369.00      7.81670E-04
  371.00      7.72980E-04
  373.00      7.72630E-04
  375.00      7.87670E-04
  377.00      7.89510E-04
  379.00      8.09250E-04
  381.00      8.26740E-04
  383.00      7.76910E-04
  385.00      8.30560E-04
  387.00      8.21440E-04
  389.00      7.57060E-04
  391.00      8.22410E-04
  393.00      8.06860E-04
  395.00      8.01860E-04
  397.00      7.27730E-04
  399.00      7.95080E-04
  401.00      7.87480E-04
  403.00      7.69300E-04
  405.00      7.78100E-04
  407.00      7.63210E-04
  409.00      7.39700E-04
  411.00      6.97960E-04
  413.00      7.46070E-04
  415.00      7.41980E-04
  417.00      7.41390E-04
  419.00      7.34190E-04
  421.00      7.24530E-04
  423.00      7.26260E-04
  425.00      7.17490E-04
  427.00      7.10260E-04
  429.00      7.05960E-04
  431.00      6.96860E-04
  433.00      6.73980E-04
  435.00      6.41380E-04
  437.00      6.82970E-04
  439.00      6.73260E-04
  441.00      6.71080E-04
  443.00      6.70230E-04
  445.00      6.64760E-04
  447.00      6.51660E-04
  449.00      6.55430E-04
  451.00      6.46610E-04
  453.00      6.44030E-04
  455.00      6.33770E-04
  457.00      6.36820E-04
  459.00      6.30310E-04
  461.00      6.26390E-04
  463.00      6.18580E-04
  465.00      5.97180E-04
  467.00      6.10370E-04
  469.00      5.96470E-04
  471.00      6.00590E-04
  473.00      6.03730E-04
  475.00      5.99160E-04
  477.00      5.95610E-04
  479.00      5.91350E-04
  481.00      5.86750E-04
  483.00      5.81910E-04
  485.00      5.66900E-04
  487.00      5.30260E-04
  489.00      5.69320E-04
  491.00      5.65690E-04
  493.00      5.56950E-04
  495.00      5.57320E-04
  497.00      5.55380E-04
  499.00      5.51640E-04
  501.00      5.42550E-04
  503.00      5.42960E-04
  505.00      5.38580E-04
  507.00      5.36710E-04
  509.00      5.33060E-04
  511.00      5.29410E-04
  513.00      5.25580E-04
  515.00      5.22080E-04
  517.00      5.18550E-04
  519.00      5.15320E-04
  521.00      5.12100E-04
  523.00      5.08790E-04
  525.00      5.04320E-04
  527.00      5.00940E-04
  529.00      4.98820E-04
  531.00      4.95530E-04
  533.00      4.92300E-04
  535.00      4.89220E-04
  537.00      4.86020E-04
  539.00      4.82780E-04
  541.00      4.74550E-04
  543.00      4.76760E-04
  545.00      4.73700E-04
  547.00      4.70590E-04
  549.00      4.67670E-04
  551.00      4.64420E-04
  553.00      4.61780E-04
  555.00      4.58980E-04
  557.00      4.55840E-04
  559.00      4.52040E-04
  561.00      4.50440E-04
  563.00      4.47640E-04
  565.00      4.44800E-04
  567.00      4.41810E-04
  569.00      4.33490E-04
  571.00      4.20510E-04
  573.00      4.18180E-04
  575.00      4.15510E-04
  577.00      4.13540E-04
  579.00      4.11240E-04
  581.00      4.08280E-04
  583.00      4.06960E-04
  585.00      4.06560E-04
  587.00      3.99250E-04
  589.00      4.04020E-04
  591.00      4.03350E-04
  593.00      4.02540E-04
  595.00      4.02040E-04
  597.00      4.01680E-04
  599.00      4.00520E-04
  601.00      3.99070E-04
  603.00      3.96470E-04
  605.00      3.94320E-04
  607.00      3.92080E-04
  609.00      3.90050E-04
  611.00      3.87460E-04
  613.00      3.85290E-04
  615.00      3.83020E-04
  617.00      3.80340E-04
  619.00      3.78960E-04
  621.00      3.76920E-04
  623.00      3.73980E-04
  625.00      3.72380E-04
  627.00      3.70460E-04
  629.00      3.68420E-04
  631.00      3.65170E-04
  633.00      3.64270E-04
  635.00      3.62100E-04
  637.00      3.60200E-04
  639.00      3.58170E-04
  641.00      3.55030E-04
  643.00      3.54230E-04
  645.00      3.52050E-04
  647.00      3.49860E-04
  649.00      3.48100E-04
  651.00      3.46180E-04
  653.00      3.42500E-04
  655.00      3.38470E-04
  657.00      3.13340E-04
  659.00      3.37910E-04
  661.00      3.37000E-04
  663.00      3.35280E-04
  665.00      3.33430E-04
  667.00      3.29130E-04
  669.00      3.26210E-04
  671.00      3.27520E-04
  673.00      3.25710E-04
  675.00      3.24160E-04
  677.00      3.22850E-04
  679.00      3.21040E-04
  681.00      3.19550E-04
  683.00      3.17850E-04
  685.00      3.16140E-04
  687.00      3.14370E-04
  689.00      3.10890E-04
  691.00      3.10910E-04
  693.00      3.09660E-04
  695.00      3.08050E-04
  697.00      3.06460E-04
  699.00      3.04870E-04
  701.00      3.03100E-04
  703.00      3.01120E-04
  705.00      2.99910E-04
  707.00      2.95460E-04
  709.00      2.97130E-04
  711.00      2.95550E-04
  713.00      2.94050E-04
  715.00      2.92640E-04
  717.00      2.89900E-04
  719.00      2.89150E-04
  721.00      2.88230E-04
  723.00      2.86090E-04
  725.00      2.85230E-04
  727.00      2.83920E-04
  729.00      2.81130E-04
  731.00      2.80980E-04
  733.00      2.79690E-04
  735.00      2.78320E-04
  737.00      2.76920E-04
  739.00      2.75590E-04
  741.00      2.74200E-04
  743.00      2.72900E-04
  745.00      2.71440E-04
  747.00      2.70070E-04
  749.00      2.68290E-04
  751.00      2.67530E-04
  753.00      2.66270E-04
  755.00      2.65020E-04
  757.00      2.63690E-04
  759.00      2.60590E-04
  761.00      2.60900E-04
  763.00      2.59850E-04
  765.00      2.58650E-04
  767.00      2.57510E-04
  769.00      2.55860E-04
  771.00      2.54860E-04
  773.00      2.53360E-04
  775.00      2.52610E-04
  777.00      2.51470E-04
  779.00      2.50300E-04
  781.00      2.49070E-04
  783.00      2.47940E-04
  785.00      2.46650E-04
  787.00      2.45490E-04
  789.00      2.44370E-04
  791.00      2.43420E-04
  793.00      2.42290E-04
  795.00      2.41230E-04
  797.00      2.39950E-04
  799.00      2.38970E-04
  801.00      2.37870E-04
  803.00      2.36640E-04
  805.00      2.35710E-04
  807.00      2.34660E-04
  809.00      2.33440E-04
  811.00      2.32150E-04
  813.00      2.31490E-04
  815.00      2.30250E-04
  817.00      2.29310E-04
  819.00      2.27680E-04
  821.00      2.22760E-04
  823.00      2.20980E-04
  825.00      2.20930E-04
  827.00      2.19570E-04
  829.00      2.19090E-04
  831.00      2.18260E-04
  833.00      2.16930E-04
  835.00      2.15600E-04
  837.00      2.15210E-04
  839.00      2.14560E-04
  841.00      2.13680E-04
  843.00      2.12820E-04
  845.00      2.11490E-04
  847.00      2.11100E-04
  849.00      2.10320E-04
  851.00      2.08620E-04
  853.00      2.08900E-04
  855.00      2.06910E-04
  857.00      2.08250E-04
  859.00      2.04790E-04
  861.00      2.04510E-04
  863.00      2.06850E-04
  865.00      2.04470E-04
  867.00      1.98390E-04
  869.00      2.04870E-04
  871.00      2.05140E-04
  873.00      2.02670E-04
  875.00      1.92480E-04
  877.00      2.00050E-04
  879.00      2.02780E-04
  881.00      2.02250E-04
  883.00      2.01120E-04
  885.00      1.95110E-04
  887.00      1.86340E-04
  889.00      1.97890E-04
  891.00      1.98270E-04
  893.00      1.97480E-04
  895.00      1.96860E-04
  897.00      1.96080E-04
  899.00      1.93460E-04
  901.00      1.80850E-04
  903.00      1.86790E-04
  905.00      1.92280E-04
  907.00      1.91190E-04
  909.00      1.91150E-04
  911.00      1.90620E-04
  913.00      1.89990E-04
  915.00      1.89250E-04
  917.00      1.88190E-04
  919.00      1.87260E-04
  921.00      1.83190E-04
  923.00      1.69580E-04
  925.00      1.81950E-04
  927.00      1.84130E-04
  929.00      1.83830E-04
  931.00      1.82780E-04
  933.00      1.82320E-04
  935.00      1.79890E-04
  937.00      1.80620E-04
  939.00      1.80230E-04
  941.00      1.79370E-04
  943.00      1.78730E-04
  945.00      1.78070E-04
  947.00      1.76920E-04
  949.00      1.76610E-04
  951.00      1.74610E-04
  953.00      1.70970E-04
  955.00      1.58700E-04
  957.00      1.71650E-04
  959.00      1.72910E-04
  961.00      1.72300E-04
  963.00      1.71370E-04
  965.00      1.71270E-04
  967.00      1.70640E-04
  969.00      1.69910E-04
  971.00      1.66640E-04
  973.00      1.68270E-04
  975.00      1.67980E-04
  977.00      1.67010E-04
  979.00      1.66710E-04
  981.00      1.66050E-04
  983.00      1.65410E-04
  985.00      1.64780E-04
  987.00      1.64150E-04
  989.00      1.63450E-04
  991.00      1.62630E-04
  993.00      1.62320E-04
  995.00      1.61710E-04
  997.00      1.61060E-04
  999.00      1.60490E-04
  1002.5      1.55790E-04
  1007.5      1.52700E-04
  1012.5      1.54790E-04
  1017.5      1.55040E-04
  1022.5      1.53560E-04
  1027.5      1.52160E-04
  1032.5      1.50420E-04
  1037.5      1.49450E-04
  1042.5      1.47890E-04
  1047.5      1.46770E-04
  1052.5      1.45440E-04
  1057.5      1.44150E-04
  1062.5      1.42860E-04
  1067.5      1.41490E-04
  1072.5      1.40360E-04
  1077.5      1.39130E-04
  1082.5      1.36910E-04
  1087.5      1.36600E-04
  1092.5      1.28870E-04
  1097.5      1.32950E-04
  1102.5      1.32850E-04
  1107.5      1.32040E-04
  1112.5      1.30930E-04
  1117.5      1.29850E-04
  1122.5      1.28710E-04
  1127.5      1.27660E-04
  1132.5      1.26550E-04
  1137.5      1.25520E-04
  1142.5      1.24480E-04
  1147.5      1.23460E-04
  1152.5      1.22450E-04
  1157.5      1.21430E-04
  1162.5      1.19920E-04
  1167.5      1.19150E-04
  1172.5      1.18500E-04
  1177.5      1.17550E-04
  1182.5      1.16570E-04
  1187.5      1.15650E-04
  1192.5      1.14730E-04
  1197.5      1.13050E-04
  1202.5      1.12930E-04
  1207.5      1.12020E-04
  1212.5      1.11110E-04
  1217.5      1.10290E-04
  1222.5      1.09430E-04
  1227.5      1.08580E-04
  1232.5      1.07730E-04
  1237.5      1.06900E-04
  1242.5      1.06090E-04
  1247.5      1.05270E-04
  1252.5      1.04330E-04
  1257.5      1.03650E-04
  1262.5      1.02880E-04
  1267.5      1.02120E-04
  1272.5      1.01350E-04
  1277.5      9.95980E-05
  1282.5      9.48770E-05
  1287.5      9.88810E-05
  1292.5      9.83670E-05
  1297.5      9.72940E-05
  1302.5      9.68970E-05
  1307.5      9.62150E-05
  1312.5      9.55140E-05
  1317.5      9.48190E-05
  1322.5      9.41320E-05
  1327.5      9.34530E-05
  1332.5      9.27740E-05
  1337.5      9.21050E-05
  1342.5      9.14070E-05
  1347.5      9.07990E-05
  1352.5      9.01450E-05
  1357.5      8.95230E-05
  1362.5      8.88740E-05
  1367.5      8.82680E-05
  1372.5      8.76140E-05
  1377.5      8.70420E-05
  1382.5      8.64370E-05
  1387.5      8.58370E-05
  1392.5      8.52250E-05
  1397.5      8.46570E-05
