 Castelli and Kurucz 2004-2012 Atmosphere
 T     32000.     G    4.00000 [0.0] VTURB=2  L/H=1.25 NOVER NEW ODF           
 Wavelength  Eddington Hnu
   (nm)    (ergs/s/cm2/Hz/sr)
  9.0900      2.67600E-33
  9.3500      1.64710E-32
  9.6100      9.27400E-32
  9.7700      2.58130E-31
  9.9600      8.36500E-31
  10.200      3.48990E-30
  10.380      9.80130E-30
  10.560      2.66480E-29
  10.770      8.23220E-29
  11.040      3.30860E-28
  11.400      1.92030E-27
  11.780      1.10300E-26
  12.130      5.03100E-26
  12.480      2.11460E-25
  12.710      5.21140E-25
  12.840      8.55780E-25
  13.050      1.86800E-24
  13.240      3.71080E-24
  13.390      6.29310E-24
  13.660      1.58470E-23
  13.980      4.52960E-23
  14.330      1.35580E-22
  14.720      4.33120E-22
  15.100      1.27100E-21
  15.520      3.93420E-21
  15.880      9.90180E-21
  16.200      2.17740E-20
  16.600      5.60140E-20
  17.030      1.47280E-19
  17.340      2.88350E-19
  17.680      5.87080E-19
  18.020      1.16300E-18
  18.170      1.56570E-18
  18.610      3.61430E-18
  19.100      8.80250E-18
  19.390      1.46050E-17
  19.840      3.12420E-17
  20.180      5.42450E-17
  20.500      8.97690E-17
  21.050      2.06660E-16
  21.620      4.68460E-16
  21.980      7.74280E-16
  22.300      1.19150E-15
  22.680      1.96880E-15
  23.000      1.34410E-12
  23.400      3.05740E-12
  24.000      5.12890E-12
  24.650      9.20080E-12
  25.240      1.58490E-11
  25.680      2.22120E-11
  26.000      4.14200E-11
  26.400      7.42550E-11
  26.850      1.14930E-10
  27.350      1.62320E-10
  27.850      2.08900E-10
  28.400      4.61010E-10
  29.000      6.89020E-10
  29.600      9.38200E-10
  30.100      1.57490E-09
  30.800      3.81000E-09
  31.800      9.17700E-09
  32.800      1.39510E-08
  33.800      2.66980E-08
  34.800      4.35380E-08
  35.700      8.88030E-08
  36.600      1.77760E-07
  37.500      2.20160E-07
  38.500      3.26410E-07
  39.500      5.47700E-07
  40.500      7.08850E-07
  41.400      9.29980E-07
  42.200      1.08440E-06
  43.000      1.28630E-06
  44.100      1.67940E-06
  45.100      1.96580E-06
  46.000      2.17280E-06
  47.000      2.69280E-06
  48.000      3.29760E-06
  49.000      3.70990E-06
  50.000      4.66760E-06
  50.600      9.34620E-06
  51.200      5.83620E-05
  52.000      5.69170E-05
  53.000      5.27520E-05
  54.000      5.05530E-05
  55.000      6.11110E-05
  56.000      8.13990E-05
  57.000      9.01650E-05
  58.000      8.54850E-05
  59.000      9.36390E-05
  60.000      7.67800E-05
  61.000      9.75860E-05
  62.000      1.20260E-04
  63.000      1.19720E-04
  64.000      1.22920E-04
  65.000      1.21850E-04
  65.800      1.06150E-04
  66.500      1.29640E-04
  67.500      1.49680E-04
  68.500      1.21520E-04
  69.500      1.65350E-04
  70.500      1.35490E-04
  71.600      1.87290E-04
  72.600      1.87820E-04
  73.500      1.93070E-04
  74.500      1.88630E-04
  75.500      1.94090E-04
  76.500      2.01680E-04
  77.500      2.14920E-04
  78.500      2.26530E-04
  79.500      2.33960E-04
  80.500      2.29380E-04
  81.500      2.33460E-04
  82.500      2.52680E-04
  83.500      2.10940E-04
  84.500      2.53090E-04
  85.500      2.56850E-04
  86.500      2.70770E-04
  87.500      2.78650E-04
  88.500      2.89680E-04
  89.500      2.98070E-04
  90.500      2.95680E-04
  91.500      3.36820E-04
  92.500      1.00120E-03
  93.500      1.54240E-03
  94.500      1.93010E-03
  95.500      2.09260E-03
  96.500      2.33520E-03
  97.500      1.06600E-03
  98.500      1.97090E-03
  99.500      1.85590E-03
  100.50      1.97220E-03
  101.50      2.10060E-03
  102.50      1.78860E-03
  103.50      2.11220E-03
  104.50      2.43710E-03
  105.50      2.36410E-03
  106.50      2.12460E-03
  107.50      2.22490E-03
  108.50      2.10200E-03
  109.50      2.25050E-03
  110.50      2.19750E-03
  111.50      2.19710E-03
  112.50      1.87110E-03
  113.50      2.18420E-03
  114.50      2.13930E-03
  115.50      2.08310E-03
  116.50      2.05440E-03
  117.50      1.40890E-03
  118.50      1.93280E-03
  119.50      1.91640E-03
  120.50      1.86300E-03
  121.50      1.56000E-03
  122.50      1.87160E-03
  123.50      2.01730E-03
  124.50      1.96870E-03
  125.50      1.99290E-03
  126.50      2.06980E-03
  127.50      2.14690E-03
  128.50      2.16980E-03
  129.50      2.05940E-03
  130.50      2.07750E-03
  131.50      2.20570E-03
  132.50      2.15860E-03
  133.50      2.12170E-03
  134.50      2.15630E-03
  135.50      2.12710E-03
  136.50      2.08880E-03
  137.50      2.05910E-03
  138.50      2.02570E-03
  139.50      1.66290E-03
  140.50      1.72210E-03
  141.50      2.00040E-03
  142.50      1.83050E-03
  143.50      1.96260E-03
  144.20      1.96130E-03
  144.70      1.96230E-03
  145.50      1.89390E-03
  146.50      1.87360E-03
  147.50      1.90630E-03
  148.50      1.92700E-03
  149.50      1.88990E-03
  150.50      1.86460E-03
  151.20      1.83480E-03
  151.70      1.86050E-03
  152.50      1.81580E-03
  153.50      1.61890E-03
  154.50      1.40880E-03
  155.50      1.42880E-03
  156.50      1.60940E-03
  157.50      1.70570E-03
  158.50      1.73310E-03
  159.50      1.73530E-03
  160.50      1.65840E-03
  161.50      1.60680E-03
  162.50      1.66000E-03
  163.50      1.69340E-03
  164.50      1.69690E-03
  165.50      1.72850E-03
  166.50      1.72220E-03
  167.20      1.60900E-03
  167.70      1.86040E-03
  168.50      1.78740E-03
  169.50      1.74520E-03
  170.50      1.74360E-03
  171.50      1.68460E-03
  172.50      1.64780E-03
  173.50      1.71870E-03
  174.50      1.71520E-03
  175.50      1.70630E-03
  176.50      1.70400E-03
  177.50      1.66640E-03
  178.50      1.70170E-03
  179.50      1.68180E-03
  180.50      1.69620E-03
  181.50      1.66260E-03
  182.50      1.65810E-03
  183.50      1.67090E-03
  184.50      1.60020E-03
  185.50      1.63340E-03
  186.50      1.64820E-03
  187.50      1.63250E-03
  188.50      1.56700E-03
  189.50      1.54780E-03
  190.50      1.60140E-03
  191.50      1.57260E-03
  192.50      1.49630E-03
  193.50      1.58890E-03
  194.50      1.61760E-03
  195.50      1.49670E-03
  196.70      1.57510E-03
  197.60      1.61750E-03
  198.40      1.57210E-03
  199.50      1.54530E-03
  200.50      1.58400E-03
  201.50      1.59340E-03
  202.50      1.60380E-03
  203.50      1.55410E-03
  204.50      1.54890E-03
  205.50      1.29340E-03
  206.50      1.26520E-03
  207.40      1.33240E-03
  207.80      1.32320E-03
  208.50      1.41470E-03
  209.50      1.47420E-03
  210.50      1.50920E-03
  211.50      1.53270E-03
  212.50      1.52170E-03
  213.50      1.52130E-03
  214.50      1.50490E-03
  215.50      1.52120E-03
  216.50      1.47780E-03
  217.50      1.50860E-03
  218.50      1.48070E-03
  219.50      1.51010E-03
  220.50      1.50030E-03
  221.50      1.46480E-03
  222.50      1.47940E-03
  223.50      1.46860E-03
  224.50      1.46060E-03
  225.50      1.43250E-03
  226.50      1.44910E-03
  227.50      1.44590E-03
  228.50      1.42580E-03
  229.50      1.30850E-03
  230.50      1.38940E-03
  231.50      1.39620E-03
  232.50      1.39880E-03
  233.50      1.38810E-03
  234.50      1.38370E-03
  235.50      1.37040E-03
  236.50      1.36130E-03
  237.50      1.34620E-03
  238.50      1.30970E-03
  239.50      1.32230E-03
  240.50      1.32780E-03
  241.50      1.32110E-03
  242.50      1.32120E-03
  243.50      1.30840E-03
  244.50      1.30460E-03
  245.50      1.29770E-03
  246.50      1.29080E-03
  247.50      1.28310E-03
  248.50      1.25920E-03
  249.50      9.95690E-04
  250.50      1.22900E-03
  251.30      1.19620E-03
  251.80      1.22340E-03
  252.50      1.24830E-03
  253.50      1.24770E-03
  254.50      1.23160E-03
  255.50      1.22770E-03
  256.50      1.22460E-03
  257.50      1.21860E-03
  258.50      1.21350E-03
  259.50      1.20280E-03
  260.50      1.20460E-03
  261.50      1.19160E-03
  262.50      1.19080E-03
  263.50      1.18650E-03
  264.50      1.17650E-03
  265.50      1.17230E-03
  266.50      1.15680E-03
  267.50      1.14260E-03
  268.50      1.15280E-03
  269.50      1.13540E-03
  270.50      1.13450E-03
  271.50      1.12710E-03
  272.50      1.12430E-03
  273.50      1.10660E-03
  274.50      1.11800E-03
  275.50      1.11250E-03
  276.50      1.10180E-03
  277.50      1.10590E-03
  278.50      1.09570E-03
  279.50      1.07110E-03
  280.50      1.08100E-03
  281.50      1.08280E-03
  282.50      1.07410E-03
  283.50      1.06180E-03
  284.50      1.06750E-03
  285.50      1.05960E-03
  286.50      1.05170E-03
  287.50      1.04790E-03
  288.50      1.04350E-03
  289.50      1.03840E-03
  291.00      1.02620E-03
  293.00      1.02250E-03
  295.00      1.00710E-03
  297.00      9.99780E-04
  299.00      9.84830E-04
  301.00      9.71820E-04
  303.00      9.61460E-04
  305.00      9.58240E-04
  307.00      9.53220E-04
  309.00      9.36890E-04
  311.00      9.36010E-04
  313.00      9.24560E-04
  315.00      9.17870E-04
  317.00      9.07990E-04
  319.00      8.99610E-04
  321.00      8.87670E-04
  323.00      8.83350E-04
  325.00      8.78880E-04
  327.00      8.65170E-04
  329.00      8.60520E-04
  331.00      8.52550E-04
  333.00      8.42830E-04
  335.00      8.33030E-04
  337.00      8.27150E-04
  339.00      8.24460E-04
  341.00      8.16700E-04
  343.00      8.09830E-04
  345.00      7.99030E-04
  347.00      7.94440E-04
  349.00      7.87350E-04
  351.00      7.81840E-04
  353.00      7.76550E-04
  355.00      7.69270E-04
  357.00      7.64140E-04
  359.00      7.54190E-04
  361.00      7.47660E-04
  363.00      7.41670E-04
  364.00      7.37740E-04
  365.00      7.07620E-04
  367.00      7.04090E-04
  369.00      6.97990E-04
  371.00      6.84950E-04
  373.00      6.77370E-04
  375.00      6.92530E-04
  377.00      6.90760E-04
  379.00      7.13970E-04
  381.00      7.33650E-04
  383.00      6.78600E-04
  385.00      7.42040E-04
  387.00      7.31680E-04
  389.00      6.62140E-04
  391.00      7.37480E-04
  393.00      7.22850E-04
  395.00      7.17120E-04
  397.00      6.36240E-04
  399.00      7.11970E-04
  401.00      7.06270E-04
  403.00      6.88010E-04
  405.00      6.98010E-04
  407.00      6.80780E-04
  409.00      6.56240E-04
  411.00      6.13210E-04
  413.00      6.66670E-04
  415.00      6.64230E-04
  417.00      6.65010E-04
  419.00      6.59180E-04
  421.00      6.52900E-04
  423.00      6.51780E-04
  425.00      6.42210E-04
  427.00      6.34040E-04
  429.00      6.30570E-04
  431.00      6.21210E-04
  433.00      5.96770E-04
  435.00      5.63590E-04
  437.00      6.09200E-04
  439.00      6.01960E-04
  441.00      6.01040E-04
  443.00      6.00980E-04
  445.00      5.95820E-04
  447.00      5.81630E-04
  449.00      5.87790E-04
  451.00      5.81030E-04
  453.00      5.79050E-04
  455.00      5.71420E-04
  457.00      5.71640E-04
  459.00      5.65880E-04
  461.00      5.61160E-04
  463.00      5.54320E-04
  465.00      5.34430E-04
  467.00      5.47100E-04
  469.00      5.38990E-04
  471.00      5.36450E-04
  473.00      5.41320E-04
  475.00      5.36790E-04
  477.00      5.35150E-04
  479.00      5.31170E-04
  481.00      5.26570E-04
  483.00      5.21270E-04
  485.00      5.04900E-04
  487.00      4.67990E-04
  489.00      5.10500E-04
  491.00      5.07710E-04
  493.00      4.98180E-04
  495.00      4.99530E-04
  497.00      4.98820E-04
  499.00      4.95300E-04
  501.00      4.84760E-04
  503.00      4.87230E-04
  505.00      4.82920E-04
  507.00      4.81970E-04
  509.00      4.78450E-04
  511.00      4.75040E-04
  513.00      4.71310E-04
  515.00      4.68240E-04
  517.00      4.65230E-04
  519.00      4.62550E-04
  521.00      4.59680E-04
  523.00      4.56640E-04
  525.00      4.52690E-04
  527.00      4.49620E-04
  529.00      4.47730E-04
  531.00      4.44690E-04
  533.00      4.41860E-04
  535.00      4.39060E-04
  537.00      4.36190E-04
  539.00      4.33160E-04
  541.00      4.27520E-04
  543.00      4.27890E-04
  545.00      4.25090E-04
  547.00      4.22300E-04
  549.00      4.19630E-04
  551.00      4.16980E-04
  553.00      4.14300E-04
  555.00      4.11940E-04
  557.00      4.09180E-04
  559.00      4.06030E-04
  561.00      4.04280E-04
  563.00      4.01770E-04
  565.00      3.99080E-04
  567.00      3.96030E-04
  569.00      3.89540E-04
  571.00      3.83950E-04
  573.00      3.81900E-04
  575.00      3.79130E-04
  577.00      3.77660E-04
  579.00      3.75340E-04
  581.00      3.72780E-04
  583.00      3.70540E-04
  585.00      3.69740E-04
  587.00      3.61180E-04
  589.00      3.65710E-04
  591.00      3.64800E-04
  593.00      3.63230E-04
  595.00      3.61870E-04
  597.00      3.61110E-04
  599.00      3.59290E-04
  601.00      3.57850E-04
  603.00      3.55460E-04
  605.00      3.53560E-04
  607.00      3.51670E-04
  609.00      3.49730E-04
  611.00      3.47550E-04
  613.00      3.45670E-04
  615.00      3.43170E-04
  617.00      3.41230E-04
  619.00      3.39720E-04
  621.00      3.37910E-04
  623.00      3.35800E-04
  625.00      3.33810E-04
  627.00      3.32070E-04
  629.00      3.30290E-04
  631.00      3.27950E-04
  633.00      3.26580E-04
  635.00      3.24570E-04
  637.00      3.22960E-04
  639.00      3.21130E-04
  641.00      3.18990E-04
  643.00      3.17610E-04
  645.00      3.15710E-04
  647.00      3.13530E-04
  649.00      3.11960E-04
  651.00      3.10380E-04
  653.00      3.07660E-04
  655.00      3.02260E-04
  657.00      2.77180E-04
  659.00      3.02050E-04
  661.00      3.02040E-04
  663.00      3.00580E-04
  665.00      2.98870E-04
  667.00      2.94860E-04
  669.00      2.93010E-04
  671.00      2.93770E-04
  673.00      2.91930E-04
  675.00      2.90760E-04
  677.00      2.89530E-04
  679.00      2.87440E-04
  681.00      2.86470E-04
  683.00      2.84930E-04
  685.00      2.83480E-04
  687.00      2.81900E-04
  689.00      2.79600E-04
  691.00      2.78600E-04
  693.00      2.77680E-04
  695.00      2.76220E-04
  697.00      2.74800E-04
  699.00      2.73370E-04
  701.00      2.71820E-04
  703.00      2.70100E-04
  705.00      2.68970E-04
  707.00      2.64450E-04
  709.00      2.66430E-04
  711.00      2.64670E-04
  713.00      2.63500E-04
  715.00      2.62410E-04
  717.00      2.60590E-04
  719.00      2.59580E-04
  721.00      2.58460E-04
  723.00      2.55610E-04
  725.00      2.55610E-04
  727.00      2.54600E-04
  729.00      2.51800E-04
  731.00      2.52000E-04
  733.00      2.50780E-04
  735.00      2.49570E-04
  737.00      2.48340E-04
  739.00      2.47140E-04
  741.00      2.45910E-04
  743.00      2.44720E-04
  745.00      2.43470E-04
  747.00      2.41980E-04
  749.00      2.40710E-04
  751.00      2.39920E-04
  753.00      2.38750E-04
  755.00      2.37690E-04
  757.00      2.36510E-04
  759.00      2.34640E-04
  761.00      2.33970E-04
  763.00      2.33050E-04
  765.00      2.31970E-04
  767.00      2.30940E-04
  769.00      2.29570E-04
  771.00      2.28600E-04
  773.00      2.27310E-04
  775.00      2.26570E-04
  777.00      2.25530E-04
  779.00      2.24490E-04
  781.00      2.23370E-04
  783.00      2.22400E-04
  785.00      2.21390E-04
  787.00      2.20180E-04
  789.00      2.19090E-04
  791.00      2.18320E-04
  793.00      2.17270E-04
  795.00      2.16380E-04
  797.00      2.15230E-04
  799.00      2.14370E-04
  801.00      2.13300E-04
  803.00      2.12270E-04
  805.00      2.11410E-04
  807.00      2.10450E-04
  809.00      2.09320E-04
  811.00      2.07820E-04
  813.00      2.07620E-04
  815.00      2.06460E-04
  817.00      2.05770E-04
  819.00      2.04240E-04
  821.00      2.01810E-04
  823.00      2.00550E-04
  825.00      2.00360E-04
  827.00      1.98640E-04
  829.00      1.98560E-04
  831.00      1.97830E-04
  833.00      1.96700E-04
  835.00      1.95240E-04
  837.00      1.94920E-04
  839.00      1.94380E-04
  841.00      1.93480E-04
  843.00      1.92630E-04
  845.00      1.91090E-04
  847.00      1.90900E-04
  849.00      1.90040E-04
  851.00      1.88420E-04
  853.00      1.88610E-04
  855.00      1.86360E-04
  857.00      1.88230E-04
  859.00      1.83960E-04
  861.00      1.83860E-04
  863.00      1.86900E-04
  865.00      1.83970E-04
  867.00      1.77090E-04
  869.00      1.84760E-04
  871.00      1.85210E-04
  873.00      1.82190E-04
  875.00      1.71040E-04
  877.00      1.79340E-04
  879.00      1.82800E-04
  881.00      1.82390E-04
  883.00      1.81140E-04
  885.00      1.74420E-04
  887.00      1.65470E-04
  889.00      1.78010E-04
  891.00      1.78680E-04
  893.00      1.78110E-04
  895.00      1.77610E-04
  897.00      1.76680E-04
  899.00      1.73930E-04
  901.00      1.60700E-04
  903.00      1.66970E-04
  905.00      1.73210E-04
  907.00      1.72140E-04
  909.00      1.72320E-04
  911.00      1.72040E-04
  913.00      1.71410E-04
  915.00      1.70750E-04
  917.00      1.69680E-04
  919.00      1.68740E-04
  921.00      1.64290E-04
  923.00      1.50330E-04
  925.00      1.63200E-04
  927.00      1.65900E-04
  929.00      1.65790E-04
  931.00      1.64730E-04
  933.00      1.64350E-04
  935.00      1.63110E-04
  937.00      1.63140E-04
  939.00      1.62610E-04
  941.00      1.61840E-04
  943.00      1.61260E-04
  945.00      1.60620E-04
  947.00      1.59430E-04
  949.00      1.59260E-04
  951.00      1.57150E-04
  953.00      1.53170E-04
  955.00      1.40790E-04
  957.00      1.54220E-04
  959.00      1.55820E-04
  961.00      1.55260E-04
  963.00      1.54430E-04
  965.00      1.54530E-04
  967.00      1.53960E-04
  969.00      1.53270E-04
  971.00      1.50560E-04
  973.00      1.51870E-04
  975.00      1.51570E-04
  977.00      1.50970E-04
  979.00      1.50400E-04
  981.00      1.49780E-04
  983.00      1.49260E-04
  985.00      1.48660E-04
  987.00      1.48080E-04
  989.00      1.47400E-04
  991.00      1.46500E-04
  993.00      1.46450E-04
  995.00      1.45900E-04
  997.00      1.45290E-04
  999.00      1.44760E-04
  1002.5      1.39820E-04
  1007.5      1.36920E-04
  1012.5      1.40100E-04
  1017.5      1.39890E-04
  1022.5      1.38540E-04
  1027.5      1.37310E-04
  1032.5      1.35670E-04
  1037.5      1.34850E-04
  1042.5      1.33600E-04
  1047.5      1.32430E-04
  1052.5      1.31220E-04
  1057.5      1.30070E-04
  1062.5      1.28910E-04
  1067.5      1.27630E-04
  1072.5      1.26650E-04
  1077.5      1.25540E-04
  1082.5      1.23410E-04
  1087.5      1.23210E-04
  1092.5      1.15320E-04
  1097.5      1.19660E-04
  1102.5      1.19750E-04
  1107.5      1.19140E-04
  1112.5      1.18150E-04
  1117.5      1.17170E-04
  1122.5      1.16140E-04
  1127.5      1.15190E-04
  1132.5      1.14170E-04
  1137.5      1.13260E-04
  1142.5      1.12310E-04
  1147.5      1.11400E-04
  1152.5      1.10500E-04
  1157.5      1.09570E-04
  1162.5      1.08490E-04
  1167.5      1.07650E-04
  1172.5      1.06950E-04
  1177.5      1.06080E-04
  1182.5      1.05200E-04
  1187.5      1.04380E-04
  1192.5      1.03540E-04
  1197.5      1.01940E-04
  1202.5      1.01920E-04
  1207.5      1.01110E-04
  1212.5      1.00290E-04
  1217.5      9.95360E-05
  1222.5      9.87590E-05
  1227.5      9.79970E-05
  1232.5      9.72310E-05
  1237.5      9.64820E-05
  1242.5      9.57510E-05
  1247.5      9.50030E-05
  1252.5      9.41200E-05
  1257.5      9.35500E-05
  1262.5      9.28550E-05
  1267.5      9.21730E-05
  1272.5      9.14760E-05
  1277.5      8.97110E-05
  1282.5      8.49930E-05
  1287.5      8.91760E-05
  1292.5      8.87880E-05
  1297.5      8.77190E-05
  1302.5      8.74520E-05
  1307.5      8.68530E-05
  1312.5      8.62210E-05
  1317.5      8.55940E-05
  1322.5      8.49760E-05
  1327.5      8.43630E-05
  1332.5      8.37460E-05
  1337.5      8.31310E-05
  1342.5      8.25000E-05
  1347.5      8.19690E-05
  1352.5      8.13650E-05
  1357.5      8.08170E-05
  1362.5      8.02090E-05
  1367.5      7.96870E-05
  1372.5      7.90860E-05
  1377.5      7.85860E-05
  1382.5      7.80410E-05
  1387.5      7.74980E-05
  1392.5      7.69310E-05
  1397.5      7.64310E-05
