 Castelli and Kurucz 2004-2012 Atmosphere
 T     34000.     G    5.00000 [0.0] VTURB=2  L/H=1.25 NOVER NEW ODF           
 Wavelength  Eddington Hnu
   (nm)    (ergs/s/cm2/Hz/sr)
  9.0900      2.13400E-30
  9.3500      1.09520E-29
  9.6100      5.17980E-29
  9.7700      1.29940E-28
  9.9600      3.73780E-28
  10.200      1.34880E-27
  10.380      3.41360E-27
  10.560      8.39330E-27
  10.770      2.31600E-26
  11.040      8.11040E-26
  11.400      3.96390E-25
  11.780      1.92520E-24
  12.130      7.61140E-24
  12.480      2.80050E-23
  12.710      6.35580E-23
  12.840      9.97770E-23
  13.050      2.02970E-22
  13.240      3.79200E-22
  13.390      6.13580E-22
  13.660      1.42410E-21
  13.980      3.71230E-21
  14.330      1.00990E-20
  14.720      2.91780E-20
  15.100      7.80380E-20
  15.520      2.19140E-19
  15.880      5.09580E-19
  16.200      1.04600E-18
  16.600      2.47700E-18
  17.030      5.97470E-18
  17.340      1.10110E-17
  17.680      2.10350E-17
  18.020      3.91460E-17
  18.170      5.12790E-17
  18.610      1.09620E-16
  19.100      2.45780E-16
  19.390      3.88820E-16
  19.840      7.73900E-16
  20.180      1.27450E-15
  20.500      2.00900E-15
  21.050      4.26510E-15
  21.620      8.91840E-15
  21.980      1.40280E-14
  22.300      2.06820E-14
  22.680      3.25280E-14
  23.000      1.12520E-11
  23.400      2.75140E-11
  24.000      4.46920E-11
  24.650      7.62890E-11
  25.240      1.25520E-10
  25.680      1.71190E-10
  26.000      2.81600E-10
  26.400      4.44720E-10
  26.850      6.59720E-10
  27.350      9.12730E-10
  27.850      1.16550E-09
  28.400      2.30500E-09
  29.000      3.33720E-09
  29.600      4.46010E-09
  30.100      6.81340E-09
  30.800      1.38670E-08
  31.800      2.97880E-08
  32.800      4.37390E-08
  33.800      7.70370E-08
  34.800      1.19830E-07
  35.700      2.27850E-07
  36.600      4.18740E-07
  37.500      5.12380E-07
  38.500      7.29020E-07
  39.500      1.15130E-06
  40.500      1.44180E-06
  41.400      1.85210E-06
  42.200      2.12470E-06
  43.000      2.50090E-06
  44.100      3.18410E-06
  45.100      3.74530E-06
  46.000      4.15210E-06
  47.000      5.03320E-06
  48.000      6.04580E-06
  49.000      6.87020E-06
  50.000      8.34690E-06
  50.600      1.51430E-05
  51.200      9.27700E-05
  52.000      8.95240E-05
  53.000      8.58650E-05
  54.000      8.04000E-05
  55.000      9.80770E-05
  56.000      1.21290E-04
  57.000      1.29930E-04
  58.000      1.23680E-04
  59.000      1.35270E-04
  60.000      1.20480E-04
  61.000      1.42360E-04
  62.000      1.67260E-04
  63.000      1.67570E-04
  64.000      1.70420E-04
  65.000      1.78170E-04
  65.800      1.62280E-04
  66.500      1.83160E-04
  67.500      1.98940E-04
  68.500      1.71600E-04
  69.500      2.18280E-04
  70.500      1.94590E-04
  71.600      2.41580E-04
  72.600      2.42240E-04
  73.500      2.48410E-04
  74.500      2.50700E-04
  75.500      2.55600E-04
  76.500      2.65190E-04
  77.500      2.76040E-04
  78.500      2.90600E-04
  79.500      2.95910E-04
  80.500      2.94110E-04
  81.500      3.00040E-04
  82.500      3.18540E-04
  83.500      2.81730E-04
  84.500      3.21140E-04
  85.500      3.25480E-04
  86.500      3.40920E-04
  87.500      3.49760E-04
  88.500      3.61480E-04
  89.500      3.71150E-04
  90.500      3.68750E-04
  91.500      3.68310E-04
  92.500      9.02420E-04
  93.500      1.49680E-03
  94.500      2.32580E-03
  95.500      2.69210E-03
  96.500      3.34700E-03
  97.500      1.41820E-03
  98.500      3.03250E-03
  99.500      2.73650E-03
  100.50      2.94060E-03
  101.50      3.06080E-03
  102.50      2.06050E-03
  103.50      3.01820E-03
  104.50      3.55780E-03
  105.50      3.45290E-03
  106.50      3.02960E-03
  107.50      3.20980E-03
  108.50      2.94900E-03
  109.50      3.24120E-03
  110.50      3.13340E-03
  111.50      3.13960E-03
  112.50      2.67340E-03
  113.50      3.09480E-03
  114.50      2.97540E-03
  115.50      2.91550E-03
  116.50      2.85540E-03
  117.50      2.02670E-03
  118.50      2.69940E-03
  119.50      2.65690E-03
  120.50      2.53530E-03
  121.50      1.77400E-03
  122.50      2.51810E-03
  123.50      2.75200E-03
  124.50      2.70180E-03
  125.50      2.72370E-03
  126.50      2.81250E-03
  127.50      2.89130E-03
  128.50      2.91680E-03
  129.50      2.72640E-03
  130.50      2.77240E-03
  131.50      2.93470E-03
  132.50      2.84930E-03
  133.50      2.80830E-03
  134.50      2.81980E-03
  135.50      2.80500E-03
  136.50      2.72790E-03
  137.50      2.69910E-03
  138.50      2.64340E-03
  139.50      2.22100E-03
  140.50      2.28310E-03
  141.50      2.58340E-03
  142.50      2.36750E-03
  143.50      2.52700E-03
  144.20      2.53920E-03
  144.70      2.53100E-03
  145.50      2.44840E-03
  146.50      2.41580E-03
  147.50      2.43080E-03
  148.50      2.45650E-03
  149.50      2.40740E-03
  150.50      2.35160E-03
  151.20      2.30800E-03
  151.70      2.32950E-03
  152.50      2.28790E-03
  153.50      2.03560E-03
  154.50      1.82750E-03
  155.50      1.83810E-03
  156.50      2.01770E-03
  157.50      2.11760E-03
  158.50      2.14930E-03
  159.50      2.15800E-03
  160.50      2.07090E-03
  161.50      1.99810E-03
  162.50      2.06140E-03
  163.50      2.08760E-03
  164.50      2.07750E-03
  165.50      2.13580E-03
  166.50      2.12310E-03
  167.20      2.00240E-03
  167.70      2.26630E-03
  168.50      2.18770E-03
  169.50      2.13720E-03
  170.50      2.11890E-03
  171.50      2.06390E-03
  172.50      2.00060E-03
  173.50      2.08560E-03
  174.50      2.08080E-03
  175.50      2.06590E-03
  176.50      2.05180E-03
  177.50      2.00940E-03
  178.50      2.04560E-03
  179.50      2.02540E-03
  180.50      2.03710E-03
  181.50      1.99180E-03
  182.50      1.98490E-03
  183.50      1.99260E-03
  184.50      1.89960E-03
  185.50      1.92930E-03
  186.50      1.94910E-03
  187.50      1.93280E-03
  188.50      1.85000E-03
  189.50      1.81960E-03
  190.50      1.88240E-03
  191.50      1.84100E-03
  192.50      1.75100E-03
  193.50      1.85510E-03
  194.50      1.88970E-03
  195.50      1.75400E-03
  196.70      1.83630E-03
  197.60      1.88800E-03
  198.40      1.82510E-03
  199.50      1.79640E-03
  200.50      1.83430E-03
  201.50      1.84290E-03
  202.50      1.85260E-03
  203.50      1.79370E-03
  204.50      1.78800E-03
  205.50      1.51340E-03
  206.50      1.47790E-03
  207.40      1.52010E-03
  207.80      1.49580E-03
  208.50      1.54330E-03
  209.50      1.60020E-03
  210.50      1.71930E-03
  211.50      1.75310E-03
  212.50      1.73870E-03
  213.50      1.73430E-03
  214.50      1.71490E-03
  215.50      1.72570E-03
  216.50      1.67990E-03
  217.50      1.71110E-03
  218.50      1.67530E-03
  219.50      1.70710E-03
  220.50      1.69730E-03
  221.50      1.64910E-03
  222.50      1.67230E-03
  223.50      1.65970E-03
  224.50      1.64930E-03
  225.50      1.60470E-03
  226.50      1.63390E-03
  227.50      1.62730E-03
  228.50      1.60340E-03
  229.50      1.49390E-03
  230.50      1.55240E-03
  231.50      1.56970E-03
  232.50      1.57010E-03
  233.50      1.55800E-03
  234.50      1.55380E-03
  235.50      1.53880E-03
  236.50      1.52890E-03
  237.50      1.51060E-03
  238.50      1.46330E-03
  239.50      1.48270E-03
  240.50      1.48780E-03
  241.50      1.47890E-03
  242.50      1.47670E-03
  243.50      1.46040E-03
  244.50      1.45650E-03
  245.50      1.44790E-03
  246.50      1.44160E-03
  247.50      1.43210E-03
  248.50      1.41380E-03
  249.50      1.19780E-03
  250.50      1.38240E-03
  251.30      1.31840E-03
  251.80      1.35600E-03
  252.50      1.38870E-03
  253.50      1.38590E-03
  254.50      1.36590E-03
  255.50      1.36090E-03
  256.50      1.35640E-03
  257.50      1.34980E-03
  258.50      1.34470E-03
  259.50      1.33380E-03
  260.50      1.33330E-03
  261.50      1.32050E-03
  262.50      1.31800E-03
  263.50      1.31160E-03
  264.50      1.30030E-03
  265.50      1.29510E-03
  266.50      1.27630E-03
  267.50      1.26220E-03
  268.50      1.27150E-03
  269.50      1.24950E-03
  270.50      1.24710E-03
  271.50      1.24050E-03
  272.50      1.23420E-03
  273.50      1.21240E-03
  274.50      1.22690E-03
  275.50      1.22170E-03
  276.50      1.20750E-03
  277.50      1.21410E-03
  278.50      1.20340E-03
  279.50      1.17390E-03
  280.50      1.18360E-03
  281.50      1.18750E-03
  282.50      1.17420E-03
  283.50      1.15860E-03
  284.50      1.16880E-03
  285.50      1.15930E-03
  286.50      1.15110E-03
  287.50      1.14630E-03
  288.50      1.14040E-03
  289.50      1.13370E-03
  291.00      1.12020E-03
  293.00      1.11590E-03
  295.00      1.09570E-03
  297.00      1.09000E-03
  299.00      1.07350E-03
  301.00      1.05830E-03
  303.00      1.04790E-03
  305.00      1.04280E-03
  307.00      1.03740E-03
  309.00      1.01700E-03
  311.00      1.01640E-03
  313.00      1.00280E-03
  315.00      9.94780E-04
  317.00      9.83280E-04
  319.00      9.71930E-04
  321.00      9.60680E-04
  323.00      9.55890E-04
  325.00      9.50200E-04
  327.00      9.36120E-04
  329.00      9.29930E-04
  331.00      9.21280E-04
  333.00      9.10160E-04
  335.00      9.00230E-04
  337.00      8.92900E-04
  339.00      8.88960E-04
  341.00      8.80220E-04
  343.00      8.71940E-04
  345.00      8.60040E-04
  347.00      8.54320E-04
  349.00      8.46540E-04
  351.00      8.39680E-04
  353.00      8.34090E-04
  355.00      8.25770E-04
  357.00      8.21380E-04
  359.00      8.08170E-04
  361.00      8.03200E-04
  363.00      7.94840E-04
  364.00      7.93770E-04
  365.00      7.68900E-04
  367.00      7.65270E-04
  369.00      7.59290E-04
  371.00      7.42150E-04
  373.00      7.36200E-04
  375.00      7.31550E-04
  377.00      7.15930E-04
  379.00      7.36760E-04
  381.00      7.61340E-04
  383.00      6.92200E-04
  385.00      7.79690E-04
  387.00      7.80850E-04
  389.00      6.66270E-04
  391.00      7.90330E-04
  393.00      7.84010E-04
  395.00      7.68930E-04
  397.00      6.40240E-04
  399.00      7.60230E-04
  401.00      7.62990E-04
  403.00      7.32330E-04
  405.00      7.56790E-04
  407.00      7.34040E-04
  409.00      6.85980E-04
  411.00      6.27450E-04
  413.00      7.17770E-04
  415.00      7.17920E-04
  417.00      7.20860E-04
  419.00      7.13830E-04
  421.00      7.08510E-04
  423.00      7.06140E-04
  425.00      6.94270E-04
  427.00      6.84540E-04
  429.00      6.80340E-04
  431.00      6.67250E-04
  433.00      6.17910E-04
  435.00      5.79000E-04
  437.00      6.52420E-04
  439.00      6.43290E-04
  441.00      6.48380E-04
  443.00      6.48480E-04
  445.00      6.42750E-04
  447.00      6.16320E-04
  449.00      6.32990E-04
  451.00      6.27990E-04
  453.00      6.25150E-04
  455.00      6.16490E-04
  457.00      6.16500E-04
  459.00      6.10190E-04
  461.00      6.03650E-04
  463.00      5.95620E-04
  465.00      5.75990E-04
  467.00      5.88840E-04
  469.00      5.80020E-04
  471.00      5.74420E-04
  473.00      5.81390E-04
  475.00      5.76350E-04
  477.00      5.74990E-04
  479.00      5.70370E-04
  481.00      5.63900E-04
  483.00      5.55530E-04
  485.00      5.20690E-04
  487.00      4.77150E-04
  489.00      5.42560E-04
  491.00      5.42270E-04
  493.00      5.28770E-04
  495.00      5.35020E-04
  497.00      5.34480E-04
  499.00      5.30460E-04
  501.00      5.17270E-04
  503.00      5.21440E-04
  505.00      5.16320E-04
  507.00      5.15790E-04
  509.00      5.11740E-04
  511.00      5.07900E-04
  513.00      5.03610E-04
  515.00      5.00260E-04
  517.00      4.97100E-04
  519.00      4.94250E-04
  521.00      4.91050E-04
  523.00      4.87680E-04
  525.00      4.83640E-04
  527.00      4.80240E-04
  529.00      4.77870E-04
  531.00      4.74550E-04
  533.00      4.71420E-04
  535.00      4.68190E-04
  537.00      4.65170E-04
  539.00      4.61850E-04
  541.00      4.55570E-04
  543.00      4.56010E-04
  545.00      4.52920E-04
  547.00      4.49900E-04
  549.00      4.46970E-04
  551.00      4.44170E-04
  553.00      4.41110E-04
  555.00      4.38540E-04
  557.00      4.35620E-04
  559.00      4.32380E-04
  561.00      4.30130E-04
  563.00      4.27420E-04
  565.00      4.24430E-04
  567.00      4.21040E-04
  569.00      4.14960E-04
  571.00      4.11360E-04
  573.00      4.09170E-04
  575.00      4.06030E-04
  577.00      4.04430E-04
  579.00      4.01810E-04
  581.00      3.99110E-04
  583.00      3.96100E-04
  585.00      3.94540E-04
  587.00      3.82050E-04
  589.00      3.88410E-04
  591.00      3.87670E-04
  593.00      3.85610E-04
  595.00      3.83610E-04
  597.00      3.82410E-04
  599.00      3.79940E-04
  601.00      3.78450E-04
  603.00      3.76420E-04
  605.00      3.74700E-04
  607.00      3.72750E-04
  609.00      3.70610E-04
  611.00      3.68330E-04
  613.00      3.66270E-04
  615.00      3.63470E-04
  617.00      3.61550E-04
  619.00      3.59770E-04
  621.00      3.57800E-04
  623.00      3.55720E-04
  625.00      3.53370E-04
  627.00      3.51490E-04
  629.00      3.49570E-04
  631.00      3.47390E-04
  633.00      3.45560E-04
  635.00      3.43380E-04
  637.00      3.41650E-04
  639.00      3.39660E-04
  641.00      3.37710E-04
  643.00      3.35870E-04
  645.00      3.33860E-04
  647.00      3.31370E-04
  649.00      3.29760E-04
  651.00      3.27500E-04
  653.00      3.24220E-04
  655.00      3.12350E-04
  657.00      2.82710E-04
  659.00      3.16630E-04
  661.00      3.18210E-04
  663.00      3.17400E-04
  665.00      3.15660E-04
  667.00      3.10540E-04
  669.00      3.08910E-04
  671.00      3.10260E-04
  673.00      3.08340E-04
  675.00      3.07080E-04
  677.00      3.05670E-04
  679.00      3.03200E-04
  681.00      3.02300E-04
  683.00      3.00640E-04
  685.00      2.99120E-04
  687.00      2.97470E-04
  689.00      2.95400E-04
  691.00      2.93850E-04
  693.00      2.92870E-04
  695.00      2.91320E-04
  697.00      2.89800E-04
  699.00      2.88250E-04
  701.00      2.86660E-04
  703.00      2.84880E-04
  705.00      2.83600E-04
  707.00      2.78390E-04
  709.00      2.80810E-04
  711.00      2.79240E-04
  713.00      2.77840E-04
  715.00      2.76510E-04
  717.00      2.74850E-04
  719.00      2.73560E-04
  721.00      2.72280E-04
  723.00      2.69110E-04
  725.00      2.69250E-04
  727.00      2.68150E-04
  729.00      2.64980E-04
  731.00      2.65390E-04
  733.00      2.64070E-04
  735.00      2.62760E-04
  737.00      2.61470E-04
  739.00      2.60170E-04
  741.00      2.58870E-04
  743.00      2.57580E-04
  745.00      2.56290E-04
  747.00      2.54610E-04
  749.00      2.53400E-04
  751.00      2.52480E-04
  753.00      2.51200E-04
  755.00      2.50080E-04
  757.00      2.48830E-04
  759.00      2.47200E-04
  761.00      2.46130E-04
  763.00      2.45180E-04
  765.00      2.44000E-04
  767.00      2.42870E-04
  769.00      2.41510E-04
  771.00      2.40420E-04
  773.00      2.39070E-04
  775.00      2.38240E-04
  777.00      2.37090E-04
  779.00      2.36000E-04
  781.00      2.34800E-04
  783.00      2.33760E-04
  785.00      2.32780E-04
  787.00      2.31420E-04
  789.00      2.30240E-04
  791.00      2.29430E-04
  793.00      2.28310E-04
  795.00      2.27370E-04
  797.00      2.26210E-04
  799.00      2.25220E-04
  801.00      2.24140E-04
  803.00      2.23070E-04
  805.00      2.22130E-04
  807.00      2.21050E-04
  809.00      2.19900E-04
  811.00      2.18200E-04
  813.00      2.18030E-04
  815.00      2.16880E-04
  817.00      2.16040E-04
  819.00      2.14350E-04
  821.00      2.12560E-04
  823.00      2.11280E-04
  825.00      2.10940E-04
  827.00      2.09130E-04
  829.00      2.09100E-04
  831.00      2.08350E-04
  833.00      2.07180E-04
  835.00      2.05670E-04
  837.00      2.05270E-04
  839.00      2.04690E-04
  841.00      2.03710E-04
  843.00      2.02850E-04
  845.00      2.01110E-04
  847.00      2.01120E-04
  849.00      1.99990E-04
  851.00      1.98850E-04
  853.00      1.98130E-04
  855.00      1.97290E-04
  857.00      1.96940E-04
  859.00      1.93940E-04
  861.00      1.94410E-04
  863.00      1.94970E-04
  865.00      1.92330E-04
  867.00      1.89540E-04
  869.00      1.92410E-04
  871.00      1.92640E-04
  873.00      1.89310E-04
  875.00      1.82890E-04
  877.00      1.86400E-04
  879.00      1.89850E-04
  881.00      1.89930E-04
  883.00      1.87990E-04
  885.00      1.80390E-04
  887.00      1.74490E-04
  889.00      1.84070E-04
  891.00      1.86200E-04
  893.00      1.86070E-04
  895.00      1.85520E-04
  897.00      1.84180E-04
  899.00      1.79670E-04
  901.00      1.67050E-04
  903.00      1.71570E-04
  905.00      1.79480E-04
  907.00      1.79320E-04
  909.00      1.80190E-04
  911.00      1.80130E-04
  913.00      1.79460E-04
  915.00      1.78630E-04
  917.00      1.77210E-04
  919.00      1.75490E-04
  921.00      1.68610E-04
  923.00      1.55060E-04
  925.00      1.66920E-04
  927.00      1.72320E-04
  929.00      1.73050E-04
  931.00      1.72290E-04
  933.00      1.72210E-04
  935.00      1.71030E-04
  937.00      1.71100E-04
  939.00      1.70490E-04
  941.00      1.69700E-04
  943.00      1.69040E-04
  945.00      1.68270E-04
  947.00      1.66580E-04
  949.00      1.66160E-04
  951.00      1.63080E-04
  953.00      1.56320E-04
  955.00      1.43950E-04
  957.00      1.57780E-04
  959.00      1.61920E-04
  961.00      1.62080E-04
  963.00      1.61380E-04
  965.00      1.61900E-04
  967.00      1.61320E-04
  969.00      1.60590E-04
  971.00      1.58270E-04
  973.00      1.59230E-04
  975.00      1.58800E-04
  977.00      1.58190E-04
  979.00      1.57560E-04
  981.00      1.56900E-04
  983.00      1.56360E-04
  985.00      1.55710E-04
  987.00      1.55080E-04
  989.00      1.54350E-04
  991.00      1.53300E-04
  993.00      1.53360E-04
  995.00      1.52740E-04
  997.00      1.51800E-04
  999.00      1.50900E-04
  1002.5      1.43670E-04
  1007.5      1.40550E-04
  1012.5      1.46290E-04
  1017.5      1.46430E-04
  1022.5      1.45010E-04
  1027.5      1.43720E-04
  1032.5      1.41870E-04
  1037.5      1.41110E-04
  1042.5      1.39820E-04
  1047.5      1.38550E-04
  1052.5      1.37280E-04
  1057.5      1.36060E-04
  1062.5      1.34830E-04
  1067.5      1.33450E-04
  1072.5      1.32450E-04
  1077.5      1.31270E-04
  1082.5      1.28960E-04
  1087.5      1.28210E-04
  1092.5      1.17810E-04
  1097.5      1.23110E-04
  1102.5      1.24800E-04
  1107.5      1.24420E-04
  1112.5      1.23480E-04
  1117.5      1.22440E-04
  1122.5      1.21350E-04
  1127.5      1.20360E-04
  1132.5      1.19280E-04
  1137.5      1.18320E-04
  1142.5      1.17320E-04
  1147.5      1.16370E-04
  1152.5      1.15420E-04
  1157.5      1.14420E-04
  1162.5      1.13330E-04
  1167.5      1.12470E-04
  1172.5      1.11670E-04
  1177.5      1.10760E-04
  1182.5      1.09850E-04
  1187.5      1.08970E-04
  1192.5      1.08100E-04
  1197.5      1.06040E-04
  1202.5      1.06380E-04
  1207.5      1.05540E-04
  1212.5      1.04680E-04
  1217.5      1.03880E-04
  1222.5      1.03060E-04
  1227.5      1.02260E-04
  1232.5      1.01460E-04
  1237.5      1.00670E-04
  1242.5      9.99000E-05
  1247.5      9.91110E-05
  1252.5      9.81690E-05
  1257.5      9.75910E-05
  1262.5      9.68540E-05
  1267.5      9.61420E-05
  1272.5      9.52340E-05
  1277.5      9.27560E-05
  1282.5      8.64620E-05
  1287.5      9.23400E-05
  1292.5      9.24760E-05
  1297.5      9.13000E-05
  1302.5      9.11840E-05
  1307.5      9.05570E-05
  1312.5      8.98940E-05
  1317.5      8.92360E-05
  1322.5      8.85870E-05
  1327.5      8.79440E-05
  1332.5      8.72970E-05
  1337.5      8.66480E-05
  1342.5      8.59870E-05
  1347.5      8.54320E-05
  1352.5      8.47990E-05
  1357.5      8.42240E-05
  1362.5      8.35740E-05
  1367.5      8.30400E-05
  1372.5      8.24120E-05
  1377.5      8.18850E-05
  1382.5      8.13140E-05
  1387.5      8.07440E-05
  1392.5      8.01500E-05
  1397.5      7.96260E-05
